##TITLE=J. Beck JB244
##JCAMP-DX=5.0
##DATA TYPE=LINK
##BLOCKS=1


$$ === CHEMSPECTRA SPECTRUM ORIG ===
##TITLE=J. Beck JB244
##JCAMP-DX=5.00
##DATA TYPE=INFRARED SPECTRUM
##DATA CLASS=XYDATA
##ORIGIN=Angelika Moesle
##OWNER=
##XUNITS=1/CM
##YUNITS=TRANSMITTANCE
##XFACTOR=1
##YFACTOR=9.1065872e-010
##FIRSTX=3997.453
##LASTX=373.96442
##MAXX=3997.453
##MAXY=0.9778123541436465
##MINX=373.96442
##MINY=0.6246543556086576
##NPOINTS=2559
##XYDATA= (X++(Y..Y))
2559A043686224A043403470A043289583A043263992A043188394A042958919A042695343
2552A042652144A042835345A043013048A043126280A043342272A043658472A043762018
2545A043422648A042883649A042675838A042954533A043273875A043231658A043014749
2538A043033992A043362235A043788918A044149626A044363262A044353509A044129139
2531A043883693A043896849A044259062A044710420A044871629A044629325A044222409
2524A043908696A043648262A043292660A042986670A043067504A043459694A043622865
2517A043284347A042729312A042364285A042389288A042903546A043845273A044752310
2510A045096589A044793610A044155320A043561603A043231855A043209077A043447651
2503A043843898A044208991A044274639A043828190A042948512A042108563A041890476
2496A042445708A043374475A044173647A044667680A044959990A045060524A044948928
2489A044727438A044395792A043925059A043579537A043767908A044376679A044678676
2482A044389050A043843637A043401179A043222495A043315568A043696565A044303438
2475A044760819A044705053A044134310A043359225A042807920A042732258A043079940
2468A043529989A043796184A043893118A043949604A044019965A044091439A044053542
2461A043737211A043134396A042525690A042425483A043152068A044090391A044573953
2454A044587894A044300166A043995420A044051186A044626380A045504160A046407859
2447A047115201A047246563A046693558A045931039A045390273A045199545A045338696
2440A045652278A045874030A045803080A045457034A045070604A045039122A045492771
2433A045880445A045963438A046224592A046802274A047087122A046787089A046173016
2426A045552398A045146856A045124668A045393284A045726959A046040475A046266220
2419A046395619A046586020A046857581A046953337A046705208A046222825A045707258
2412A045421297A045612679A046159009A046493143A046199066A045567845A045310814
2405A045885812A046933767A047603409A047520350A046885660A046027319A045233515
2398A044813050A044970397A045602142A046367933A046895020A047026906A046849399
2391A046530254A046257842A046125825A045997604A045683171A045278022A045280378
2384A045820883A046191932A046004476A045512472A045192803A045215123A045372928
2377A045637355A046253195A047343302A048376793A048568633A048181549A047927921
2370A047771949A047327397A046607750A046149650A046381154A047094518A047852324
2363A048361019A048356568A047722008A046773475A046143104A046305229A047024026
2356A047458236A047410325A047318430A047328182A047251341A046913412A046430440
2349A046174652A046316618A046650883A046874468A046839451A046556435A046089564
2342A045664714A045763547A046490132A047286162A047659763A047540902A047218026
2335A047076584A047251865A047614078A048044099A048478702A048792938A048940271
2328A048909116A048673029A048323711A047929623A047376944A046585889A045814927
2321A045523533A045836984A046437443A046991365A047439124A047763178A047793221
2314A047471916A047218746A047427932A047756567A047851538A047614929A047085289
2307A046576071A046494583A046805612A047055967A047006419A046921135A047192238
2300A047961040A048939878A049292077A048634871A047460265A046274532A045525890
2293A045689913A046853981A048235808A048997803A049181201A049205811A049229046
2286A049068884A048569157A047892773A047397365A047250032A047357767A047564858
2279A047735426A047783336A047738961A047691442A047641306A047499144A047246498
2272A046994834A046926502A047256054A047952269A048484200A048396821A047779672
2265A047103092A046829633A047019248A047361759A047587701A047690788A047793090
2258A047951222A048090832A048060397A047853698A047781439A048032056A048389425
2251A048575636A048495719A048208122A047801729A047416477A047296896A047646542
2244A048362459A049051147A049348038A049096244A048409650A047697006A047430157
2237A047795119A048560059A049212029A049322643A048931762A048507043A048418486
2230A048545528A048479814A048079836A047692424A047729601A048263691A049083742
2223A049838014A050198852A050132483A049919044A049796779A049703771A049456231
2216A049046042A048649139A048376204A048142277A047896503A047814820A048080098
2209A048583883A049098011A049536672A049813207A049789972A049585106A049579870
2202A049904120A050214691A050194467A050032472A050103488A050323800A050279358
2195A049903008A049597477A049638581A049877678A050077045A050139814A050012182
2188A049653504A049178582A048856492A048886469A049238406A049729625A050170576
2181A050460530A050682478A051005354A051365276A051465680A051248967A051064719
2174A051165843A051366323A051390606A051250015A051089984A050928448A050740469
2167A050568002A050380089A050008124A049371405A048620668A048010326A047736801
2160A047865349A048278811A048768786A049249729A049712345A050027171A050087125
2153A050086601A050322229A050764163A051105823A051190911A051147844A051180373
2146A051352382A051494021A051306565A050711277A050069453A049839388A050038363
2139A050293627A050363006A050291009A050144788A049980372A049955828A050114157
2132A050181376A049907130A049467030A049239191A049302353A049393200A049298033
2125A049094607A048998523A049090418A049222435A049177142A048959252A048805570
2118A048763353A048520133A047910642A047242309A046830353A046613182A046459828
2111A046416498A046487318A046558399A046543214A046337432A045802556A045035653
2104A044393763A044092944A044017281A043974017A043913736A043843637A043705729
2097A043451839A043154948A042938301A042830763A042794895A042812633A042789528
2090A042486354A041768539A040872171A040205867A039883711A039632178A039196790
2083A038675136A038352325A038324181A038417843A038423865A038282488A038034620
2076A037690734A037209071A036556381A035734498A034736482A033548262A032272075
2069A031205007A030617246A030420169A030301701A030215304A030366499A030672750
2062A030661426A030004940A028819993A027432210A026136059A025122531A024392804
2055A023814337A023368870A023162171A023089585A022716311A021691591A020159485
2048A018531819A016977721A015505439A014426524A014127473A014289271A013956577
2041A012672601A011039633A009892779A009327075A008761568A007665047A006013294
2034A004200726A002646759A001452452A000428779I99448435I98642588I98185207
2027I98032835I98010123I97998210I97860302I97381388I96556428I95821400I95723876
2019I96364915I97303435I97992778I98218195I98114453I97868026I97551564I97218740
2011I96974341I96902933I97043328I97398471I97838376I98119297I98160139I98146721
2003I98244769I98481771I98966511I99831135A000865083A001607835A001901520
1996A002038380A002356740A002999415A003994093A005246849A006489917A007484268
1989A008228001A008823420A009272553A009561525A009804746A010154391A010652417
1982A011200710A011613714A011815307A012051132A012637911A013470398A014131531
1975A014505132A014852225A015244480A015408504A015248669A015097933A015256785
1968A015601064A015837216A015888727A015826154A015652052A015393057A015261956
1961A015495359A016054779A016599473A016841515A016894858A017104371A017521825
1954A017841101A017888882A017831742A017865319A018006499A018179489A018269552
1947A018165941A017861850A017404731A016779073A015975386A015064029A014084667
1940A012992793A011768640A010492190A009308749A008331089A007546316A006875889
1933A006312149A005847307A005323755A004552204A003499012A002185059A000572185
1926I98743711I97048891I95905899I95521105I95811517I96519121I97420987I98454871
1918I99605913A000704267A001474313A001847063A002052649A002266481A002353794
1911A002142122A001693971A001059477A000063883I98625046I97024085I95657704
1904I94744122I94323984I94303890I94468044I94620941I94694313I94693134I94722588
1896I95066867I95993736I97392254I98783703I99768431A000343953A000746549
1889A001124143A001489236A001922006A002597866A003529644A004437139A005043292
1882A005436005A005981223A006894674A008060313A009234984A010242817A011003700
1875A011558014A012060360A012654208A013384852A014242603A015154745A015925445
1868A016350296A016405996A016186338A015690668A014819695A013470332A011461145
1861A008601668A005184931A002258103A001000111A001768586A003926023A006512695
1854A008869957A010704190A011890512A012465641A012747936A013190917A014010771
1847A015101140A016237587A017157256A017598405A017572027A017457420A017540021
1840A017586623A017119818A015983240A014471359A013024210A011952626A011362705
1833A011173875A011207583A011341171A011555396A011820609A012075022A012352801
1826A012701989A012880346A012388276A010944989A008716209A005992546A002876169
1819I99397775I95801175I92632044I90558059I90013627I90933362I92885475I95437783
1811I98265452A001017522A003358683A005175244A006597717A007808387A008863281
1804A009654009A010032912A009983954A009613494A009057216A008566651A008538899
1797A009181509A010231494A011229444A012001322A012755463A013791179A015163385
1790A016580295A017642716A018224128A018554269A018949862A019549143A020274681
1783A020945043A021430960A021751741A022052756A022518645A023279004A024291877
1776A025294474A025979039A026265131A026317885A026293537A026144306A025702503
1769A024895412A023862838A022887076A022219070A021952680A021997384A022081882
1762A021850836A021126018A020092855A019125405A018428273A017915521A017400084
1755A016831763A016346892A016084625A015973095A015756841A015201478A014160133
1748A012502425A010191895A007522492A005175309A003957767A004419074A006566758
1741A009842904A013432959A016732406A019577025A022064341A024290110A026325674
1734A028214887A029832866A030956223A031609567A032085732A032531069A032821088
1727A032916976A033001082A033175185A033331550A033385286A033409176A033521362
1720A033778720A034162793A034603811A035059947A035546781A036024778A036362839
1713A036523459A036668959A036957473A037334870A037613173A037674895A037553415
1706A037383894A037303911A037355880A037495686A037704217A038027748A038481266
1699A038986819A039443938A039790703A039950865A039849283A039574515A039393605
1692A039498917A039832527A040225568A040598842A040987890A041449132A041954620
1685A042380910A042644093A042783441A042848174A042810342A042638203A042375150
1678A042169107A042258122A042758635A043431811A043868508A043912427A043722615
1671A043520761A043473308A043665148A043983901A044148382A044003013A043705532
1664A043524164A043523051A043550672A043481358A043344891A043222168A043147421
1657A043146832A043247367A043386911A043431026A043372184A043393783A043591776
1650A043778512A043769937A043712536A043849985A044113234A044251535A044260633
1643A044370331A044644183A044843288A044731365A044370920A044053411A044035281
1636A044369938A044878305A045249092A045276255A045009144A044609035A044180977
1629A043851294A043802074A044063556A044416998A044647455A044787000A045000177
1622A045269055A045357023A045150259A044859848A044718798A044677760A044593719
1615A044518711A044553073A044593588A044467069A044201595A043977814A043896456
1608A043943320A044102369A044345590A044566556A044663164A044646866A044595290
1601A044592017A044747794A045121984A045621254A046108742A046574042A047034433
1594A047332633A047232360A046740945A046172231A045820425A045728988A045887644
1587A046372580A047070039A047575919A047685093A047667552A047778036A047844142
1580A047618921A047209910A046919760A046919171A047210172A047699362A048261466
1573A048850994A049457147A049869169A049763071A049185259A048653590A048579564
1566A048854463A049183557A049520898A049886579A050022589A049668361A049084855
1559A048822064A048961805A049080993A049004938A049026995A049263474A049343784
1552A048981375A048468884A048349303A048762895A049308178A049493408A049183557
1545A048606988A048107195A047945397A048175723A048644100A049163725A049630988
1538A049943981A050041439A050113960A050510077A051281170A052006184A052191741
1531A051765647A051124870A050749043A050751792A050836357A050731502A050535407
1524A050468253A050490638A050449207A050413142A050516295A050615259A050440894
1517A049963355A049387702A048935493A048793985A049093822A049772038A050562308
1510A051223572A051692079A051956244A051941059A051683963A051490552A051645870
1503A052036096A052286320A052181793A051751051A051132986A050613361A050539400
1496A050916077A051304667A051351269A051187573A051140382A051300806A051532506
1489A051716558A051877112A052138071A052554805A052995822A053285972A053365954
1482A053201669A052757445A052223355A051985174A052205486A052698014A053290815
1475A053971715A054593773A054781686A054347803A053645959A053300698A053585219
1468A054236862A054885362A055407344A055794232A055986334A055971150A055782843
1461A055341237A054581599A053758799A053293630A053273012A053378063A053354762
1454A053318960A053500001A053843690A054036709A053921578A053717106A053695179
1447A053800426A053791983A053612709A053389124A053183146A052933839A052596040
1440A052298690A052360608A052958580A053749439A054134560A053964122A053669718
1433A053699433A054116168A054682657A055103515A055242993A055199795A055101944
1426A054894264A054488526A054041618A053850890A053980027A054204659A054358276
1419A054496773A054646331A054683442A054606667A054635989A054873057A055170472
1412A055436536A055739972A056100614A056512636A057028923A057540236A057711852
1405A057358802A056703298A056172611A055987054A055919704A055610442A055124787
1398A054836339A054807867A054795300A054750989A054899762A055347390A055782385
1391A055901116A056004334A056528737A057308208A057792031A057702165A057209964
1384A056655584A056239765A055910148A055523129A055058025A054613605A054330066
1377A054345578A054618972A054876265A054991068A055177018A055545056A055828725
1370A055798356A055605402A055488308A055457939A055457088A055511413A055564364
1363A055435685A055090752A054769839A054757927A055133099A055725049A056215155
1356A056374466A056306461A056347304A056667234A057125661A057508819A057761923
1349A057972875A058190373A058291497A058144622A057918746A058011819A058625957
1342A059578222A060406193A060540828A059697214A058324681A057378896A057443759
1335A058259360A059205668A059981277A060592470A060887594A060583634A059836758
1328A059274720A059238263A059435667A059550667A059808221A060680699A062128895
1321A063386691A063709829A063153485A062305093A061590485A061271078A061596180
1314A062374930A062799912A062164960A060631872A059252401A059148462A060309193
1307A061464490A061657181A061318204A061199016A061199016A060950559A060640577
1300A060601109A060707011A060621203A060399975A060640512A061844702A063607461
1293A064814139A064752155A063720563A062692308A062665473A063861940A065203187
1286A065209405A063698047A061935222A061102604A061317680A062066716A062906730
1279A063818283A065253585A067540159A070018115A071392612A071224727A070403497
1272A069730190A068710314A066475709A063326606A060577939A059145386A058849280
1265A059082225A059762339A061377504A063945653A066171291A066812723A066605763
1258A066967583A067861398A068408186A068645647A069386501A070651430A071415389
1251A070959710A069561193A067749082A065772621A064014836A063038878A062821053
1244A062644790A062093878A061477057A061075245A060691041A060126843A059643216
1237A059678298A060277252A061005212A061426200A061476140A061324618A061103783
1230A060787517A060160616A059102777A057989893A057367900A057191768A057010269
1223A056860580A057252704A058298762A059460408A060191051A060505026A060812127
1216A061241167A061394456A061049850A060740326A061130225A062047080A062631830
1209A062386908A061679108A061226506A061391707A061979206A062441168A062273676
1202A061514561A060821683A060777372A061283514A061905506A062409882A062662593
1195A062481618A061979337A061648345A061797707A062237023A062655851A063023955
1188A063414508A063565834A062997839A061632571A060033639A059042954A059328194
1181A061081398A063767165A066216911A067312778A066669971A064842349A063209315
1174A063341594A065622997A068603299A070436289A070527988A069253109A067034344
1167A064545326A063118991A064039053A067319912A071338352A073741823A073163945
1160A070539573A068245341A067714720A068507412A069437161A069690592A068797954
1153A066537889A063384793A060508233A059083534A059672800A061818325A064120410
1146A065287424A065325844A065362497A066230394A067473659A068080270A067881296
1139A067631923A067789466A067819574A067032707A065657949A064684805A064774933
1132A065532150A066058451A066107344A066112253A066398344A067160339A068594136
1125A069959077A069598631A067119039A064105684A062147026A061520648A062018608
1118A063498680A065201289A065882974A065109721A063719385A062869618A063022515
1111A063797666A064508084A064762235A064690172A064664449A064830109A064997339
1104A064829389A064132126A063199563A062726343A063026965A063538933A063547900
1097A063158590A063086658A063701058A064651883A065379057A065644597A065551458
1090A065421404A065554076A065943975A066321962A066461179A066422758A066444096
1083A066622845A066854481A066989574A066929817A066669448A066317511A065994962
1076A065727263A065517227A065444705A065559509A065784926A066035150A066336230
1069A066708915A067033100A067175786A067208185A067395378A067866242A068346334
1062A068386325A067897659A067269252A066891527A066802250A066828824A066840998
1055A066822540A066806112A066800025A066801268A066865608A067083695A067390273
1048A067514698A067342558A067229850A067640170A068459762A069022521A068924342
1041A068464802A068115679A067868205A067397146A066703810A066069971A065736230
1034A065873941A066506275A067398913A068191736A068660570A068830418A068871784
1027A068900060A068952421A069001183A068921266A068724908A068681973A068920088
1020A069078155A068738131A068055202A067527265A067361409A067343344A067275993
1013A067254525A067370310A067486291A067430264A067202883A066926282A066711664
1006A066626184A066685614A066866590A067129577A067353554A067336079A067040365
999A066643398A066399130A066498159A066880662A067310290A067645079A067840257
992A067839603A067681666A067536821A067491528A067342820A066850881A066141575
985A065526063A065208292A065101932A064830829A064016734A062703762A061276969
978A059915236A058607500A057311088A055821198A053758471A050755065A046765097
971A042099269A036963560A031472183A025925761A020420770A014416444A007631273
964A000710420I93137989I81362609I61663844I37387088I13139524H87800543
957H62103146H39921058H23943056H15203219H13499694H16871793H23526125
950H33271635H45541310H57625363H67903719H77020888H86034576H95552182
943I05820982I17129622I28873193I39154822I47759368I57059476I68137070
936I78221295I86422198I94343096A001265586A006189361A009898539A013160285
929A015892523A017938233A019432900A020349951A020754707A021235192A022141902
922A023441063A024884416A026097049A026842092A027219555A027474361A027914985
915A028822939A030072553A031387030A032639065A033640485A034201934A034419170
908A034485669A034517217A034596283A034590458A034007410A033053771A032414892
901A032000055A031648250A031354173A031007734A030349546A029067206A026845103
894A023064320A015131575I97741507I72170236I49648713I34678216I26677401
887I26101225I31738822I38202361I39102853I30130137I12583310H93402207
880H78381443H72397211H80262475H97504884I14639558I28825347I40177251
873I48039831I51864336I51902102I48310345I40750416I29021049I13944062
866H97727225H83505240H74466811H72661377H77791522H87418957H98529996
859I08444962I14979451I16856098I13908391I06693788H96475909H85549445
852H76447919H71177640H71917185H79065485H89026660I00250212I14836700
845I33234144I50558630I63226582I72665775I80215755I85764534I89047290
838I89004746I84288717I77632749I70443868I61873357I51890648I40432646
831I27673388I15293949I04763732H95807576H88086046H82479211H80688438
824H84259185H90611782H96589338I03036383I11829432I22568965I32351259
817I40285836I47820566I55932585I63946229I70938818I77432661I83968590
810I89504474I93370345I95932865I97083581I96748727I95780034I95333585
803I96186689I98879394A003899842A009511912A013214087A015501708A017231676
796A018666847A019875357A020994459A022160621A023314675A024373954A025372690
789A026293668A026890331A026963964A026591476A025735557A024101084A021461722
782A017972922A013866384A008899018A002163001I91605687I74864381I55180801
775I40774961I33849591I31316590I29390920I24583781I16110400I06396831
768H97343086H89991360H87725928H94439494I06123372I18049161I29190243
761I38396885I43760892I44261732I41205833I37255398I34569958I34722397
754I38857865I47727297I61933049I79423522I94040772A003027429A008521489
747A012317064A014680282A015535677A014993537A013087633A009987095A005936191
740A000034756I89989410I75443764I59828694I45313484I31967709I20338680
733I11288731I04808370H99908813H95646433H92728114H93620883I00027282
726I11943580I28243346I45940844I61720460I74671428I84865482I91954482
719I96266998I98408138I98005999I93936768I85460050I71909736I51746849
712I23368333H87223254H46768670H06349889G69154302G38671038G19030721
705G11254015G13341483G23090134G37786058G54417012G71510779G88435155
698H03733436H16560633H27985844H39458376H51448505H63063985H72294059
691H77015914H76305298H71449201H65760617H62721801H63964215H68986757
684H76316687H84213237H90767755H94835938H96793221H97750591H98660508
677I00081280I02274191I05424865I09697522I15048045I21090726I27189238
670I32715173I37330864I41128141I44572303I48263482I52562253I57265912
663I61624573I64755742I65954107I64634328I60272461I52565853I41757333
656I29025304I16635327I07447405I03739470I05948418I12423214I20613841
649I28580883I35631266I42037011I48303538I54520191I60341709I65472706
642I69961813I74002048I77485874I79677214I79287512I75141898I67463305
635I59079986I54714650I57628387I66776056I77948032I87360717I93703169
628I97508497I99709655A000818351A000655702I98452645I93295140I84602168
621I72484407I58237616I44734690I35638008I33188785I36457339I42026146
614I46505827I48453882I48293590I46902141I44183517I38562414I27741720
607I10168385H86174971H58335454H31183054H10209607G99947548H01846513
600H13571953H30471523H47887053H62619499H73315506H80341934H85279127
593H89950911H95426448I01702466I08089557I13632706I17297966I18254026
586I16226054I11470884I04375928H95127920H83668347H69918404H54217789
579H37615176H21511767H06914414G94187293G83496195G75142723G69234023
572G65087100G61122593G55531925G47250844G36479370G24461686G12817799
565G02799812F94887946F89135939F85936830F86144313F90189589F97267266
558G05675848G13935658G21505012G28607692G35482205G41602447G45503989
551G45576248G41294625G33784767G25168701G17409012G11910959G09989805
544G12951780G21215386G33691890G48476698G64040846G79640338G94963949
537H09771142H23837677H36973089H48687141H57426257H60196326H53846020
530H38020783H17347369G99870314G92217181G95937879H08251210H25247780
523H43808789H61607738H76875715H88522088H95887363H98022087H93345656
516H80136480H57558471H26990119G93215131G63930363G46511823G44029350
509G54112070G71449777G91142390H10273815H27618133H42804621H55812794
502H66795744H76058086H84103539H91502914H98541581I05101270I10966313
495I16075644I20474886I24258221I27585682I30552173I33048783I34914499
488I36199457I37120370I37775481I38059282I37771554I36551067I33777332
481I28701250I20245607I06470596H85617973H59532641H35751882H23908759
474H28655551H46463597H69386932H90882558I07890320I19330846I24228375
467I20873817I08090604H89078040H73201227H70288079H82032565I01207385
460I19405266I33200109I43250953I50821944I56435324I60198434I62143609
453I62316403I60587024I56329880I48788932I38463908I28218474I22150790
446I22274495I26049714I27518921I21021739I04464681H80808281H57593029
439H43705964H44217211H57315250H76289721H94523993I09108844I20817725
432I31464512I41537938I50168469I56562432I60647240I62445147I61384756
425I56353836I46523041I32534918I16979802I03309646H93975241H89557216
418H89593934H93907760I02658985I15089868I28924965I41580220I51774208
411I59733265I66166827I71434095I75595679I78868487I81674424I84273466
404I86641070I88728996I90588232I92192466I93294289I93471534I92236778
397I89104561I83727071I76451990I69034484I64260989I64111103I68246637
390I74533127I80829632I86083548I90112329I92978221I94817952I95955904
383I96744866I97231896I97061654I95562536I91792881I84566823I72625064
376I55587455I35983465I20181333I15224308I23313876I39991040I58136362
369I72984593I83437641I90338074I94720232I97246950I98302629I98028187
362I96023320I91099283I81894736I68613300I54529355I44828418I42543807
355I45810594I50550972I55587194I63139465I74360726I86753321I96592362
348A001981699A002615538I97545281I84263256I61187156I32235605I07790833
341H98219949I05779813I24154807I45006971I63051235I76103588I83119282
334I82513456I71809398I50211667I21691381H92894559H67344168H44671908
327H26170788H17137202H21561118H37180900H57745664H78286472H96910446
320I13316114I27347305I38695347I47247074I53505747I58532937I63399114
313I68691319I74369169I79967364I85049206I89456171I93107489I95738145
306I96889449I96139629I93152389I86578432I73061827I50551233I24840157
299I09184049I12964242I32356168I55190422I72701381I83645452I90044193
292I93298544I93659578I90547586I82807140I69010268I47721275I19328752
285H89321522H67249459H57945359H53390931H37272599H00893136G54293504
278G19813661G14106096G36680766G74411294H13749394H47612939H74368174
271H94794310I10451269I22729192I32334699I39510751I44237711I46044062
264I44112501I37753686I26556511I10495908H91232333H73784799H65083317
257H68808138H81844586H96406072I04630210I01659399H88354793H72776442
250H65406848H70371465H82853140H95274402I03334714I06008372I02882832
243H93646016H79969118H66650440H59225539H59563011H64750820H70576527
236H74873924H77522514H78870633H79101549H78538398H77847484H77760694
229H78536434H79681521H80309928H79628636H76680144H70018677H59217619
222H47395048H40393034H41767858H49532063H58680715H65945389H71248132
215H75682259H79533206H82106984H82794953H81636317H78502334H73470890
208H70071170H72632054H80427415H90361165H98857716I02624033H99962026
201H89679938H69835084H40954090H11043337G93507572G96558366H16120401
194H40865795H62313772H78439369H90370132H99092755I04927690I08474939
187I11324337I15248002I20570643I25994865I30173205I32664971I33263205
180I31462679I27602568I24229291I24741848I30070248I37755977I44566347
173I49162010I52150755I54528831I56689540I58487971I59500582I58903331
166I55230741I46483115I30312945I04498258H69440407H32190233H05788439
159H00050308H13269891H35593422H58435923H78605028H95657822I08934872
152I18033780I24055319I29038067I34344476I39810522I44398462I47518046
145I49655061I51684408I53681552I54811977I54621249I53783985I53197991
138I53023561I53150407I53927390I55744017I58418853I61427627I64391959
131I67249799I70220480I73519272I76921545I79878676I82104707I83667968
124I84652042I85244058I85811659I86303075I86178126I85580155I85651760
117I86908966I88276787I88556922I87862016I86850255I85541211I83607817
110I81021341I77790816I73608745I68331856I62464063I56714346I51574644
103I47870114I47298650I51076029I58121111I65701920I71338077I73723090
96I72765917I69760940I67163337I66935629I69082526I72225085I75315216
89I78072129I80016584I80334748I78694384I75598624I72235819I69890666
82I68358887I64982730I56096346I39696504I16859959H91415012H69808837
75H60304453H67940896H89150168I14748928I37293164I53782806I64522143
68I71531292I77062201I82318016I87134973I90850696I93135437I94155903
61I94468895I94763234I95306880I95688728I95214069I93466560I90917719
54I88521905I86166345I82260941I75747462I68496141I64574505I66105367
47I70882660I74401110I72428969I63034021I48048536I32673153I23661624
40I25510061I36733024I51405058I63854858I71814765I76878935I82236724
33I89250258I94560594I95124857I92940127I90652441I89493478I89028964
26I86960935I80655202I69907684I57794897I48060187I42347778I40209454
19I40039867I38880839I33350518I22080167I05166984H84534869H65525054
12H54663453H55205594H66426790H85568949I07366113I26038653I40243096
5I51575364I62008777I73773881I86226430I93425979
##END=


$$ === CHEMSPECTRA PEAK TABLE AUTO ===
##TITLE=J. Beck JB244
##JCAMP-DX=5.00
##DATA TYPE=INFRAREDPEAKTABLE
##DATA CLASS=PEAKTABLE
##$CSTHRESHOLD=0.93
##MAXX=3997.453
##MAXY=0.9778123541436465
##MINX=373.96442
##MINY=0.6246543556086576
##NPOINTS=56
##PEAKTABLE= (XY..XY)
3233.942310156372, 0.9067646303915987
3219.77699123534, 0.9078383489300258
3211.277799882721, 0.9089710153180571
3096.538716622361, 0.9065799752122856
3066.791546888194, 0.9054715077584208
3061.125419319781, 0.9058259762012285
2943.553272275215, 0.9015645423463775
1722.5027812822514, 0.7408205900584317
1629.01167640344, 0.8433621561489321
1617.6794212666146, 0.79445612750083
1595.014910992963, 0.7946966925722575
1578.0165282877247, 0.7933455145350208
1541.1866990930412, 0.8020066056678794
1511.439529358874, 0.9064092084891112
1457.6113174589523, 0.8084153573032922
1443.4459985379199, 0.8510742817027338
1405.1996374511336, 0.812970641603254
1371.2028720406565, 0.6477096708947608
1345.705297982799, 0.7856451310147547
1297.54321365129, 0.8229982289636785
1270.6291077013288, 0.8694192211342481
1246.5480655355746, 0.8498165044664552
1225.3000871540262, 0.7284792101288186
1168.638811469898, 0.6246543556086576
1144.5577693041437, 0.6465584070343496
1119.0601952462857, 0.7214394840114683
1094.9791530805314, 0.677556815513432
1045.4005368569192, 0.7502996958677285
1028.4021541516809, 0.7925354280533989
1005.7376438780293, 0.8397646580683888
994.4053887412038, 0.7683281932326061
966.0747508991399, 0.8100830356893235
927.8283898123532, 0.8779761829957682
900.914283862392, 0.8334569968361658
876.8332416966377, 0.8583357368265471
855.5852633150898, 0.8179718290348053
834.3372849335415, 0.7441331184377015
796.0909238467552, 0.8279563823067573
764.9272222204845, 0.6503069433275571
738.0131162705234, 0.7877956661525742
726.6808611336978, 0.7880902924789146
712.5155422126659, 0.7824612295370501
698.3502232916339, 0.7993404300643517
685.6014362627047, 0.7653112446393565
667.1865216653632, 0.7923378979811024
651.6046708522281, 0.7226145898278279
624.6905649022669, 0.8416574631285676
597.7764589523063, 0.7285727894188858
568.0292892181387, 0.8678792161901019
541.115183268178, 0.8975271624097017
517.0341411024233, 0.862665776066728
504.28535407349455, 0.8805483622275349
478.78778001563705, 0.7834437519792802
441.95795082095356, 0.8783981840679336
430.625695684128, 0.8411405122249613
389.5462708131349, 0.7783067261397602
##END=

##END=

