##TITLE=X9501
##JCAMP-DX=5.0
##DATA TYPE=LINK
##BLOCKS=1


$$ === CHEMSPECTRA SPECTRUM ORIG ===
##TITLE=X9501
##JCAMP-DX=5.00
##DATA TYPE=INFRARED SPECTRUM
##DATA CLASS=XYDATA
##ORIGIN=Default
##OWNER=
##XUNITS=1/CM
##YUNITS=TRANSMITTANCE
##XFACTOR=1
##YFACTOR=1.0108064e-009
##FIRSTX=3996.5625
##LASTX=399.65625
##MAXX=3996.5625
##MAXY=1.0853451066360673
##MINX=399.65625
##MINY=0.5994769694566496
##NPOINTS=1765
##XYDATA= (X++(Y..Y))
1765I44558365I44285699I44452282I44874194I45178171I45227055I45294514I45724563
1757I46116402I45973760I45384380I44996846I45268155I45201522I44105554I43129820
1749I43331724I44131912I44904150I45693900I46211280I46565910I46697585I46261697
1741I45887726I45968747I45968452I45285787I44660791I45162191I45718784I45246279
1733I44762038I45206004I45867146I45815432I45198869I45121916I45592594I45731934
1725I45942094I46346375I46228558I46167350I46697172I46824247I46203143I45853171
1717I45729222I45432969I45074094I44942184I45246102I45857653I46344606I46221777
1709I46328861I46810153I46828610I46501636I45998231I46254444I47157530I46868059
1701I45878055I45446001I45628387I46083262I46856502I47933954I48100302I46412418
1693I45815786I46815225I47779401I47843027I47744079I47929296I47600906I46789220
1685I46277383I46559011I47501016I48176252I48197067I48056725I47853641I47953826
1677I48473270I48439069I48531235I49144732I49180585I48117874I47037886I46793584
1669I46864757I47429724I47843498I47694959I47907065I48303208I48233627I47651795
1661I46927911I46745466I47404427I48124124I48219475I48275848I48486184I48554115
1653I48571274I48721818I48877551I48718044I47967979I47130523I47302944I48571038
1645I49928468I50111975I49989323I50348847I50092516I49370813I49441339I49876990
1637I49977175I49625258I48620689I47527315I46810389I46524869I47023144I47921748
1629I48362412I48196300I47878938I47454726I47007164I47737121I49486743I50730071
1621I50521032I49336494I48976204I49416631I49668776I49443933I48445910I47199810
1613I47046318I47913964I49173744I50302735I50802778I50222362I49007161I48922248
1605I49010935I48392308I48537604I49060940I48913875I48592385I48799360I48862219
1597I48746231I49147740I48720344I46743048I45694313I46453636I48080429I48947368
1589I48232447I46981218I46458413I47114248I48367011I48145588I46610136I45934310
1581I46017042I45792022I45662235I46613792I47863076I47899341I46675649I46130790
1573I46575109I46463838I46217531I46665506I46734911I46158740I45943981I45953357
1565I45931126I46090515I46297903I46297962I45843501I45306425I45036826I44671346
1557I44446444I44562021I44236049I43609579I43891502I44827492I45653743I46136569
1549I46640032I46824541I45688829I44234516I43805822I43904416I44021584I44147598
1541I44077544I43743081I43528263I44047766I45208009I45723915I44914233I43629510
1533I42869656I43032642I43618837I44177022I44580006I44441432I43865615I43481561
1525I43668251I44417079I45378012I45548604I44773950I44262230I44025948I43527909
1517I43418524I43406318I42727780I42198842I42323912I42434712I42171717I42114165
1509I42592155I43198812I43770914I44269601I44659494I44762923I44420794I44063097
1501I44081023I44596045I44975795I44133386I42664744I41872517I42039277I43020259
1493I43904180I43786776I43245632I43170684I43365513I43391458I43573727I43844741
1485I43598611I43217681I43302418I43656753I44002774I44011383I43837370I44021171
1477I44100836I43903296I44029368I44082910I43652035I43323056I43221337I42936348
1469I42837047I43464578I44053073I43909251I43663534I43835247I44394022I44726540
1461I44145829I43463458I43367930I43378427I43434328I43529324I43815080I44426513
1453I44715631I44692751I44752367I44790637I45043372I45523661I45615179I45383614
1445I45332607I45360793I45171685I45044374I45575258I46367308I46308341I45591828
1437I45490168I45996698I46045051I45481794I45054634I45276529I45875933I46307456
1429I46223840I45463102I44672290I44708142I45072561I45296696I45773388I45963617
1421I45468114I45300234I45430788I45264853I45707404I46693870I47037237I46782734
1413I46537960I46595984I46750714I46405578I45626736I45335024I46115104I47189904
1405I47197864I46506235I46389126I46681192I46628829I46429342I46730194I47210719
1397I47515699I48160389I48776658I48232742I47093905I46809210I47158415I47092371
1389I46591030I46715216I47553438I48115810I48159741I47571482I46758262I46590087
1381I47026800I47413567I47321814I47295573I47681633I48000588I48075358I47989738
1373I47902348I48144999I48539137I48641563I48887811I49440572I49366096I48703125
1365I48733965I49507854I49898749I49397113I48657072I48510184I48418195I48163986
1357I48413949I48790928I48795115I48533653I48178492I48333518I49013412I49103455
1349I48940056I49134472I48950140I48692747I48837866I48874897I48875487I49377182
1341I49883004I49759704I49740775I50270538I50705069I50719044I50272956I49498596
1333I48917000I48504169I47878879I47129757I46734557I46983459I47812482I48748118
1325I49059642I49070964I49428248I49991505I50297133I50026472I49648137I49288318
1317I48694752I48356869I48331100I48257332I48284044I48493319I48352918I47150513
1309I44909162I42369730I39898288I37323004I34315194I30053972I24965025I21704422
1301I22114009I25219764I27962280I27409225I22165665I13053902I04074697I00400143
1293I04315756I13231453I22615940I30040410I35085308I38075015I39987446I41534928
1285I42493738I43086715I44065102I45361383I46234513I46244243I45760769I45336735
1277I45273757I45416164I45477254I45406729I45278770I45382906I45680633I45865318
1269I45790489I45993396I46842821I47411621I47349351I47340153I47582803I47791489
1261I47583629I46956628I46654774I47130995I47942917I48408819I48593800I48997962
1253I49281655I49228466I49338499I49668304I49916439I50256209I50811741I51178696
1245I51303765I51467341I51711938I51806757I51482260I51011700I50792872I50979857
1237I51619005I52044809I51726385I50980034I50455696I50754838I51351293I51324227
1229I50701708I49851339I49063121I48711499I48994189I49605445I50353682I51327588
1221I52045222I52226429I52356452I52323194I51985724I51873980I51973281I52070401
1213I52325435I52627643I52921536I53437855I53953054I54165572I54104069I53924042
1205I53991559I54352617I54630058I54785025I55145139I55625900I55768542I55654617
1197I55690646I55626903I55289963I55246976I55625546I55930821I55879814I55660514
1189I55596416I55692769I55720425I55659983I55706391I55682155I55574893I55825092
1181I56299308I56596150I56781249I57008450I57161766I57046425I56599039I55976697
1173I55677968I55873210I56026643I56053060I56164568I56117983I55994505I56073581
1165I56456574I57084931I57617820I57827449I57699902I57414854I57296565I57319385
1157I57103034I56781779I56784374I57072843I57420102I57795017I58195523I58358568
1149I58417830I58459167I58143809I57830515I57937659I58044272I57932352I58193224
1141I58780952I58996006I58881078I58851064I58885147I58958856I59207227I59442271
1133I59745010I59946738I59576835I59244200I59507430I59813176I59688460I59526418
1125I59740470I60062727I60145930I60066559I59918728I59724548I59575125I59634328
1117I60053881I60442300I60334448I59872557I59422753I58917284I58234147I57943614
1109I58332328I58847408I59206107I59397692I59268318I59286656I59924330I60620146
1101I60754296I60419420I60126117I60328375I60730356I60875592I61034510I61328226
1093I61730679I62137672I62090557I61776791I61965428I62496784I62358151I61746895
1085I61706266I62231666I62516066I62445128I62556164I62596262I62064258I61799848
1077I62614542I63047009I62382859I62275774I62993112I63578954I63819364I63393147
1069I62491594I61971915I61620764I61186233I60963395I61055502I61684979I62462582
1061I62529393I62100228I62148640I62703936I63227508I63686982I64123164I64164382
1053I63622236I63078910I63083215I63401992I63373629I62744506I62037133I61760398
1045I61448166I60948889I61007797I61559732I61877036I61928868I62373070I63307350
1037I64145689I64081061I63174319I62727877I62965751I63098900I62579397I61565983
1029I61418328I62627220I63760927I63907520I63547642I63458070I64236735I65010034
1021I64423603I63615101I63911707I64408566I64378965I64258612I64702165I65713692
1013I66279484I66014662I65547817I64995528I64266042I63820012I63922911I64438875
1005I65138760I65588917I65942309I66145687I65450049I65135693I66495659I67608256
997I67321792I67018700I66899763I66481802I66574911I67244663I67621583I67647116
989I67586615I67585023I67856155I67848666I67266068I67168359I67687037I67936292
981I68105587I68542359I68642545I68233252I67947967I68018964I68066787I68053696
973I68270755I68201763I67543687I66979958I66340869I65550942I65740227I66943870
965I68027456I67465555I65487552I64378198I64482747I65118888I66243750I67761630
957I69093527I69526702I68837727I67556306I66279543I65927921I66664895I66994111
949I66785779I66815439I67275503I67817885I67718938I66874584I66037423I66148164
941I66293813I65122308I63971323I64412694I65510903I66001689I66149874I66595255
933I67378873I68310322I68850523I68399776I67868479I68391343I69033676I68558575
925I67621229I67502469I67831861I67805915I67820008I68300062I69552943I71094233
917I71357699I70454672I70077045I70312679I70002215I69121006I68458625I67855271
909I67481299I68209842I68597847I68468119I70106824I71883630I71652360I71787100
901I73775305I74941562I73737801I72500429I72593539I72949879I72615239I70453611
893I66839498I64882841I65893366I67373271I67839644I69889706I73680839I75630360
885I75895537I75577585I74211958I73968010I75642567I76619775I76345164I74802576
877I71108031I68067730I69214588I72748977I74362266I73684907I72592123I73414778
869I78145498I81669803I80411203I78795142I76215317I71149368I68451431I68699625
861I68641188I68590712I70951119I74751746I77496797I78467047I76929825I74674440
853I75054544I77636609I79144229I77983101I75528583I73914173I74319574I76111004
845I76751744I75518028I75316831I76928705I78488629I78890315I77533416I75886043
837I75561546I76109176I77182383I78589994I79087502I78482084I78319216I78393456
829I77809501I77558831I78360493I79101242I78882885I78075680I77747468I78217674
821I78256828I77011200I75151663I74373470I75185628I76171033I76715007I77923544
813I79627231I80331656I79943886I79034785I78872625I79850128I79993419I79338055
805I80576842I83170170I83153836I79534298I75922957I77546802I82518757I82447230
797I77499746I74551846I76404072I79705422I79465837I77606418I78475892I79946657
789I79303028I78408433I77566791I75557477I73459475I74511041I79366890I82677851
781I81264815I78752272I77028773I75263760I75101423I77265763I78703624I77739743
773I77931859I82058576I86047250I85017914I81265464I79296188I78344926I77223011
765I76571304I76758820I77523804I76564640I74243211I75158621I79225191
758I80719897I78929175I78030216I78985783I81133082I83563424I84623540
751I83933562I83243172I83303142I83238749I82978880I82890370I83379505
744I84528013I85682477I85983506I85347601I84650017I84383307I84756512
737I85474086I85520022I84716886I84124145I84190484I84038524I83046928
730I81926253I81461943I81843050I82666353I82850744I82841014I83943056
723I85360515I85612070I84399405I83069749I82870262I83569439I84479778
716I85204428I85566547I85332270I84164243I82936247I83257265I84398462
709I84447051I84096607I84750438I86203100I87170874I86954522I86442331
702I86721011I87261507I87010659I86468631I86251572I86549711I87239158
695I87637424I87930905I88510378I89105418I89533639I89765617I89421129
688I88725609I88399224I88410546I88869548I89511230I89695092I89762079
681I89854304I90028140I90505658I90859579I90833162I90687395I90168953
674I89090617I88528598I88711456I88811288I88626661I88214184I87885146
667I87921293I88188003I88330822I88064230I87585238I87430979I87751054
660I88344443I88891602I89222055I89730000I90307526I90070477I89806539
653I90385247I91156894I91644791I91759659I91672033I91679228I91944699
646I92274916I92619167I93257785I93862555I93866919I93593192I93734005
639I93586587I92863175I93110013I94109275I94787045I95152173I95558458
632I96106737I96729550I97239737I97386565I97161428I96939593I97043376
625I97172396I96843240I96095887I95321055I94366491I93612415I93803352
618I94615333I95330726I95909313I97019435I98360471I99421884I99651386
611I99275764I98767819I98486190I98865587A000026418A000780141A000473628
604I99849280I99984316A001052333A001994280A002153963A001738951A001430786
597A001895215A002811922A003584867A004192349A004791694A005096084A003800923
590I98872545I89077349I76107643I65241363I59184879I54903431I49397526
583I42498161I35269994I28951930I23283746I15822068I05230400I02250422
576I16223754I45196274I75009434I90961948I98648940A002901552A005142432
569A006496560A007424471A008926607A010345835A010709664A010167163A009844494
562A009553667A007771317A002416369I95549258I86953992I68894100I39102051
555I00578165H49959827G95758569G48743022G02020131F62892183F34057883
548F10248609E96287955E93068039E99086608F14496975F35484187F55513708
541F75368745F94457854G11513649G26501456G39978106G54353536G70558018
534G86270122H00626625H13938814H26240950H36837454H46138090H54421420
527H61567799H67743280H73116155H77879012H81634706H84576826H86742876
520H86198666H81785132H78611269H77203835H76403293H76908644H79098163
513H82228861H85819800H90063626H95059110I00636307I05668351I09944255
506I13672529I17193296I20724855I23675349I24547359I20274639I13527823
499I12917451I17556772I21828371I24471527I27433519I32166893I39883664
492I48800481I56710901I63507957I70077576I75973728I80205465I82627847
485I82197031I75970308I57008450I11694172H36438480G54092252F89335767
478F53562182F48139538F66341128F96819204G29589875G60234062G84675054
471H03355931H19703822H34870537H48732951H61236756H72331947H82463670
464H92010141I00691737I08522197I15811513I22558329I28628022I33690552
457I34587151I27350670I15163402H95082638H51480243G99889827G86933624
450H16429480H51649479H71472025H73954553H62248224H48394006H50022450
443H68963846H90373382I04824822I13524816I19263171I23049763I25511594
436I27374670I28898034I30007506I31055121I32657030I34770894I37001926
429I39165853I41009588I42559428I44478346I46768051I48514430I49554261
422I50454517I51451833I52621097I53687759I54603523I55725378I56669564
415I57094307I57205107I57058926I56350610I54569558I51267265I46401745
408I40264888I34221612I31815152I34787582I39787016I42987414I44491142
401I46420379I49205174I51681452I52444549I50541965I47778988I47485566
394I49779635I52391360I54262750I55527601I56871056I58489004I59697482
387I60500678I61312305I62154714I62887620I63308352I63625302I64416586
380I65490913I65932697I65359416I62500381I53022430I36992255I22975641
373I17898665I23491665I35044326I43778108I47918387I50277496I51566642
366I51907297I51948456I52206262I52779012I53391507I53747611I53824328
359I53795787I53905349I54000051I54062792I53987667I53376706I52441306
352I51972043I52114685I51889017I50903200I50163218I50342184I50665679
345I50665207I50827604I51073321I50717040I50041745I50079307I50943769
338I51655093I51783760I51775682I51383843I50589552I50155375I50162746
331I49941087I49083052I45722558I35218398I14051159H91021434H86312473
324I01050553I08597321H94216466H80997445H91295456I11349802I23610897
317I29250659I32732390I35253247I36711924I37710596I38749307I39419649
310I39858131I40438016I40573759I40052605I39767203I40081794I40490144
303I40513436I40213409I39831536I39626330I39732058I39763429I38245195
296I33452736I26041004I18059174I08681704H99373874H97219027I02414882
289I08025632I10779528I10289450I08459986I08317167I09139586I09137345
282I08406444I06617608I02988989H99410669H99306887I02659597I07179745
275I11869659I17000945I22631625I28052500I33223825I38409832I43229711
268I47423120I51171678I54472851I57231996I59478772I61387960I63697124
261I66729819I69629895I71484656I72907245I74905238I77203611I79417543
254I81590079I83536240I85041324I86501004I88299569I90139588I91415642
247I92199792I93095625I92941484I89794157I84589870I79144878I72912257
240I68278480I69922845I74555915I74517409I69962118I66915625I66650743
233I68009765I72509923I77228967I77455225I77611017I84124086I93461694
226I98500578I98717106I97735063I96408296I93063310I87856724I83236627
219I83165807I89330437I97899111A004717277A009022252A011966848A015053558
212A017689048A018985740A020361569A022613299A024655576A025593276A025911227
205A026261376A027084916A028444704A028950291A025326507A011042358I70743731
198I00316940H26018997G48457502F58295083F17725559F68471857G54619361
191H21782365H65843173H95876280I17396203I33633530I46453342I56697692
184I64924944I71684320I76987967I81039619I85158846I89490475I93180065
177I96662445I98228856I93080647I84457134I83714381I92313599A001625732
170A007187776A010135203A011110525A008430927A003409497A002441370A007242144
163A013346923A018228835A021245372A022674034A023398154A023967898A023863526
156A022009472A020388929A022032234A025765579A028956188A031434470A033734671
149A035941940A037265640A037855314A038291201A038713290A039770457A039689555
142A034641001A026582277A023987475A030127634A039839096A046568575A044351991
135A025440314I96433769I62669617I34828446I50914463I95404081A030880295
128A046880985A057216676A066202249A071581375A073741823A069148850A030412447
121I20109176G66089291F73076446F92134656G66959237H33900228H78141181
114I07290780I27125650I40452228I51350291I62379085I71514671I76273341
107I79084908I83727294I89298949I93408505I95137902I95386980I95726515
100I96949499I98603889A000561607A003623668A006616146A008949958A012035369
93A015210175A016476324A017663692A021277687A024505562A024217447A022212792
86A021715579A023315011A026037771A027634845A027338594A028114722A030821916
79A033441014A035680006A036940022A036350819A035372667A035857852A038706686
72A040590930A038142131A035810207A036628085A037766156A038604672A039419720
65A038608092A036710166A035962341A035839454A035518554A032239493A020896874
58A002833386I78568530I45280598I04874472H58274174H10610398G82963937
51G95744005H38876252H85402606I23398084I49872331I64311388I69832625
44I73691335I79576991I84308359I87991641I90555072I90354819I90850735
37I91686774I89122872I85980557I88119011I93062485I92015224I85463177
30I79945360I78480727I79070048I80876102I85168694I86068124I79070048
23I70031404I65605251I70017075I80420756I84784993I77807732I67362362
16I60325014I58064675I61415321I69776960I77790573I83640494I89022510
9I93660414I99069614A005494350A011612336A018079766A028227468A040640816
2A043653227A031615029
##END=


$$ === CHEMSPECTRA PEAK TABLE EDIT ===
##TITLE=X9501
##JCAMP-DX=5.00
##DATA TYPE=INFRAREDPEAKTABLE
##DATA CLASS=PEAKTABLE
##$CSTHRESHOLD=0.93
##MAXX=3996.5625
##MAXY=1.0853451066360673
##MINX=399.65625
##MINY=0.5994769694566496
##$CSSOLVENTNAME=- - -
##$CSSOLVENTVALUE=0
##$CSSOLVENTX=0
##NPOINTS=26
##PEAKTABLE= (XY..XY)
430.2421875, 0.9707026702312896
442.4765625, 0.9760399675844065
503.6484375, 0.7914249584887968
640.265625, 0.6803499793060545
666.7734375, 0.9449305761188544
685.125, 1.0376759357181728
750.375, 0.9943447920868385
793.1953125, 0.6244009484807777
846.2109375, 0.9938618752860129
872.71875, 0.978470465724496
964.4765625, 0.9090251569436768
978.75, 0.9181328056334689
990.984375, 0.9069147346933728
1052.15625, 0.890517855789648
1060.3125, 0.8958903201082272
1158.1875, 0.927817845133456
1225.4765625, 0.9418847192585729
1305.0, 0.8575620909864384
1317.234375, 0.7954375435143937
1370.25, 0.6551435931034433
1415.109375, 0.9227828021424864
1449.7734375, 0.8858740575454752
1510.9453125, 0.5994769694566496
1574.15625, 0.9120005009603008
3036.1640625, 0.9101302271053152
3052.4765625, 0.9316647286659009
##END=


$$ === CHEMSPECTRA PEAK TABLE AUTO ===
##TITLE=X9501
##JCAMP-DX=5.00
##DATA TYPE=INFRAREDPEAKTABLE
##DATA CLASS=PEAKTABLE
##$CSTHRESHOLD=0.93
##MAXX=3996.5625
##MAXY=1.0853451066360673
##MINX=399.65625
##MINY=0.5994769694566496
##NPOINTS=230
##PEAKTABLE= (XY..XY)
3994.5234375, 0.9544900279776737
3974.1328125, 0.9552088599166144
3965.9765625, 0.953321658086848
3947.625, 0.9561093671222465
3939.46875, 0.9548691733718624
3931.3125, 0.9549715144874432
3921.1171875, 0.9553352814730625
3908.8828125, 0.95639201285104
3892.5703125, 0.9551536072171777
3884.4140625, 0.9564470280109728
3874.21875, 0.9562210662834785
3864.0234375, 0.9556628686652064
3849.75, 0.9560366497098305
3841.59375, 0.9579857806153056
3833.4375, 0.9565032349116512
3821.203125, 0.9580965265861024
3815.0859375, 0.9586882809552416
3802.8515625, 0.9570250141861376
3794.6953125, 0.9579361298049376
3782.4609375, 0.9569763762037824
3757.9921875, 0.9573655942837472
3747.796875, 0.9602552876200673
3741.6796875, 0.9596300937536032
3725.3671875, 0.9567533953443617
3711.09375, 0.9572409022170496
3698.859375, 0.9592312204509056
3686.625, 0.9572804793308353
3672.3515625, 0.9591766813807873
3668.2734375, 0.9586410146371712
3660.1171875, 0.958843253749264
3654.0, 0.9589987622706785
3645.84375, 0.9559138640240032
3633.609375, 0.9566862211942433
3623.4140625, 0.956156454527584
3617.296875, 0.955881439376304
3607.1015625, 0.956355057769056
3600.984375, 0.9564427361269985
3592.828125, 0.9561662300362784
3588.75, 0.9561532361200065
3572.4375, 0.9546525100524417
3566.3203125, 0.9538066015545056
3547.96875, 0.9540049652348609
3535.734375, 0.9537244068212832
3523.5, 0.9530586826505985
3509.2265625, 0.9536772001407904
3484.7578125, 0.9523806195661888
3476.6015625, 0.952295027512656
3460.2890625, 0.9542650204514208
3448.0546875, 0.9520507681677088
3435.8203125, 0.9533629636795776
3423.5859375, 0.9534104685479584
3413.390625, 0.954036854155168
3407.2734375, 0.9541034925778944
3393.0, 0.9530257212647009
3384.84375, 0.9538611396138177
3372.609375, 0.953562341198752
3358.3359375, 0.9549014787444065
3344.0625, 0.9555482492842848
3337.9453125, 0.9552569015231936
3327.75, 0.9557075129514753
3319.59375, 0.9552672723968576
3307.359375, 0.9548807966346561
3293.0859375, 0.9555155264486976
3289.0078125, 0.9554797631074592
3278.8125, 0.956766627810944
3268.6171875, 0.9555506924033537
3258.421875, 0.9566161854512064
3252.3046875, 0.9566568360413888
3235.9921875, 0.957040809046944
3229.875, 0.9568202713065921
3215.6015625, 0.9568193181161568
3207.4453125, 0.9575324278800672
3197.25, 0.9581457599334272
3182.9765625, 0.95895519045
3166.6640625, 0.9584102252983104
3156.46875, 0.9584248880559488
3148.3125, 0.9591946818211584
3142.1953125, 0.9589447003011808
3127.921875, 0.96000405371096
3107.53125, 0.9569653493167648
3076.9453125, 0.9585045800325248
3052.4765625, 0.9316647286659009
3036.1640625, 0.9101302271053152
3001.5, 0.9554887633276449
2993.34375, 0.955493830500128
2985.1875, 0.9560110793403296
2974.9921875, 0.9575774896293793
2964.796875, 0.9568847041497537
2950.5234375, 0.9594862084949825
2924.015625, 0.9610675200919808
2911.78125, 0.9607267004332545
2897.5078125, 0.9589636549427937
2877.1171875, 0.962160310977472
2856.7265625, 0.9642325267674688
2840.4140625, 0.9659818030531488
2832.2578125, 0.9655697569214464
2822.0625, 0.9659229731098624
2815.9453125, 0.9659872270402913
2809.828125, 0.9659012175237153
2789.4375, 0.9660054063933953
2777.203125, 0.9663253640188321
2760.890625, 0.967641494600016
2754.7734375, 0.9671211456165857
2734.3828125, 0.968181214677296
2728.265625, 0.9682841521686528
2718.0703125, 0.9692127921380096
2701.7578125, 0.9696101765228801
2693.6015625, 0.9698954442834752
2679.328125, 0.9699446776308001
2660.9765625, 0.9682955358703297
2650.78125, 0.9696345551516352
2638.546875, 0.9705016238707488
2620.1953125, 0.9721701357142625
2610.0, 0.9720988485929024
2603.8828125, 0.9728456950312192
2595.7265625, 0.9721934418774273
2587.5703125, 0.9726745109241537
2569.21875, 0.971347949831728
2559.0234375, 0.9724970679038593
2542.7109375, 0.9734863259330241
2526.3984375, 0.9713332870740896
2506.0078125, 0.9731314995300129
2495.8125, 0.9718077990196993
2485.6171875, 0.973869583287648
2477.4609375, 0.9740283112274465
2469.3046875, 0.9746787762647169
2452.9921875, 0.9742354365776769
2436.6796875, 0.9755653353528352
2424.4453125, 0.9769259909451329
2412.2109375, 0.9780411337925472
2404.0546875, 0.9776199671546977
2389.78125, 0.9784079999105888
2383.6640625, 0.9785148714604545
2371.4296875, 0.9759850716996289
2359.1953125, 0.9747996545588672
2338.8046875, 0.9763661244854944
2332.6875, 0.9772332528421857
2320.453125, 0.9764768098079072
2312.296875, 0.9743883827048673
2291.90625, 0.9783276529314656
2281.7109375, 0.9779576876810017
2277.6328125, 0.978264412839856
2263.359375, 0.980560085579088
2251.125, 0.9779362889095137
2245.0078125, 0.9789337728811617
2238.890625, 0.982152424063104
2228.6953125, 0.9830096576359456
2216.4609375, 0.9753097509329824
2196.0703125, 0.984493097903264
2183.8359375, 0.9785290571174721
2173.640625, 0.9831023425179872
2157.328125, 0.9789169045439584
2151.2109375, 0.9790576906701568
2138.9765625, 0.9852071618684161
2126.7421875, 0.9844386791191072
2116.546875, 0.9858564948025185
2104.3125, 0.9861038542906945
2092.078125, 0.9888913247757825
2085.9609375, 0.9881227227513184
2075.765625, 0.9883133982381952
2065.5703125, 0.984902939466208
2047.21875, 0.9894507141348
2041.1015625, 0.9899211737575521
2030.90625, 0.9864691708425248
2020.7109375, 0.9850832430686144
2012.5546875, 0.9881708239954753
1998.28125, 0.98397906747064
1981.96875, 0.9856387590175072
1975.8515625, 0.9883055897587553
1957.5, 0.9871245241395457
1949.34375, 0.9847712728353505
1939.1484375, 0.9885992017261824
1926.9140625, 0.9938684910139008
1918.7578125, 0.993511876494368
1904.484375, 0.9950209467687648
1894.2890625, 0.994758984160528
1884.09375, 0.9920680133408353
1875.9375, 0.9934619871336896
1863.703125, 0.9934915511992768
1849.4296875, 0.9935582492595808
1841.2734375, 0.9947311485738848
1831.078125, 0.9971022214057185
1820.8828125, 0.9969094009876608
1798.453125, 0.9990802613742337
1769.90625, 0.9992110334414273
1759.7109375, 0.9985606280417344
1747.4765625, 0.9981015531314656
1731.1640625, 1.0005027843830496
1720.96875, 1.0023884376574113
1704.65625, 1.0043303574700289
1698.5390625, 1.00359245161432
1676.109375, 1.0077129210177953
1661.8359375, 1.004349788201456
1639.40625, 1.009276231163616
1574.15625, 0.9120005009603008
1510.9453125, 0.5994769694566496
1449.7734375, 0.8858740575454752
1415.109375, 0.9227828021424864
1370.25, 0.6551435931034433
1317.234375, 0.7954375435143937
1305.0, 0.8575620909864384
1225.4765625, 0.9418847192585729
1203.046875, 0.9577244740204225
1158.1875, 0.927817845133456
1129.640625, 0.9641028857926368
1115.3671875, 0.9622594336854753
1107.2109375, 0.9604310617989953
1101.09375, 0.9609384754929249
1092.9375, 0.960308276113168
1076.625, 0.9604231340444
1060.3125, 0.8958903201082272
1052.15625, 0.890517855789648
1021.5703125, 0.9499227033024993
1009.3359375, 0.949780307972512
990.984375, 0.9069147346933728
978.75, 0.9181328056334689
964.4765625, 0.9090251569436768
886.9921875, 0.978742084566272
874.7578125, 0.9770967575891553
844.171875, 0.9937902899767649
793.1953125, 0.6244009484807777
750.375, 0.9943447920868385
666.7734375, 0.9449305761188544
640.265625, 0.6803499793060545
503.6484375, 0.7914249584887968
477.140625, 1.0010569893160417
468.984375, 0.9966354572911649
456.75, 0.9890545811282528
442.4765625, 0.9760399675844065
428.203125, 0.96841790510392
##END=

##END=

