##TITLE=X7799
##JCAMP-DX=5.0
##DATA TYPE=LINK
##BLOCKS=1


$$ === CHEMSPECTRA SPECTRUM ORIG ===
##TITLE=X7799
##JCAMP-DX=5.00
##DATA TYPE=INFRARED SPECTRUM
##DATA CLASS=XYDATA
##ORIGIN=ComPlat
##OWNER=
##XUNITS=1/CM
##YUNITS=TRANSMITTANCE
##XFACTOR=1
##YFACTOR=9.2875802e-010
##FIRSTX=3997.453
##LASTX=373.96442
##MAXX=3997.453
##MAXY=0.9972463295206704
##MINX=373.96442
##MINY=0.40068614654765733
##NPOINTS=2559
##XYDATA= (X++(Y..Y))
2559A068905016A069577588A070163714A070333782A070237902A070013733A069662173
2552A069472467A069903028A070822360A071483765A071479080A071149725A070873894
2545A070563407A070057245A069504747A069171734A069162172A069411755A069726991
2538A069832241A069592734A069173788A068898919A068983761A069380052A069826209
2531A070042548A069858233A069280001A068620970A068375622A068702346A069216594
2524A069505133A069553458A069542740A069736618A070427159A071406368A071971636
2517A071774550A071014312A069939288A068846166A068359257A068847129A069710306
2510A070091194A069801244A069219739A068817800A068730905A068654855A068228914
2503A067526564A067171539A067713704A068967075A070325889A071352459A071762549
2496A071235209A069720381A067871899A066747716A066785259A067608325A068851172
2489A070137787A070907522A070931075A070452959A069947439A069895263A070281093
2482A070473816A069922474A068656267A067224934A066068469A065475669A065994666
2475A067518350A068872735A069112371A068124242A066503202A065287438A065561473
2468A067361630A069232446A070017455A069788794A069280514A069061222A069124436
2461A069136566A068770373A067895131A066695091A066006731A066697016A068218518
2454A069742715A070768323A070903094A069949685A068227695A066641824A065999094
2447A066354055A067223522A068230005A069192271A069794505A069779873A069379539
2440A069140609A069368179A069868886A070106789A069671350A068670258A067768382
2433A067437102A067604411A068340967A069582209A070621166A070852587A070192594
2426A068912717A067786416A067642018A067886916A067060962A065094331A063958724
2419A065068788A067555123A070219869A072337315A073503086A073741823A073366710
2412A072733543A072043450A071267939A070425491A069770182A069387240A069040814
2405A068790396A069095685A069895134A070538699A070660763A070366512A069887433
2398A069418301A069101653A069023358A069273390A069765883A070044923A069656269
2391A068704464A067882745A067649142A067667111A067254327A065983627A064319333
2384A063480607A063582327A063737121A063557298A063244308A063075010A062838840
2377A062020201A060365341A058396527A057300902A057665297A059117809A061283517
2370A063599655A065203880A065590866A065031758A064331398A064170763A064631809
2363A065210555A065456287A065497040A065526753A065228781A064321771A063649007
2356A064519885A066480034A068037026A068501665A068063402A067298929A066747395
2349A066488827A066302072A066198234A066422532A067119042A068147538A069171927
2342A069809459A069710241A068803809A067484272A066281857A065464502A064955709
2335A064618011A064444413A064429909A064766516A065770561A066796361A066775761
2328A065753233A065391340A066758048A068677060A069762096A069637208A068707673
2321A067506092A066283782A065388773A065468545A066373886A066804769A065812917
2314A063593173A061297572A060148359A060644702A062661969A065384987A067617118
2307A068667819A068734242A068183605A067053261A065486258A063841601A062084121
2300A059899867A058008643A058135328A059818747A061158822A061664727A061867268
2293A062281593A062948903A063504096A063563908A063070261A062454357A062394801
2286A063017572A063860341A064713570A065585860A066046713A065567826A064168646
2279A062415915A061018660A060293655A059960963A059615050A059344546A059375479
2272A059293076A058509735A057451396A057590403A059284412A061052802A061576484
2265A060836333A059965969A059948513A060367266A060264583A059765673A059603691
2258A059599006A058956341A057752706A057129743A057403906A057500171A056980532
2251A056416162A056351151A056794419A057341783A057442668A056824390A055955501
2244A055645849A055942923A056105996A055510436A054128775A052641672A052202703
2237A053459540A055658491A057119924A056886706A055625825A054538608A053938748
2230A053418981A052688585A051794283A050958573A050541232A050916281A052050155
2223A053193849A053359938A052327912A051004396A050458637A050664644A050683319
2216A049964348A048921155A048285164A048301914A048615802A048721052A048442910
2209A048005867A047577615A047060351A046454651A046020752A045954586A046160272
2202A046411203A046587882A046737799A046957219A047205390A047259684A046900551
2195A046170797A045447975A045094746A045111753A045349592A045795877A046323859
2188A046492451A046018891A045104694A044029862A042866210A041755439A040987629
2181A040645503A040532937A040526583A040728676A041195946A041665656A041724570
2174A041301710A040776551A040457080A040182788A039647940A038895275A038258385
2167A038019969A038182849A038325129A037886994A036912150A036154929A036099737
2160A036319157A036172321A035657624A035199594A035005716A034890583A034464514
2153A033455399A032023103A030657102A029751247A029427091A029541839A029647217
2146A029292512A028561860A027953016A027698876A027568148A027297065A026870290
2139A026321964A025487603A024128917A022275108A020265029A018413467A016843255
2132A015646359A014873094A014295760A013509210A012318539A010853128A009379310
2125A008185751A007459206A006940787A005918002A003954195A001447067I99106991
2118I97144467I95211721I92914579I90281793I87825301I85909305I84105490I81764002
2110I79118638I76933934I75171705I72952089I69812371I66177209I62566563I59071883
2102I55669234I52430299I49272226I45936834I42328241I38549965I34624339I30484427
2094I26100707I21421711I16516684I11861754I08029826I05047213I02398576H99544958
2086H96179402H92223870H87894957H83635356H79699782H75827487H71601001H67143607
2078H63087381H59768867H56889771H53964853H50645890H46760117H42566618H38819981
2070H36165118H34519370H33121730H31156703H28434775H25482004H22913074H20918269
2062H19438675H18503235H18187999H18394199H18793121H19017932H18937712H18770660
2054H18999706H20107974H22131081H24433613H26289219H27693534H29255467H31434973
2046H34332038H37936588H42018292H46008929H49587102H53234137H57646607H62694363
2038H67516409H71658247H75578353H79897575H84590947H89159303H93318019H97280995
2030I01469617I06047279I10679426I14829992I18486910I22288418I26514583I30350105
2022I32861083I34407550I36227923I38826117I41533540I43513392I44640785I45490485
2014I46783774I48758813I50942554I52659795I53760104I54651134I55679309I56831731
2006I58086514I59644276I61637861I63869029I65972614I67720274I69134280I70379758
1998I71586087I72857107I74439834I76604900I79298782I82168700I84873813I87123272
1990I88677824I89616217I90309004I91023869I91922792I93302848I95282572I97428641
1982I99200946A000600833A002000784A003504187A004848305A005856714A006655008
1975A007444125A008314554A009289526A010342538A011405625A012462744A013467752
1968A014195259A014475262A014432841A014194361A013745765A013332339A013408581
1961A013982128A014588342A014901717A014862119A014466598A013870332A013326627
1954A012875208A012521787A012532184A012975901A013268868A012733891A011402224
1947A009904660A008785162A008141854A007652892A006769307A005096861A002795035
1940A000473442I98499302I96609554I94497049I92436142I90767868I89070779
1933I86579567I83313228I80196678I78025580I76642250I75171127I72955940I70184147
1925I67521904I65350356I63616943I62148195I60729761I59136894I57423504I56011552
1917I55321332I55435951I56109807I56975358I57787900I58573744I59563670I61008288
1909I63007457I65468762I68277457I71388937I74590264I77453508I79840112I82171524
1901I84994402I88529448I92584903I96555774I99733099A001934810A003531013
1894A004791958A005766353A006747743A008174456A010028842A011823480A013212649
1887A014289471A015232548A015986431A016545026A017276255A018490350A019851860
1880A020778122A021278316A021846344A022657987A023343715A023511088A023218763
1873A022911806A022904618A023019558A022940878A022707980A022441262A021877405
1866A020771705A019521221A018808154A018800003A019121657A019355003A019260664
1859A018771316A017976552A016957554A015691219A014225422A012693781A011072612
1852A009293313A007569654A006189085A005028577A003612774A001552060I98754532
1845I95317548I91233855I86237890I80108884I72997975I65186962I56774549I47770748
1837I38043097I27022093I14027269H99036036H82719169H65797757H48789835H32328185
1829H17421216H05299324G96999605G93110239G93899741G99430619H09246962H22017424
1821H35705934H48163919H57730294H63604196H65770097H64513516H60078712H52794847
1813H43251704H32209393H20572357H09546732H00421893G93947039G90226137G89323877
1805G91531235G96899939H04899182H14586658H24917121H35081879H44840527H54401575
1797H63868925H72985165H81447058H89269879H96745890I04059277I11001080I17186047
1789I22506426I27163153I31289716I34840807I37867766I40658363I43513649I46500819
1781I49450958I52083167I54088497I55204915I55305159I54373570I52372860I49143552
1773I44361038I37563055I28352797I16757475I03540793H90310312H79240534H72255668
1765H70030276H71579759H74814650H77700806H79288346H80039085H81378132H84818197
1757H91114062H99887084I09938057I20002956I29389636I38113435I46493823I54584005
1749I62046988I68631648I74549319I80192378I85627377I90521558I94534143I97732711
1741A000564829A003371855A006092114A008584609A010976861A013422571A015743202
1734A017641806A019141423A020560178A022091435A023598561A024847376A025777296
1727A026477272A027078929A027768187A028691305A029766329A030807468A031835386
1720A032996536A034248752A035411121A036414075A037233355A037734896A037856960
1713A037850221A038111292A038799395A039738557A040650829A041357928A041834440
1706A042245557A042888671A043894449A045010482A045837784A046240365A046388421
1699A046478076A046589294A046780733A047112847A047521782A047860635A048140702
1692A048541165A049162074A049987965A051009401A052079869A052805515A052927644
1685A052689355A052537128A052614397A052734985A052695324A052465058A052157074
1678A051890676A051696413A051570948A051577943A051765082A051954724A051791202
1671A051189866A050622159A050650846A051217141A051709120A051727988A051422250
1664A051076979A050823738A050783050A051047330A051443108A051682743A051781832
1657A052014730A052478021A052988419A053351787A053511780A053510432A053466022
1650A053535140A053816748A054284917A054763996A054987716A054829007A054456590
1643A054122422A053848708A053517171A053191859A053086417A053225295A053418788
1636A053590140A053795249A053910638A053726965A053407557A053402166A053799934
1629A054196032A054281708A054149761A053932138A053562480A053062671A052713614
1622A052738001A053035011A053362441A053595338A053749876A053910767A054114207
1615A054216055A054034949A053676907A053515823A053829904A054597586A055507933
1608A056079041A056044771A055696163A055544578A055704763A055915006A055992980
1601A055960186A055856284A055661957A055349416A054983673A054803914A055068515
1594A055741857A056484189A057013005A057322273A057478158A057362768A056840434
1587A056151690A055817585A056028278A056458262A056837225A057261112A057738459
1580A057958008A057825483A057769777A058162346A058787748A059192126A059248088
1573A059056906A058582383A057822530A057180699A057156761A057711120A058362513
1566A058820414A059123713A059291536A059225883A058925536A058616974A058642709
1559A059123393A059731210A060035921A060045548A060104013A060378304A060778510
1552A061193284A061479128A061475726A061386970A061833704A063042472A064199001
1545A064202467A062988051A061443959A060188213A059245264A058718951A058839924
1538A059433751A060016861A060217349A059806875A058877788A058158239A058434135
1531A059541953A060488111A060516156A059744431A058968277A058943505A059659653
1524A060478227A061038875A061510959A061947682A062112937A061948003A061553765
1517A060864571A059920467A059243339A059420338A060385043A061396468A061776009
1510A061614733A061646436A062360274A063396215A063997294A063879080A063355141
1503A062683981A061735257A060482271A059437987A059213561A059810982A060635332
1496A061057743A060832419A060226976A059863222A060188983A061084441A062104466
1489A062833898A062882031A062081298A060983041A060507043A060775045A060963596
1482A060614282A060340632A060830108A061781592A062316570A062091951A061616594
1475A061518596A061759131A061770233A061318686A060844484A060773119A060964109
1468A061121021A061257718A061401666A061310279A060859630A060324652A060013588
1461A059956021A060030916A060099392A060014743A059752710A059466481A059289867
1454A059249436A059398647A059784413A060234613A060436513A060268626A059854173
1447A059301355A058687761A058291791A058413277A058891843A059210095A059155224
1440A059003254A059070896A059400508A059826577A060169602A060451209A060821380
1433A061147013A060994465A060237244A059289995A058573013A058179995A058164785
1426A058661320A059589380A060537591A060935230A060195401A058006012A054755461
1419A051330221A048194418A044999701A041311272A037301254A033419268A029789112
1412A026267157A022793721A019394215A015913591A012007731A007700511A003867556
1405A001529085A000684712A000607058A001199601A003138316A006679587A011205137
1398A015910895A020176722A023304888A024504672A023286598A020086682A016632113
1391A014809751A014900369A015802501A016574483A017263805A018406857A019981176
1384A021308928A022004026A022361619A022662030A022786725A022749952A022970078
1377A023828313A025394225A027692651A030704143A033864398A036190675A037209609
1370A037385967A037519583A038109624A039396238A041539420A044362490A047116634
1363A048961265A049815073A050460049A051647767A053337861A054888756A055729471
1356A055803531A055619857A055838443A056638598A057640333A058497156A059194757
1349A059699828A059847049A059693667A059467637A059128142A058486567A057672036
1342A056997218A056537841A056226905A056113569A056288450A056783959A057601442
1335A058574810A059282936A059370922A058879585A058013520A056716188A054950815
1328A053364687A052836128A053206106A053630764A054347168A056406728A059329400
1321A061008391A060560309A059412573A058956726A058774785A057887798A056610361
1314A056273882A057500107A059405578A060542083A060328054A059527064A059358087
1307A060076738A060713563A060368614A059121403A057467441A055856605A055035785
1300A055779015A057937407A060352120A061884211A062311179A062237376A062231600
1293A062286086A062245398A062086881A061537015A060353981A059080394A058513970
1286A058560819A058372717A057306293A055459159A053596750A052371360A051543801
1279A050732928A050591547A051902549A054115940A056137186A057672293A058607668
1272A058254889A056532835A054845437A054451199A054764638A054396328A053190576
1265A052327720A053312319A057014289A061858990A063583033A060247961A055571468
1258A054049388A056646171A061408148A065173653A065527780A062730509A059067751
1251A056250778A054548042A053511973A052371616A050885733A050415253A052766624
1244A057647649A062551777A065338908A065853413A065090737A063808293A062100101
1237A059878881A057610876A056334657A056574229A057542977A058129103A058308990
1230A058627884A058776132A057928294A056260084A055012874A055009601A055751548
1223A056138726A055901850A055924311A056899156A058215549A058738268A058241027
1216A057459804A057010952A056852178A056752897A056770610A057037970A057455632
1209A057842361A058015831A057707205A057013840A056744618A057436315A058391714
1202A058674284A058534250A058739937A059162091A059166584A058871435A059023855
1195A059898134A060895119A061098431A059984067A057817396A055676525A054953831
1188A056275101A058363540A058417577A054841714A049673435A047126774A049177541
1181A053745897A057715740A060193347A062117108A063581364A062889604A059187056
1174A054867513A053184607A054356282A056486820A058764966A060922651A061817724
1167A061337169A061430610A063063330A064218896A062647336A059046188A056248083
1160A056371238A059354621A062973354A064125262A061904491A059164016A058956726
1153A060395568A060365212A058090982A055859685A056212208A059346663A062650994
1146A063112682A060529055A057671458A057260214A059283899A061489845A061871761
1139A060063132A056924121A053523075A050848318A050174077A052739413A058170818
1132A063574177A065753105A064218768A060831520A057427009A054965511A053943625
1125A054141033A054531291A054466922A054399601A055106764A056674922A058240257
1118A058429899A056440485A053228247A051246727A052369691A056099706A060052222
1111A062130842A061957116A060388316A058557932A057493689A057736405A058952426
1104A060128143A060389664A059689046A058595218A057669662A057190454A057112608
1097A057074872A056760791A056362253A056315212A056514288A056465385A056261432
1090A056551767A057242822A057388888A056696935A056122746A056551960A057474243
1083A057813802A057444915A056938945A056511015A056017817A055522437A055189167
1076A054935669A054620625A054243587A053767653A053144304A052618954A052697506
1069A053717017A055461084A057045350A057542784A057111966A056751806A056824069
1062A056834145A056561073A056374575A056503506A056666194A056318485A055269067
1055A054259952A054210408A055098036A056153422A056625442A056385100A055963523
1048A055910321A056246158A056661830A056918088A056860265A056409937A055703864
1041A055021409A054657912A054942279A055827725A056646364A056919949A056747763
1034A056386127A055859172A055040919A053979051A053003693A052597133A053000805
1027A053934384A054940867A055648223A055758094A055175818A054223949A053640454
1020A053956653A054766756A055228507A055035849A054331638A053299419A052313601
1013A051853967A051958703A052201741A052201741A051960179A051759370A051747434
1006A051710725A051346072A050529039A049449779A048758916A048957479A049580378
999A049894395A049592636A048725544A047637685A046805377A046404978A046221946
992A046059258A045825591A045279639A044199545A042850165A041843233A041400092
985A041248058A040930768A040154101A038945076A037433714A035750936A034051216
978A032426261A031018673A030033368A029333264A028408606A026956479A025379272
971A024254768A023490359A022578215A021189174A019394344A017404416A015321753
964A013295181A011393432A009368592A007268345A005932891A005565736A005590894
957A005606938A005221492A004163732A002760315A001498216A000276227I98941351
950I98199275I99099033A001307996A003671496A005751592A007539235A008981735
943A009943359A010650907A011734467A013055096A013661694A013252567A012385347
936A011315265A009670544A007199355A003880071I99525167I93273070I84358731
929I73666504I62182080I47702977I28110016I09708625H98156173H90346765
922H82915357H73678787H60374824H43040691H24073710H02805031G76114895
915G46286389G20285576F98380328F75203418F47123279F16425371E87852033
908E62507940E39724048E18461883D94654405D65646495D43694045D34601455
901D31483461D31421466D34561441D39008310D42601019D45224307D47269490
894D49013782D51116243D55012893D61357629D68577606D76157647D85735830
887D99264797E16886794E37147160E60382471E87812372F15902459F39361168
880F59187090F80722103G05513057G27586640G43719577G56716583G69279561
873G81947854G93834923H03977476H12167966H18721243H23893181H27677426
866H30059024H31382541H32310600H33276267H34068593H34111399H33034257
859H30861105H27694946H23368857H17589808H10220267H01328838G91231466
852G79952214G66047301G47634357G27480492G10682299F95920306F78540864
845F57059440F35596241F17177137F00359883E84554505E70698686E57360710
838E40144149E21135068E10095100E04772507E00765088D97843667D96595911
831D97067995D98952930E01788867E05530081E10520046E17051086E27003163
824E42434552E57771505E68442233E77434290E88891567F03339480F16967728
817F27882327F37840116F48410343F58771097F67808976F77147203F88826853
810G01149297G12094316G22887942G34209421G44562346G52973861G59563398
803G64568797G69531006G78780540G92378945H02891477H09053534H13444698
796H17696213H22605475H28451911H34291158H38568408H40950455H42156529
789H43219809H44966827H47103399H48542369H48532101H46883658H43904638
782H40091257H35471047H29592780H22210724H13200698H01949748G88724530
775G75662450G64078487G54230633G47104514G43819629G43137944G42441049
768G40643202G38371795G37931286G41109895G45131080G47375340G47719712
761G46386248G43397859G38843237G32949312G25850147G17556653G08500676
754F99690881F91973758F86132072F83914895F86440955F92433199G00989112
747G12417830G25895648G38996491G50574742G61413356G71856513G81050727
740G88944464G97118268H06397388H15227784H22446959H28372909H33571609
733H38344495H42599926H46075352H48905353H51553027H54061054H55980451
726H57105020H57641088H57766874H57306535H56013502H53981025H51309669
719H47532869H41691312H32812847H20704368H06141900G89647520G71255242
712G51695139G32674186G15773952G01507724F89498975F79109149F69538924
705F59594613F48563853F37881189F30935406F30656815F38649513F55201523
698F77559281G01230673G24016810G45932647G67176169G87373610H05713649
691H21477505H34444861H44813766H52948486H59205588H63873546H67299749
684H70073916H72958018H76414833H80230267H83964775H87478450H90690367
677H93232856H94690374H95024927H94456963H93052070H90721428H87497318
670H83492177H78634128H72706894H65664526H57689670H49014132H39854766
663H30177879H19215083H05586707G88332411G67831093G45694680G23997750
656G04615096F88676743F76177621F66217265F57839187F50763575F45463283
649F42711835F43079375F46672180F53156725F61990265F72655410F84682705
642F97560599G10789410G24001023G36905678G49187177G60562630G70876984
635G80026595G87786844G93775238G97662230G99489213G99836088G99714345
628H00271206H02439481H06643505H12726753H20152384H28234801H36260356
621H43617127H49974537H55351006H59949974H63933102H67420979H70609856
614H73663448H76456804H78503143H79049287H77184055H72090605H63533730
607H52288942H40127967H29264837H21626909H18455038H20267068H26777797
600H36815806H48691131H60900110H72516482H83081061H92357742I00160477
593I06270614I10561469I13264721I14979780I16344241I17777436I19455786
586I21325831I23159745I24774367I26169890I27400543I28460806I29398107
579I30383605I31577228I33025504I34706228I36556700I38423922I40051058
572I41129612I41435992I41027058I40264317I39538607I39019097I38709187
565I38552660I38342802I37668177I36083653I33249417I28847920I22507710
558I14011931I03696999H92610599H82083627H72981571H65420141H59251731
551H54657961H52157187H52195244H54863905H59828487H66281842H73066669
544H79141317H84025229H87735286H90371794H91898622H92287020H91792345
537H91056816H90829630H91448551H92617273H93737028H94378796H94426415
530H93969348H93226824H92556883H92445215H93415246H95836955H99680178
523I04355131I08829596I12087656I13621287I13439667I11569622I07718954
516I01590719H93503425H84626758H76639580H71158374H69270231H71238210
509H76418940H83495450H90976403H97733249I03294162I07721457I11242128
502I14042607I16318186I18274420I20029846I21669818I23323203I24935322
495I26057581I26192673I25392582I24260568I23292719I22472669I21624574
488I20832120I20207808I19523107I18460854I17027018I15366702I13398530
481I10936197I07939530I04376566H99985980H94353253H87248954H79004107
474H70644896H63559465H58961652H57607588H59706744H64760212H71618906
467H79004620H85961056H91846511H96337983H99625692I02177038I04126790
460I05216640I05301096I04485089I02836325I00388368H97352488H93979873
453H90252489H85915940H80835839H75273578H69790640H64827854H60402612
446H56289462H52473578H49346118H47457205H47083119H47969014H49409525
439H50607833H51056621H50626123H49344706H47334306H45140361H43883588
432H44726036H48126632H53612330H60104126H66479827H72069106H76732058
425H80566810H83731107H86412283H88619127H90061050H90521903H90272833
418H89955608H90198837H91423843H93788113H97143144I01079936I05085912
411I08741931I11896024I14689765I17364780I20030296I22634972I25096984
404I27370316I29416655I31240557I32965499I34745184I36609068I38495607
397I40337928I41978799I43197450I44008965I44738462I45595991I46405901
390I46965266I47425605I48061468I48802324I49254064I49150483I48608318
383I47950635I47397945I46905838I46200472I45007747I43279147I41142127
376I38766689I36487774I34836892I34070365I33772072I33301785I32532499
369I31772325I31057012I30012728I28556237I27289196I26858635I27233812
362I27977235I28897016I29967740I30884312I31169706I30600651I29373720
355I28136136I27813713I28909915I30912871I32751855I33840292I34405753
348I34921862I35542900I36106051I36465954I36645841I36643916I36279392
341I35423917I34274255I33157323I32108932I30927824I29671693I28743441
334I28290481I27845031I26880647I25467155I24047951I22835845I21755751
327I20666159I19326277I17475741I15255676I13235200I11745081I10467643
320I08922460I07093039I05370022I04148996I03708487I04157274I05170047
313I05944596I05716384I04354554I02418599I00642700H99317708H98148536
306H96658674H94568438H91905938H89177144H87276807H86621370H86514388
299H85983903H84916901H83717694H82313508H80246953H77493066H74618847
292H72157606H70072825H67900058H65354552H62585391H59811673H57066642
285H54390858H51896565H49553152H47189331H44672705H41889104H38697532
278H35066990H31148745H27150856H23167535H19102967H14828733H10390527
271H05804844H00706132G94672878G87945553G81323927G75279700G69571758
264G63766973G57807138G51993497G46616900G41742998G37365119G33664433
257G30939746G29278788G28565721G28853938G30356251G32944049G36007717
250G38933855G41440020G43408898G44702829G45316487G45556572G45848191
243G46374697G47107210G48118186G49593673G51517819G53567624G55393195
236G56922783G58318691G59607359G60466236G60553902G60068854G59820554
229G60609222G62495697G64777372G66743554G68264606G69568870G70784762
222G71953356G73262689G74951691G76968382G78914797G80488796G81904855
215G83733250G86346077G89371496G91550745G91699571G90462628G91506784
208G97745339H05219681H09817558H11996742H13718090H16028324H18402991
201H19832399H20114713H19836121H19468453H18973073H18279964H17685624
194H17492516H17502142H17229199H16466715H15230351H13268725H10235926
187H06443146H02861956H00196119G98380496G97107615G96323439G95968863
180G95676859G94965139G93442739G90674219G86127106G79572224G71490898
173G62776213G53824587G43927253G31588765G15439463F95239583F72434513
166F49534077F28776630F11562379E98766825E90942078E88174264E89906394
159E95026477F02408918F11310935F21138509F31305129F41637067F52404702
152F63636077F74791981F85248872F94842907G03725671G11814569G18726210
145G24235075G28591905G32606030G37338293G43153731G49088794G53720557
138G56797895G59361241G62154405G64861379G67015727G68831351G70745678
131G72569196G73748443G74538073G76158728G79172082G82221439G83377069
124G82689416G82196538G83241271G85185697G86992080G88552087G90031361
117G91310210G92526167G94012115G95528354G96566027G97309322G98450192
110H00236294H02203182H03538571H03533245H01941534G99099532G95984137
103G93964046G93689113G94101834G93234357G90033607G85133650G79780927
96G74202814G67859394G61221789G55789229G52344544G50699630G50985088
89G53630260G57996652G62105566G63823641G61924973G56364702G48500807
82G40798702G35601928G34210127G36926985G43643849G53908081G66154797
75G77555663G85613243G90161447G93085274G96130845G99626358H03250610
68H07069189H10920499H13667391H14171114H12696461H10707881H09599485
61H09888280H10922745H11146722H09721357H07115076H03644976G98787248
54G92338321G85263287G78658604G72473893G65999296G59312210G53425344
47G48948889G45420260G42524158G41599243G44170804G49176460G54323818
40G59501660G65920102G72841947G78239017G82074217G86281130G92143738
33G99730453H08007261H14885144H18493095H17859029H13707437H08223151
26H02577397G96819076G92758936G93321060G98354376H03922348H05968109
19H03909641H03079194H10119124H21769060H29747639H31859181H30978420
12H28652784H23515052H15586339H09386290H10375446H18031921H26606316
5H31231083H29720043H21841387H10921590H04308885
##END=


$$ === CHEMSPECTRA PEAK TABLE EDIT ===
##TITLE=X7799
##JCAMP-DX=5.00
##DATA TYPE=INFRAREDPEAKTABLE
##DATA CLASS=PEAKTABLE
##$CSTHRESHOLD=0.93
##MAXX=3997.453
##MAXY=0.9972463295206704
##MINX=373.96442
##MINY=0.40068614654765733
##$CSSOLVENTNAME=- - -
##$CSSOLVENTVALUE=0
##$CSSOLVENTX=0
##NPOINTS=29
##PEAKTABLE= (XY..XY)
385.29667513682534, 0.7517240081155457
398.0454621657541, 0.7458662421226359
406.54465351837325, 0.7362812197366667
434.8752913604376, 0.6887662445621788
485.870439476153, 0.6819035438164686
501.45229028928816, 0.6972183019735326
600.6095227365126, 0.5462715648475973
733.7635205942138, 0.6766612564758324
964.6582190070367, 0.8265534083739762
985.9061973885846, 0.7837636503013757
998.6549844175133, 0.7867352403778644
1039.7344092885064, 0.7965099253678557
1096.3956849726346, 0.8073416985885026
1151.6404287646596, 0.7914478217268898
1226.7166190461294, 0.7601466805519047
1263.5464482408129, 0.7427411116277969
1291.8770860828772, 0.5969237713051667
1365.5367444722438, 0.5857275747989062
1436.363339077404, 0.6351914437287078
1457.6113174589523, 0.6853596000814137
1551.1024223377635, 0.4612174350404562
1647.4265910007816, 0.40068614654765733
1718.2531856059418, 0.9270855822144355
2364.1917284050173, 0.932350043652799
2872.7266776700544, 0.8080475964778135
2930.8044852462863, 0.7330908811412435
2959.13512308835, 0.7366074952153667
3088.0395252697417, 0.8872623487720827
3290.6035858405003, 0.7598986659390019
##END=


$$ === CHEMSPECTRA PEAK TABLE AUTO ===
##TITLE=X7799
##JCAMP-DX=5.00
##DATA TYPE=INFRAREDPEAKTABLE
##DATA CLASS=PEAKTABLE
##$CSTHRESHOLD=0.93
##MAXX=3997.453
##MAXY=0.9972463295206704
##MINX=373.96442
##MINY=0.40068614654765733
##NPOINTS=40
##PEAKTABLE= (XY..XY)
3290.6035858405003, 0.7598986659390019
3283.5209263799843, 0.7604398170156932
3088.0395252697417, 0.8872623487720827
2959.13512308835, 0.7366074952153667
2930.8044852462863, 0.7330908811412435
2872.7266776700544, 0.8080475964778135
1718.2531856059418, 0.9270855822144355
1647.4265910007816, 0.40068614654765733
1551.1024223377635, 0.4612174350404562
1457.6113174589523, 0.6853596000814137
1436.363339077404, 0.6351914437287078
1365.5367444722438, 0.5857275747989062
1291.8770860828772, 0.5969237713051667
1263.5464482408129, 0.7427411116277969
1226.7166190461294, 0.7601466805519047
1151.6404287646596, 0.7914478217268898
1131.808982275215, 0.8273651633161325
1119.0601952462857, 0.8288656508418742
1096.3956849726346, 0.8073416985885026
1039.7344092885064, 0.7965099253678557
998.6549844175133, 0.7867352403778644
985.9061973885846, 0.7837636503013757
964.6582190070367, 0.8265534083739762
888.1654968334633, 0.8608273906625027
874.0001779124314, 0.8617144270147282
820.1719660125095, 0.8393265050433157
733.7635205942138, 0.6766612564758324
698.3502232916339, 0.7056894332883431
670.0195854495696, 0.7341485052652765
647.3550751759185, 0.7592527305249783
600.6095227365126, 0.5462715648475973
546.7813108365908, 0.7264713078837347
517.0341411024233, 0.7371451290854363
501.45229028928816, 0.6972183019735326
485.870439476153, 0.6819035438164686
460.3728654182951, 0.7519220146816197
434.8752913604376, 0.6887662445621788
406.54465351837325, 0.7362812197366667
398.0454621657541, 0.7458662421226359
385.29667513682534, 0.7517240081155457
##END=

##END=

