##TITLE=X8381
##JCAMP-DX=4.24
##DATA TYPE=INFRARED SPECTRUM
##DATE=31/10/2018
##SAMPLING PROCEDURE=Diamant-ATR
##ORIGIN=ComPlat
##XUNITS=1/CM
##YUNITS=TRANSMITTANCE
##RESOLUTION=4
##FIRSTX=3997.453
##LASTX=373.96442
##DELTAX=-1.4165319
##MAXY=1.025205
##MINY=0.60310525
##XFACTOR=1
##YFACTOR=9.5479658e-010
##NPOINTS=2559
##FIRSTY=0.94423473
##XYDATA=(X++(Y..Y))
3997+988938118+988591900+988737042+989224406+989629492+989638793+989331405
3988+989049362+989007661+989113911+989176025+989171281+989207863+989268916
3978+989186513+988937556+988755520+988821318+989091937+989531045+990128280
3968+990623010+990657657+990239399+989686987+989261113+989147996+989514128
3958+990236715+990841503+990994448+990823899+990559210+990166610+989617131
3948+989202619+989176962+989413496+989785995+990430612+991281236+991795880
3938+991499791+990475434+989238389+988325152+988043358+988403809+989134949
3928+989815773+990084269+989822702+989252186+988783300+988712009+989085694
3918+989771200+990625195+991494422+992030416+991905438+991273557+990659654
3908+990343589+990155373+989794235+989132140+988434273+988230763+988684167
3898+989338085+989639355+989397577+988807209+988476973+989085757+990310378
3888+991075665+991001315+990627005+990523315+990504212+990196013+989753970
3878+989504014+989365615+989156860+988950291+988860896+988892983+989196064
3869+989921523+990794808+991450099+991787577+991797441+991468203+990991327
3859+990695113+990671953+990634871+990262372+989947930+990413631+991176421
3849+991535249+991437364+991191466+991050569+990954245+990690181+990261186
3839+989851356+989585044+989569375+989949927+990691617+991503037+992008630
3829+991955567+991299464+990268365+989294074+988773499+989002979+989829756
3819+990418251+990409012+990383230+990922782+991782708+992388807+992486692
3809+992162761+991803808+991762856+991804370+991482374+990860606+990391345
3799+990213492+990222606+990524439+991103133+991608475+991852563+992037658
3789+992347855+992608486+992511163+992084603+991689755+991493985+991302336
3779+990984897+990726763+990679256+990715963+990711469+990781511+991177732
3769+991932781+992694510+993125003+993196981+993005644+992608112+992150837
3759+991966242+992225811+992579271+992630460+992425826+992257961+992243291
3750+992167880+991952196+991909746+992375448+993126939+993363598+992863062
3740+991923979+990781761+989739050+989245569+989434534+990038823+990904367
3730+991811424+992248909+991914116+991296155+991205762+991541866+991472823
3720+990813910+990304510+990563330+991448539+992420770+993056896+993215647
3710+992981235+992417149+991498168+990374927+989473051+989297445+990037761
3700+991283233+992392740+993011075+993204285+993372587+993822495+994349250
3690+994442266+993939607+993148975+992253279+991310326+990507708+990050184
3680+989942311+989949053+989874329+990004113+990793435+991806617+992317266
3670+992355409+992549992+993086986+993469910+993420718+993158214+993049779
3660+993200352+993417284+993481022+993317589+992987166+992599060+992263704
3650+992140662+992381378+992946276+993637463+994241065+994590279+994700337
3640+994737731+994709639+994401376+993824992+993391003+993397870+993645329
3631+993824493+994006653+994422102+994908342+995246569+995448519+995485163
3621+995207116+994643092+994121268+993739031+993211589+992459037+991840078
3611+991731393+992235488+993213524+994167839+994531036+994281393+993892350
3601+993781730+993909955+993973193+993849713+993621919+993383387+993246048
3591+993411479+994011460+994787984+995130518+994918393+994636974+994483030
3581+994285638+994052911+994105724+994572675+995128521+995389713+995240264
3571+994709576+993897344+993246236+993531525+994838050+996168484+996724705
3561+996514078+996049125+995856539+996046877+996389474+996727452+997111500
3551+997541681+997803935+997719035+997441861+997362017+997566901+997697373
3541+997581884+997506347+997671466+997817356+997644997+997320816+997216813
3531+997456843+997929100+998430073+998688332+998527396+998068436+997635071
3521+997502352+997849194+998762931+1000022137+1001008726+1001197504+1000719504
3512+1000233888+1000257672+1000700776+1001058417+1001025768+1000762016
3503+1000573675+1000532973+1000573675+1000775688+1001204933+1001619882
3495+1001669948+1001377167+1001163606+1001350199+1001771266+1001980707
3486+1001841808+1001652094+1001636737+1001665516+1001577557+1001449894
3478+1001437471+1001602714+1001860162+1001961168+1001772015+1001606335
3469+1001913099+1002613525+1003167873+1003323377+1003350221+1003465585
3461+1003504477+1003339358+1003189098+1003244095+1003329120+1003201458
3452+1002930714+1002778144+1002900937+1003291977+1003831966+1004335124
3444+1004638767+1004713366+1004744268+1004963947+1005246614+1005143985
3435+1004584955+1004128118+1004193978+1004547187+1004873303+1005337195
3427+1006176957+1007169601+1007839438+1007977588+1007768771+1007514757
3418+1007372550+1007326229+1007270607+1007137014+1007038505+1007207307
3410+1007682373+1008161871+1008220489+1007673758+1006879630+1006613256
3401+1007299885+1008488362+1009434748+1009919615+1010097406+1009975237
3393+1009545867+1009077855+1008864669+1008911301+1009072424+1009302279
3384+1009645375+1010061386+1010337561+1010222384+1009635824+1008752239
3376+1007966663+1007732127+1008223860+1009148647+1010066317+1010825174
3367+1011495448+1012051294+1012370855+1012423044+1012239198+1011850280
3359+1011380958+1011050534+1010964510+1011010581+1011005212+1010849396
3350+1010556490+1010274447+1010271701+1010718612+1011448253+1012082757
3342+1012432782+1012608763+1012737112+1012784806+1012708708+1012590472
3333+1012583792+1012794794+1013155931+1013411318+1013372989+1013145693
3325+1012928199+1012733990+1012515061+1012378346+1012458814+1012711954
3316+1012984009+1013155432+1013131897+1012867708+1012474608+1012142437
3308+1011926566+1011833862+1012065465+1012809402+1013787813+1014407147
3299+1014382238+1013887508+1013214175+1012597526+1012239822+1012212916
3291+1012397262+1012581795+1012581545+1012373977+1012206986+1012387461
3282+1012879756+1013255065+1013089322+1012366985+1011550446+1011198859
3274+1011402370+1011682977+1011585405+1011227701+1011125196+1011564929
3265+1012283583+1012773319+1012822511+1012638103+1012474546+1012359057
3257+1012260985+1012285955+1012494834+1012702091+1012675934+1012391831
3248+1011888361+1011113959+1010208462+1009673405+1009872545+1010590326
3240+1011377649+1012006284+1012334523+1012148305+1011472600+1010725729
3231+1010343553+1010464037+1010962762+1011515861+1011698272+1011318032
3223+1010629092+1010078428+1009932912+1010157522+1010486822+1010608866
3214+1010443374+1010198287+1010042033+1009866864+1009508286+1009025355
3206+1008623453+1008409205+1008307762+1008188090+1008025656+1007915286
3197+1007912851+1007948684+1007946749+1007923963+1007913850+1007875832
3189+1007753476+1007609895+1007631245+1007891751+1008169175+1008175605
3180+1007914412+1007622131+1007442155+1007331660+1007183585+1006924951
3172+1006637415+1006583166+1006883875+1007232465+1007191950+1006711952
3163+1006107788+1005636655+1005359419+1005323024+1005554502+1005864761
3155+1005924504+1005617178+1005150290+1004799952+1004682653+1004748513
3146+1004872617+1004966131+1005064204+1005213778+1005242306+1004806007
3138+1003795571+1002598355+1001816338+1001739491+1002148260+1002611839
3129+1002892884+1003048263+1003242223+1003545241+1003896016+1004172440
3121+1004268140+1004185051+1004086666+1004121750+1004167197+1003931849
3112+1003369261+1002777207+1002437108+1002315875+1002181284+1001919342
3104+1001674193+1001630744+1001720825+1001693483+1001478611+1001296138
3095+1001397206+1001807411+1002280167+1002456085+1002178100+1001656526
3087+1001212549+1000964278+1000895921+1001034258+1001377105+1001818710
3078+1002227791+1002437732+1002256757+1001696854+1001042249+1000523484
3070+1000137688+999888544+999929059+1000377157+1001142756+1001917594+1002319121
3060+1002215244+1001933575+1001965225+1002497037+1003362394+1004289490
3051+1004997969+1005187246+1004692329+1003721534+1002802677+1002333417
3043+1002244584+1002256820+1002320370+1002518949+1002718526+1002719276
3034+1002642553+1002787196+1003191532+1003606981+1003786457+1003673965
3026+1003486435+1003602549+1004073245+1004320079+1003734144+1002548539
3017+1001676003+1001661770+1002210437+1002804425+1003357400+1004058762
3009+1004911945+1005694712+1006205860+1006370354+1006178205+1005658255
3000+1004956955+1004393056+1004283060+1004647007+1005204663+1005702203
2992+1006104729+1006472983+1006834246+1007149812+1007281781+1007076585
2983+1006573552+1006048358+1005830989+1006117589+1006850477+1007698603
2975+1008278858+1008460020+1008400777+1008318561+1008286474+1008238843
2966+1008147887+1008153381+1008389728+1008722024+1008859425+1008731513
2958+1008521697+1008368752+1008267684+1008196580+1008129471+1008003869
2949+1007816652+1007629310+1007420493+1007139886+1006937811+1007058731
2941+1007465752+1007806976+1007808974+1007546532+1007286713+1007144630
2932+1006970211+1006623806+1006285392+1006314545+1006813395+1007496778
2924+1008002433+1008211999+1008242026+1008221863+1008185530+1008185655
2915+1008348214+1008707728+1009113688+1009422700+1009670595+1009962315
2907+1010290491+1010543631+1010664363+1010758253+1010994787+1011363603
2898+1011601698+1011451937+1010971003+1010505550+1010361907+1010574344
2890+1011013265+1011615244+1012367796+1013141136+1013693923+1013826767
2881+1013471747+1012752406+1012004536+1011559435+1011452498+1011481340
2873+1011525101+1011640652+1011888860+1012196810+1012382092+1012311550
2864+1012096990+1012047611+1012322724+1012733928+1012985382+1013001613
2856+1012937626+1012968527+1013126466+1013284093+1013282657+1013077274
2847+1012727186+1012310614+1011901033+1011537960+1011199858+1010917753
2839+1010877488+1011207662+1011721494+1012097552+1012257988+1012347695
2830+1012419361+1012372853+1012162663+1011894541+1011728549+1011757889
2822+1011922882+1012002414+1011785856+1011317907+1010897776+1010772174
2813+1010893968+1011020444+1010968069+1010742459+1010497060+1010387065
2805+1010426019+1010497685+1010469468+1010247666+1009821480+1009361147
2796+1009146649+1009294039+1009629019+1009856626+1009785023+1009437432
2788+1009028975+1008788384+1008750116+1008750241+1008603226+1008269619
2779+1007902926+1007735935+1007852672+1008091142+1008188090+1007987326
2771+1007542225+1007084951+1006853660+1006876321+1006965841+1006949922
2762+1006821198+1006648215+1006484282+1006413678+1006538032+1006856345
2754+1007270233+1007707967+1008135027+1008509524+1008830834+1009131043
2745+1009365704+1009452789+1009427881+1009427943+1009547678+1009790142
2737+1010092037+1010359285+1010523904+1010591574+1010650754+1010817745
2728+1011073070+1011196487+1011029996+1010731285+1010610489+1010810754
2720+1011251547+1011727238+1012015773+1012040494+1011930561+1011857397
2711+1011888922+1012031442+1012291199+1012628677+1012916900+1013035199
2703+1013022027+1013047372+1013201066+1013405263+1013537732+1013519504
2694+1013330851+1013078335+1012958351+1013044001+1013201877+1013277788
2686+1013262993+1013244702+1013253567+1013223602+1013122159+1013028706
2677+1012996432+1012958164+1012859967+1012745227+1012638603+1012514374
2669+1012388584+1012308429+1012308429+1012436903+1012675934+1012841676
2660+1012771634+1012571931+1012464433+1012472673+1012479353+1012477917
2652+1012534226+1012583418+1012498642+1012313548+1012156170+1011996608
2643+1011659567+1011090737+1010413034+1009745008+1009168873+1008822031
2635+1008745684+1008687565+1008367192+1007905860+1007662833+1007688241
2626+1007673383+1007426549+1007103803+1006982634+1007225785+1007832384
2618+1008625762+1009289294+1009580264+1009586132+1009659608+1009997336
2609+1010386316+1010502054+1010345177+1010225442+1010353667+1010593634
2601+1010676911+1010594196+1010606369+1010846025+1011182753+1011540208
2592+1011963834+1012299564+1012268663+1011947541+1011691093+1011518920
2584+1011079063+1010304974+1009626772+1009359337+1009283488+1009075795
2575+1008833518+1008847064+1009046705+1009072924+1008886643+1008938707
2567+1009533569+1010310842+1010667984+1010483451+1010044655+1009519960
2558+1008972355+1008654229+1008831957+1009468583+1010295110+1011010269
2550+1011409611+1011572045+1011818942+1012302748+1012813272+1013067223
2541+1013024399+1012936190+1013139763+1013690178+1014286101+1014716158
2533+1015086472+1015399479+1015356779+1014914737+1014557594+1014629572
2524+1014836704+1014811234+1014760481+1015108197+1015824167+1016527963
2516+1016975936+1017131004+1017036303+1016856514+1016829421+1017081562
2507+1017608005+1018286456+1018778440+1018697286+1018040433+1017232072
2499+1016695703+1016575220+1016753573+1016925496+1016795773+1016409228
2490+1016146787+1016287996+1016743647+1017259228+1017677673+1017958155
2482+1018094495+1018079263+1017911023+1017636409+1017339259+1017064832
2473+1016846963+1016801891+1017011082+1017324900+1017476659+1017363543
2465+1017069014+1016707003+1016319271+1015810932+1015039839+1014139774
2456+1013596101+1013737996+1014289535+1014678078+1014685382+1014582690
2448+1014688441+1015023921+1015479197+1016102901+1016948593+1017748777
2439+1018114159+1018042494+1017874878+1017806896+1017793412+1017810766
2431+1017844976+1017748028+1017429840+1017067453+1016897091+1016923061
2422+1016974001+1016953525+1016881360+1016723920+1016364406+1015866367
2414+1015550551+1015564160+1015584573+1015269694+1014807738+1014723836
2405+1015319760+1016457172+1017662690+1018385840+1018434470+1018183453
2397+1018142563+1018387962+1018569873+1018349570+1017733669+1017088429
2388+1016817997+1016931239+1017016950+1016708376+1016000147+1015072052
2380+1014029154+1012887060+1011632474+1010296983+1009111753+1008490047
2371+1008606910+1008988024+1008695680+1007123967+1004727225+1002800055
2363+1002298770+1003027787+1004093970+1004816121+1005051032+1005021878
2354+1005175947+1005950036+1007243015+1008319623+1008479684+1007620008
2346+1006260795+1005088363+1004373329+1004156459+1004686086+1006046797
2337+1007807475+1009332930+1010180745+1010318271+1010173067+1010299730
2329+1010906204+1011812512+1012682613+1013172412+1013174098+1013025085
2320+1013164858+1013629000+1014238532+1015047643+1016174504+1017371408
2312+1018216227+1018708772+1019218859+1019819465+1020186034+1020270809
2303+1020503660+1021072366+1021508852+1021334370+1020779398+1020547483
2295+1021029416+1021960820+1022789033+1023237692+1023445448+1023629794
2286+1023779992+1023701647+1023224396+1022371836+1021437873+1020836206
2278+1020742941+1020962682+1021252529+1021588820+1021904137+1021836342
2269+1021190227+1020422380+1020135343+1020331113+1020691314+1021175307
2261+1021716233+1021845269+1021287924+1020505158+1020149701+1020366946
2252+1020947887+1021776412+1022812068+1023792540+1024203681+1023720749
2244+1022650758+1021710427+1021325380+1021331873+1021310086+1021053076
2235+1020795004+1020954692+1021551302+1022118322+1022343370+1022417782
2227+1022654441+1023226518+1024238327+1025607529+1027006195+1028174383
2218+1028989674+1029187129+1028558931+1027537882+1027049707+1027559731
2210+1028539953+1029071889+1028782792+1027965129+1027084853+1026681203
2201+1027309963+1028871063+1030404446+1031119105+1031081525+1030681620
2193+1030240202+1030160920+1030602276+1031109991+1031222671+1031140018
2184+1031187962+1030998747+1029923887+1028109959+1026541430+1026088026
2176+1026838143+1027995094+1028209155+1026769224+1024675064+1023667562
2167+1024127770+1024948367+1025473998+1026387236+1028410418+1031056429
2159+1032962873+1033198408+1031978219+1030244260+1028994668+1028527343
2150+1028145729+1027314395+1026712915+1027073117+1027768985+1027825481
2142+1027316330+1026846071+1026802872+1027551678+1029190937+1031004365
2133+1032021481+1031948816+1031079901+1029800594+1028524908+1027705435
2125+1027571780+1027910569+1028290871+1028548193+1028889167+1029527790
2116+1030395457+1031128969+1031170482+1030182458+1028561365+1027193350
2108+1026581882+1026534500+1026686384+1026967803+1027486193+1028164582
2099+1028683596+1028889916+1029156790+1030031011+1031439915+1032599426
2091+1032901508+1032516149+1031882644+1031149008+1030561075+1030688737
2082+1031553219+1032210196+1031887264+1030967596+1030387716+1030648222
2074+1031597605+1032644373+1033092283+1032603546+1031451714+1030415059
2065+1030438344+1031957494+1034301361+1036088258+1036379790+1035330337
2057+1033789650+1032468018+1031557964+1030995189+1030818209+1031075344
2048+1031448405+1031340345+1030498461+1029116275+1027452607+1026164623
2040+1026687508+1029961343+1034860016+1038896328+1040259287+1038623899
2031+1034993109+1031547164+1030500833+1032319443+1035597211+1038516775
2023+1039982737+1040136931+1040176759+1040925128+1041694598+1041409870
2014+1040313973+1039365464+1038714792+1037957870+1037238529+1037048003
2006+1037356827+1037816349+1038373256+1039099277+1039974060+1041063466
1997+1042330225+1043253513+1043199702+1042124529+1040787852+1040360355
1989+1041400444+1043032960+1043640808+1042741678+1041577298+1041420733
1980+1041955790+1041799162+1040343313+1038663415+1038311392+1039606243
1972+1041499640+1042738370+1042967725+1042895185+1043311632+1044061063
1963+1044459469+1044253274+1043556345+1042530864+1041676182+1041634169
1955+1042286089+1042805728+1042879828+1043075348+1043709040+1044130669
1946+1043690624+1042827640+1042354883+1042019278+1040937614+1039272948
1938+1038052446+1037764972+1038071923+1038523455+1038900636+1039044529
1929+1038897202+1038706989+1038891084+1039573531+1040318093+1040540706
1921+1040219584+1039849145+1039780787+1039865625+1039703316+1039148656
1912+1038472889+1038056941+1038012618+1038186039+1038404095+1038526763
1904+1038481754+1038397603+1038512530+1038849196+1039092597+1038924608
1895+1038509908+1038329870+1038301091+1037607033+1035798661+1033667357
1887+1032426442+1032521455+1033724290+1035563251+1037457896+1038829594
1878+1039335561+1039145410+1038841830+1038871545+1039223131+1039638330
1870+1039852703+1039784283+1039745766+1040083931+1040656882+1041060469
1861+1041125580+1041026509+1040992736+1041081132+1041222716+1041366109
1853+1041524049+1041750282+1042146004+1042779384+1043480684+1043811856
1844+1043429306+1042621570+1042041190+1041861339+1041764453+1041467802
1836+1041070457+1040834672+1040781610+1040800587+1040925191+1041216161
1827+1041541403+1041719194+1041699467+1041582542+1041523674+1041592843
1819+1041758210+1041946489+1042111857+1042286651+1042477864+1042489600
1810+1042083515+1041382652+1040747462+1040341128+1040149728+1040175198
1802+1040413730+1040844036+1041462683+1042176219+1042753539+1042957299
1793+1042729068+1042457950+1042726633+1043433427+1043989335+1044086845
1785+1043855430+1043589493+1043460582+1043445850+1043392725+1043176604
1776+1042787062+1042259496+1041700841+1041348068+1041334959+1041577735
1768+1042023274+1042586236+1043025906+1043084400+1042665143+1042032762
1759+1041648090+1041660014+1041916212+1042214861+1042290459+1041803532
1751+1040677233+1039372143+1038372819+1037786010+1037657162+1037930777
1742+1038295098+1038390798+1038077230+1037490108+1036741801+1035693410
1734+1034491637+1033997468+1034378582+1034914077+1035208918+1035316728
1725+1035386209+1035572427+1035905161+1036105924+1035860900+1035136752
1717+1034129063+1033096903+1032116369+1030907979+1029208479+1027109137
1708+1024653776+1021504607+1017701894+1013984456+1010264022+1005111148
1700+997722968+989454697+980689138+970504373+960055169+950394225+939848136
1690+926852866+912704640+898489618+879943193+851637252+821783696+802589034
1680+792943322+789687840+793336859+805084222+821930461+837784055+850276292
1670+859920630+866078259+868413948+868161120+865790722+860772752+852777785
1660+841591824+827026776+809883325+790546892+765772796+734648984+712679712
1650+705926409+706619968+712630894+725091606+740719403+755385394+768182273
1640+778860207+787340790+794993722+804489485+816077536+826593723+835249038
1630+843315733+851466204+859372088+866571740+873515257+881305465+889938555
1621+898170993+905928801+914508704+923977936+932183593+938428806+943875147
1611+949353013+955027273+960663953+965980696+971026134+975928739+980501421
1601+984495970+987878240+990690493+993042475+995131580+997082659+998928049
1591+1000567870+1001701473+1002092451+1001596659+999825244+996734631+993696206
1581+992779847+994962528+1000058969+1007254064+1014318563+1019142824+1021767173
1571+1022613177+1021975303+1021095588+1021365708+1022992231+1025223980
1562+1026992524+1027601807+1026947702+1025890196+1025454147+1025106805
1554+1024244570+1022918193+1021424888+1019812286+1018119216+1016650569
1545+1015561101+1014755237+1014347279+1014539741+1014897008+1014715221
1537+1013381978+1008981906+997479816+975718237+946722171+914878145+880550104
1527+844723451+812525029+788096900+771541070+763611402+765582270+775979784
1517+792590675+811887404+829034788+841603934+849026138+849416678+836057898
1507+797972529+747348352+714145549+697379092+685846726+673972324+660085041
1497+646049995+637010133+635607284+640062728+648953516+662519926+680154799
1487+699582499+719373397+739641733+761248495+784486711+807753331+828665785
1477+845484493+856015101+857980038+854114650+854225831+863581197+878036312
1468+893573403+909183284+923885108+935394876+942780248+947420600+951530700
1458+957555111+965893049+973714970+979819723+984594230+987885981+988569676
1448+983918337+970103532+947081873+923293492+912124073+920087951+941021068
1438+964026308+981313528+990875463+995184205+996368624+994577981+989240387
1428+979970171+965526044+944388855+919144562+897134338+884114347+880718468
1418+882884669+885462510+887890778+892883340+902613889+916993655+933779402
1408+950416761+965750779+979316753+989926704+996835075+1001047743+1004226315
1398+1007520813+1011375589+1015710176+1020019292+1023666750+1026334111
1390+1028007455+1028786475+1028904274+1028738095+1028577097+1028438447
1381+1028225386+1027958762+1027648502+1027044775+1025844874+1024117844
1373+1022264962+1020481311+1018543217+1016139358+1013152123+1009451978
1364+1004612922+998390682+991381056+984226912+976516360+967129844+954968218
1354+939445485+920750172+899723666+877814261+857042891+839293341+825525480
1344+815628689+808503324+802291384+795120760+786279664+776666913+767618062
1334+759799762+753218569+747458785+741893396+736162453+730644696+726375158
1324+724507168+725821497+730540756+738372977+748518288+759751132+770992903
1315+781902190+792718274+803731314+815101684+826968033+839434987+852483819
1305+866032001+880059119+894540577+909190588+923347241+936189316+947049848
1295+955575066+961779203+966055483+969011380+971185321+972962043+974664415
1285+976458491+978046934+978574002+976822375+971387022+960953986+945158199
1275+925391460+904148584+883288069+863440238+845268185+830467664+820916092
1265+817142907+817823356+820407128+822056937+820477046+814567688+804698739
1255+792456707+779853726+768218106+757582559+747159200+736348421+725320586
1245+714949353+706439056+700831779+698540351+699236968+702142986+706339735
1235+710938760+715273472+719090043+722530245+725921879+729553355+733533297
1225+737800837+742254534+746820036+751397712+755864892+760179253+764421948
1215+768733874+773216661+777821367+782341236+786613895+790696091+794746887
1205+798829895+802921143+806988669+810964677+814725377+818159274+821247514
1196+824084239+826799731+829429136+831900666+834167997+836273208+838182024
1186+839517078+839662844+838581304+837555386+838499213+842191368+847607932
1176+853140359+857922606+861873956+865141174+867912538+870445682+872926887
1166+875322880+877422222+878923330+879506644+879094005+878179206+877695400
1156+878354437+880203886+882853143+885883452+888898467+891385540+892875724
1146+893382191+893589259+894459860+896589104+899888909+903821156+907902853
1136+912010956+916236421+920581496+924914834+929136304+933225179+937130147
1126+940597629+942890992+942599897+938223984+929608997+918637533+907575863
1116+896464064+882825301+864334561+841665862+819051411+802306117+795449872
1106+798249016+806941849+817457037+827846374+838141010+848860270+859936798
1096+870616293+880048007+887904761+894489200+900380206+906032304+911583709
1086+916910316+921814482+926184902+930042175+933503227+936724249+939859372
1077+943015533+946223259+949451897+952591265+955352266+957307340+958250480
1067+958597447+959301618+961184153+964280572+967867476+971069895+973411639
1057+974986598+976296557+977900170+980118309+982937367+986034847+988933998
1047+991299526+992987915+993796338+993507928+992384375+991383240+991678830
1037+993848027+997339294+1000679925+1002403647+1002081588+1000708704+1000003908
1027+1001001047+1003195715+1005042729+1005025749+1002172669+995773949+984754354
1017+967721835+944332608+916427759+886963244+857944830+830095040+804090205
1007+781090395+761974952+746748683+735080476+726887804+721530359+716574566
997+708476907+695135794+677851509+661122758+650364667+648744574+655598633
987+667971074+683274440+700235356+718324569+737267715+756806784+776430317
977+795446002+813419226+830403927+846697378+862400399+877277080+891041445
967+903617396+915056310+925410438+934796455+943454205+951668975+959642592
958+967393596+974730275+981363094+987107147+991960936+995895056+998593256
948+999567360+998457166+994884433+987881424+975844901+957694073+934381881
938+908879017+884085506+860795912+837995743+814968279+792886139+774638613
928+763346838+760663496+765908885+776599243+789894285+803694233+816584564
918+827460703+836143548+844177968+853786224+865637402+878322912+890020584
908+899926052+908183648+915281920+921745688+927998393+934207336+940182867
898+945546368+950173173+954401260+958624790+962804184+966564634+969690206
888+972379354+975033106+977849729+980676465+983304685+985808488+988402248
878+991051443+993532336+995844178+998175310+1000462806+1002428368+1004091099
868+1005821750+1007867842+1010173566+1012578673+1014873285+1016835227
860+1018509631+1020248960+1022275949+1024428728+1026440236+1028220267
851+1029833680+1031440477+1033235365+1035210353+1037064671+1038564219
843+1039846585+1041127702+1042201064+1042517005+1041892740+1041056162
834+1041205611+1042836067+1045156462+1046835923+1047161602+1046148045
826+1043229167+1036092440+1022460669+1004589762+990278915+986060442+989847048
816+993613616+993125128+991678081+994329711+1001955300+1011850468+1021574712
806+1030579116+1039002329+1046415105+1052213907+1056497990+1059804849
798+1062308153+1063845843+1064547767+1065003606+1065719638+1066515327
789+1066671518+1065743485+1063901028+1061366386+1057846278+1052538525
781+1044281241+1031328172+1011183690+982251549+947539397+915828339+896188139
771+890359997+891314998+888739966+875600116+851437550+820987882+789623291
761+761087934+739863223+731744339+738469176+753767049+767200116+770095084
751+757240336+727749603+688083531+651697536+631658368+632627041+650053908
741+675601157+702315908+726550701+747582889+766084803+782577957+797021460
731+809306941+819600890+828315884+836010392+843154735+849851978+855957107
721+861539350+867013159+872711952+878503512+883858211+888160960+891072097
711+892628016+892844698+891575879+889323092+887711676+888104214+889930065
701+891583432+892913242+895545957+900562928+907072830+913486033+919107917
691+924079941+928675783+932818533+935548882+934792086+927383866+909604164
681+881048392+850460949+833591738+839977598+863879471+891274796+912448816
671+926024840+934917937+942378158+949465194+954893930+958554061+960789867
662+959327463+948958353+926778516+898972300+879741243+880309949+899358970
652+925574433+948112723+963203339+972778134+979960932+986237671+991496982
642+995443775+998299477+1000406747+1001887816+1002808483+1003327622+1003462026
632+1002694867+1000075449+994991619+988058528+981516539+978367807+980146713
622+985623643+992236174+998209145+1002847187+1005665496+1005967953+1003065868
612+997193091+990633685+987086047+989103111+996402147+1006556947+1016799956
602+1025345899+1031707912+1036249630+1039497246+1041632608+1042477364
594+1041680677+1037865354+1027097400+1004569973+970694586+935249110+912926941
584+912097292+928616415+951693072+973397218+991575077+1006414552+1017713318
574+1025704165+1031880272+1037699175+1043369439+1048303633+1052285947
565+1055709168+1058826375+1061379371+1063086861+1064067707+1064710076
557+1065461567+1066666899+1068308966+1070005595+1071427796+1072575071
548+1073490868+1073741823+1072574696+1070042801+1067401035+1065537852
540+1063601880+1060039323+1054262246+1046073695+1033976056+1015682084+990873778
530+962430499+933932535+906703077+879993696+853232500+827376802+805041648
520+790281080+786853176+794868432+809762717+825958658+840626647+853726419
510+866148676+878288203+889814327+900672487+911815374+923935486+935783606
500+945206205+951462468+954833252+955180967+952509486+948323225+944935399
490+942688980+938944761+931030637+919583170+908500650+901779621+900787788
480+904695253+912225516+921934091+931846552+940507297+948401383+957003198
470+965933002+972791619+975776419+974626834+968798068+956028220+934125495
460+904042334+872062217+850313498+848710884+865055712+891005550+919494462
450+944547168+962386426+972979523+978493409+981395619+984233279+989422610
441+997462524+1006606638+1015318262+1023364481+1030422363+1035617312+1039183428
431+1042824206+1047622809+1052482091+1055395163+1056123556+1056878168
422+1059046741+1060289778+1057497814+1053304998+1052057840+1051751700
414+1049702737+1047170779+1046276706+1044571088+1035871825+1016920439+990655909
404+962725527+936585163+911456047+883224644+850090448+821322738+809164109
394+813717688+826984139+841129243+852212076+860054160+865807203+870198036
384+873730941+877941361+885089637+895781929+907676120+917398304+925046741
374+935020379
##END=
