##TITLE=LSH-R89A
##JCAMP-DX=4.24
##DATA TYPE=INFRARED SPECTRUM
##DATE=15/7/2019
##SAMPLING PROCEDURE=Diamant-ATR
##ORIGIN=Angelika Moesle
##XUNITS=1/CM
##YUNITS=TRANSMITTANCE
##RESOLUTION=4
##FIRSTX=3997.453
##LASTX=373.96442
##DELTAX=-1.4165319
##MAXY=0.95268667
##MINY=0.39740655
##XFACTOR=1
##YFACTOR=8.872586e-010
##NPOINTS=2559
##FIRSTY=0.88079709
##XYDATA=(X++(Y..Y))
3997+992717442+992872960+992810820+992458872+991832231+991162798+990801110
3988+990852703+991056388+991134449+991087558+991068816+991179055+991461272
3978+991886646+992290926+992482048+992431463+992251290+992039813+991861320
3968+991796627+991906934+992185859+992552183+992805714+992694063+992243363
3958+991925273+992174774+992773267+993043794+992712067+992227173+992153277
3948+992524102+992991127+993321241+993453717+993400982+993330781+993426174
3938+993581826+993510214+993172105+992949879+993295512+994118112+994723255
3928+994644052+994147872+993823467+993864715+993876068+993508602+992969764
3918+992835877+993443775+994468783+995277141+995485663+995055923+994184686
3908+993186280+992330292+991730322+991362923+991294602+991848018+993078324
3898+994245146+994535492+994005655+993328900+993143084+993489187+993699120
3888+993490598+993550924+994477517+995500174+995586162+995215539+995243821
3878+995318859+994832622+994000617+993211875+992650330+992695541+993549850
3869+994305607+994123083+993606951+993741577+994512113+995058946+994916998
3859+994157882+993007048+992095907+992833392+995804895+998277532+998749393
3849+998320862+997644778+996724770+995668187+994842430+994444330+994434791
3839+994844580+995519521+995866767+995570577+995043495+994981825+995573734
3829+996276757+996486689+996015097+995061633+994192949+994306816+995670337
3819+997118234+998015536+998747915+999209969+998935545+998001026+996795643
3809+995906603+996080058+997103387+997605949+997337706+997486103+998409538
3799+998962147+998918884+999015017+999357560+999528126+999447982+999222598
3789+998811802+998274912+997839932+997498061+996974337+996391497+996520413
3779+997917456+999777962+1000609161+1000004018+998727762+997792302+997688646
3769+997985507+997992763+997899989+998230776+998682685+998606908+998111937
3759+997892465+998185565+998450449+998208069+997409318+996442351+996310950
3750+997497187+998908606+999964114+1001123278+1002178718+1001959045+1000427040
3740+998513463+996930336+996090874+996215960+997286314+998873203+1000212540
3730+1000811637+1000790476+1000575572+1000429593+1000342799+1000345083
3721+1000547155+1000883115+1001100168+1000885130+1000046206+998870046+998325968
3711+999334921+1001134295+1002016818+1001588287+1000474804+999458395+999147627
3701+999582876+1000155304+1000365303+1000184929+999819747+999636149+999906542
3691+1000420188+1000748556+1001110514+1001933382+1002651251+1002577086
3683+1001823277+1000986502+1000427914+1000100755+1000208442+1001363978
3674+1002992450+1003492661+1003002594+1002829744+1003435089+1003838966
3666+1003425819+1002575004+1001876415+1001630408+1001699669+1001818910
3657+1001993507+1002272029+1002272029+1001611195+1000473125+999463299+999257061
3648+999952895+1001012500+1001970599+1002518910+1002605637+1002617662
3639+1002972969+1003453832+1003415473+1002581453+1001292702+1000157185
3631+999882761+1001108230+1003130637+1004233841+1004159609+1003453698
3622+1002470676+1001533738+1000939545+1000594718+1000309008+1000338163
3614+1000997788+1002084735+1003063660+1003557757+1003397604+1002752220
3605+1002209083+1002264975+1002916337+1003684254+1004034590+1003896269
3597+1003594571+1003488362+1003757747+1004257017+1004711748+1005152304
3588+1005805279+1006313013+1005917601+1004828236+1003918841+1003643477
3580+1003800002+1004012421+1004188495+1004448409+1004807477+1005027823
3571+1004820040+1004241432+1003880617+1004370750+1005386287+1006069290
3563+1006220038+1006068081+1005787678+1005485778+1005220894+1004884531
3554+1004272065+1003402642+1002678257+1002581453+1003270502+1004463658
3546+1005587553+1006233810+1006428829+1006293666+1005885423+1005422294
3537+1005237016+1005351085+1005399655+1005137727+1004726259+1004436720
3529+1004321441+1004351806+1004723706+1005593196+1006502121+1006615048
3520+1005758523+1004735932+1004348850+1004468226+1004430472+1004122459
3512+1004066768+1004478639+1004859138+1004754675+1004419724+1004439743
3503+1004998802+1005650365+1005935874+1005992707+1006206468+1006537053
3495+1006573733+1006186516+1005743878+1005735413+1006354798+1007291669
3486+1007939874+1008000939+1007716102+1007365968+1006888867+1006230921
3478+1005713110+1005724060+1006251276+1006909961+1007343195+1007420651
3469+1007156237+1006649913+1006088234+1005633100+1005332813+1005204838
3461+1005316824+1005696114+1006228436+1006727907+1007086372+1007318406
3452+1007501064+1007732023+1008080881+1008462589+1008643702+1008537762
3444+1008337973+1008237541+1008253059+1008375996+1008650285+1009032464
3435+1009365803+1009553298+1009678451+1009910822+1010277616+1010532424
3427+1010346541+1009701964+1009014258+1008756965+1008969920+1009242463
3418+1009232588+1009049661+1009055775+1009414104+1009848682+1009901081
3410+1009524411+1009202828+1009255496+1009397914+1009361235+1009450448
3401+1009991772+1010684247+1011009189+1010961291+1010951013+1011166319
3393+1011387874+1011419649+1011397346+1011524246+1011710330+1011704284
3384+1011477356+1011275283+1011309813+1011527672+1011706434+1011721818
3376+1011637509+1011514908+1011285427+1010924477+1010616800+1010667721
3367+1011289122+1012388228+1013468928+1013933802+1013669858+1013210828
3359+1013145396+1013446960+1013532075+1012922297+1011699783+1010354267
3350+1009409939+1009189930+1009625649+1010251349+1010587510+1010441128
3342+1009732597+1008429336+1006897533+1005854386+1005670384+1006033887
3333+1006373608+1006281977+1005638676+1004692334+1003932008+1003729331
3325+1004209455+1005359147+1007009183+1008797406+1010285745+1011126415
3316+1011300475+1011230072+1011338565+1011505436+1011273066+1010465380
3308+1009355793+1008467493+1008337973+1009142569+1010456646+1011622595
3299+1012292297+1012436059+1012081760+1011384179+1010796435+1010828681
3291+1011557701+1012538036+1013235886+1013431173+1013250463+1012996663
3282+1012881788+1012833621+1012656606+1012327566+1011913478+1011333728
3274+1010505754+1009682885+1009398519+1010000639+1011271991+1012575857
3265+1013423985+1013782920+1013815031+1013612757+1013270550+1012967373
3257+1012891730+1013151106+1013671874+1014145616+1014218303+1013781777
3248+1013111538+1012752066+1013079158+1013805962+1014206614+1014008572
3240+1013649906+1013478870+1013229705+1012587143+1011793632+1011340849
3231+1011404736+1011833065+1012386145+1012830867+1013027632+1013005867
3223+1012841078+1012520771+1012031040+1011485551+1011079861+1010940331
3214+1011007980+1011097730+1011095916+1011014429+1010870398+1010695264
3206+1010621704+1010728921+1010837414+1010669871+1010182021+1009590448
3197+1009111533+1008749844+1008290411+1007480172+1006298839+1005042065
3189+1003958006+1002834850+1001246349+999225621+997342274+996074885+995445356
3179+995235021+995161796+994821940+993838448+992241617+990584190+989531975
3169+989309345+989609364+990032723+990453058+990919276+991435543+992014822
3159+992763056+993674398+994460924+994869167+995113092+995703926+996807063
3149+997958569+998497071+998236083+997638732+997284164+997260182+997226660
3139+996951094+996545000+996228187+995979694+995443408+994291365+992677470
3129+991088499+989782214+988640449+987426065+985916095+983956433+981655840
3119+979458568+977920249+977341171+977476065+977626343+977152870+975902746
3109+974227182+972745158+971947616+971828912+972019698+972325696+972879381
3099+973741549+974718525+975658889+976625721+977655835+978594318+979294451
3089+979758117+979941514+979668904+978925104+978044999+977446104+977270096
3080+977337678+977327802+976952611+976036566+974496769+972250456+969142916
3070+965091250+960414422+955933083+952591225+950957781+951024086+952286973
3060+953995052+955513487+956531105+956919598+956561672+955461961+953916588
3050+952408432+951302205+950670862+950418002+950456630+950722522+951156428
3040+951732550+952363221+952759238+952584708+951796235+950677042+949507802
3030+948323580+947041614+945705838+944447317+943242942+941868606+940099260
3020+937875049+935335436+932756926+930373032+928290164+926694408+925949265
3010+926219725+927165799+928294867+929531488+931220824+933582952+936290646
3000+938686296+940388060+941529153+942359344+942842223+942789421+942161772
2990+941023703+939344981+937032430+934148460+931028693+928124771+925682298
2980+923567117+921419624+918939262+916069802+913029978+910137006+907501798
2970+904946263+902282167+899567420+897038823+894939430+893499192+892916687
2961+893211802+894201408+895712587+897689178+900065951+902724739+905586003
2951+908561067+911487293+914284804+917015540+919662639+922101418+924393546
2941+926786711+929279434+931453664+932913855+933695140+934057635+934008191
2931+933306378+931912023+930129241+928270616+926442422+924652922+922928721
2921+921327254+919908177+918612775+917184964+915377260+913234268+911005556
2911+908777919+906354994+903541159+900365500+896937384+893313242+889660549
2901+886321780+883528367+881210845+879183870+877425743+876213777+876012309
2891+877090926+879268582+882163099+885516580+889117680+892683444+896064266
2881+899340021+902511582+905243057+907081529+907915079+908108822+908073755
2871+907726577+906557336+904297588+901307677+898147939+894971877+891550345
2861+887759869+883834364+880147142+876853988+873758741+870551575+867179016
2851+863873233+860840462+858107240+855661542+853535278+851723139+850157613
2842+848787576+847653806+846880380+846528097+846469786+846529239+846699603
2832+847076676+847672011+848452356+849469840+850796950+852364089+853934250
2822+855276207+856377060+857435255+858603488+859829964+860991009+862039665
2812+862985671+863848377+864626572+865226274+865494853+865430093+865243539
2802+865089162+864869153+864456207+863959356+863596726+863440201+863453838
2792+863631256+863927244+864202541+864370891+864466486+864496313+864376534
2782+864065901+863655440+863306381+863179683+863404663+864049039+865108174
2772+866525572+868181655+869846605+871229406+872150825+872595815+872536094
2762+871869348+870692986+869456298+868610723+868199323+867976223+867844688
2752+867988920+868575455+869507421+870569982+871709597+873029452+874561255
2742+876169171+877663756+878932891+879959244+880738581+881199290+881241814
2732+880854531+880116307+879124686+878015771+877009842+876309103+875939219
2723+875760658+875612396+875383586+874999124+874479364+874020603+873858300
2713+874044787+874512483+875302569+876475706+877837010+879028218+879886288
2703+880482093+880888456+881130903+881289242+881438311+881568100+881702591
2693+882002879+882624682+883555977+884683231+885939334+887284783+888617402
2683+889825337+890938484+892134596+893551591+895137069+896702192+898077805
2673+899202775+900140720+901064155+902124097+903255852+904200649+904803576
2663+905188374+905583719+906109121+906791721+907634072+908568725+909473821
2653+910318522+911218579+912309893+913624978+915075091+916494572+917762094
2643+918924416+920076862+921106371+921800123+922252368+922848980+923791225
2633+924942193+926122115+927223572+928103274+928683830+929112832+929629837
2623+930338233+931162513+931966907+932747722+933677875+934807951+935835176
2614+936424264+936661672+936955981+937589138+938502093+939364798+939772034
2604+939566334+939062428+938783906+938888570+939003513+938703695+937985356
2594+937192180+936644475+936428698+936462488+936693784+937191038+937998792
2584+938978858+939880997+940509317+940840843+941096726+941602713+942443116
2574+943422309+944397874+945386539+946396231+947472429+948730413+950042878
2564+950974508+951313961+951387656+951676120+952388077+953398239+954376827
2554+955060838+955492863+955857843+956198303+956563082+957191805+958151181
2544+959004212+959259289+959025172+958869117+959068435+959335335+959392571
2534+959541506+960304720+961607242+962737923+963181636+963096790+962930725
2524+962973988+963374506+964174198+965183957+966064867+966595376+966755126
2514+966692784+966777362+967439137+968707600+970041629+970794834+970804508
2504+970467877+970321360+970616139+971284296+972164804+973088507+973810877
2495+974126952+974103977+974022758+974049562+974114255+974168737+974367921
2485+974818889+975352219+975808965+976354185+977160125+978026055+978666870
2475+979125632+979597292+980119335+980657770+981212463+981693796+981939871
2465+981955523+981961704+982160216+982547298+982956616+983194294+983176156
2455+983078948+983311251+984123976+985228188+986010078+986204224+986197439
2445+986578273+987511986+988675315+989657665+990248701+990474085+990565649
2435+990780419+991107645+991349689+991509506+991757865+991975859+991735091
2425+990866138+989820103+989312906+989636706+990391052+990932779+990977856
2415+990694565+990423164+990475093+990982962+991764045+992437509+992729534
2405+992614457+992287970+992079985+992213536+992561588+992795637+992769706
2395+992576837+992300129+991944957+991566205+991272165+991123163+991123969
2385+991240927+991409679+991612692+991942202+992510398+993349322+994415108
2376+995568360+996578321+997383992+998320862+999777761+1001617980+1003237182
2366+1004168342+1004386269+1004159071+1003940943+1004238678+1005131009
2357+1005997342+1006126459+1005472880+1004510414+1003629101+1002976865
2349+1002634054+1002661328+1002987009+1003380272+1003743774+1004317344
2340+1005204300+1005950653+1006019108+1005515605+1005054358+1005039310
2332+1005371978+1005687649+1005642908+1005122611+1004356307+1003846490
2323+1004104791+1005273158+1006879596+1008188702+1008935727+1009494584
2315+1010230860+1010953162+1011209448+1010962097+1010644276+1010593355
2306+1010750015+1010952155+1011215897+1011571876+1011882374+1012034332
2298+1012172988+1012528900+1013082786+1013584743+1013855069+1013867833
2289+1013587565+1013064513+1012717671+1013049667+1013966451+1014889012
2281+1015643493+1016624030+1017896994+1018822914+1018917233+1018581610
2272+1018546274+1018920525+1019316676+1019751052+1020774314+1022597402
2264+1024599991+1025913598+1026168070+1025584961+1024719703+1024296479
2255+1024936354+1026614538+1028487003+1029594439+1029672635+1029125735
2247+1028418145+1027660305+1026683799+1025564338+1024925807+1025209837
2238+1025832312+1025943560+1025841180+1026588473+1028371389+1030215638
2230+1031268056+1031568343+1031587758+1031706395+1032268007+1033450884
2221+1034632486+1034501690+1032488889+1029689631+1027793184+1027448424
2213+1028005669+1028427751+1028157157+1027368616+1026688099+1026746477
2204+1027842493+1029664036+1031231846+1031541405+1030619045+1029727923
2196+1030053671+1031345983+1032360511+1032365550+1031598909+1030764486
2187+1030785177+1032232738+1034277381+1035226075+1034608167+1033451019
2179+1032323563+1030836501+1029144881+1028281034+1028727367+1030012491
2170+1031849552+1034259511+1036326054+1036455977+1034695499+1033441614
2162+1034921488+1038859219+1042898792+1044838368+1044341517+1042619733
2153+1040958478+1039915465+1039577020+1039764784+1039787020+1038933115
2145+1037592569+1036951351+1037313913+1037718663+1037425429+1036882762
2136+1036975670+1037973001+1039447232+1040844006+1041894005+1042599244
2128+1042961470+1042857209+1042303524+1041683064+1041357518+1041133679
2119+1040628900+1040134064+1040388536+1041379418+1042117574+1041810300
2111+1040694265+1039651253+1039376358+1039760350+1039917548+1039110936
2102+1037617224+1036406803+1036279029+1037487637+1039674899+1041928467
2094+1043304080+1043515826+1043022199+1042462469+1042064369+1041646116
2085+1041086856+1040506434+1040053248+1039865888+1040115724+1040831175
2077+1041843419+1042952132+1043983254+1044902994+1045869624+1046807570
2068+1047304959+1047446571+1047997233+1049176080+1050178248+1050506146
2060+1050712383+1051218573+1051296164+1049967240+1047431053+1044936516
2051+1043581527+1043823168+1045520767+1047809738+1049588824+1050508094
2043+1051077498+1052030626+1053643849+1055096247+1054961755+1053177295
2034+1051722344+1052357315+1054603963+1056680516+1057517895+1057425256
2026+1057171859+1056875132+1056296725+1055809010+1055970776+1056503232
2017+1056732982+1056667617+1056694086+1056554287+1055541237+1053794933
2009+1052707247+1053435260+1055369797+1056776850+1056579681+1055181295
2000+1054015346+1054205931+1055424749+1056592243+1057390726+1058146215
1992+1058762644+1058834324+1058149708+1056454863+1053908196+1051875847
1983+1051820626+1053452458+1055108003+1055661083+1054997830+1053331402
1975+1051566826+1051454907+1053576872+1056075507+1056823270+1055899768
1966+1054729721+1053814482+1052784166+1051613918+1050386770+1048556963
1958+1045404078+1041096597+1036888203+1034138724+1033153284+1033233361
1949+1033905279+1035567140+1038628931+1042658092+1046743280+1050148488
1941+1052508332+1053848407+1054439376+1054570575+1054535508+1054610211
1932+1054764654+1054577360+1053731651+1052490261+1051561250+1051589600
1924+1052635433+1054019040+1055099673+1055984883+1056916514+1057544430
1915+1057522127+1057224191+1057276792+1057837933+1058468671+1058608470
1907+1058184641+1057671196+1057530995+1057736225+1057880860+1057657693
1898+1057074652+1056353088+1055826409+1055711534+1055828559+1055863827
1890+1055916227+1056360209+1057142703+1057781570+1057985524+1057951666
1881+1058119881+1058646157+1059171962+1059242836+1058855283+1058429238
1873+1058406666+1059011876+1060108564+1061084801+1061290031+1060621068
1864+1059233498+1057215390+1054777485+1052467353+1051021807+1050894639
1856+1051968150+1053787611+1055787714+1057302319+1057903365+1057844181
1847+1057851503+1058426886+1059274275+1059454246+1058628489+1057313672
1839+1055819624+1053901613+1051406740+1048843681+1047040343+1046578760
1830+1047400285+1048657530+1049732519+1050933468+1052538361+1054159779
1822+1055276419+1055663770+1055412791+1055001995+1054910162+1055102226
1813+1055240747+1055087043+1054629894+1054091929+1053659905+1053290759
1805+1052963331+1052768917+1052657871+1052467487+1052199916+1051931135
1796+1051716500+1051728793+1052190712+1053086335+1054024683+1054658646
1788+1055099203+1055680833+1056423088+1056988193+1057345448+1057812405
1779+1058438105+1059067433+1059708315+1060456011+1061445684+1062623053
1771+1063349991+1063309213+1063091018+1063216843+1063745672+1064766918
1762+1066342387+1068061214+1069534169+1070751845+1071572295+1071896431
1754+1071996997+1072113015+1072358821+1072858494+1073429107+1073741823
1745+1073730403+1073423599+1072897793+1072225270+1071168620+1069580791
1737+1067795927+1065914393+1063669021+1061610741+1060560473+1060414629
1728+1060897642+1061730386+1062473514+1062850183+1062808533+1062227506
1720+1061059811+1059592768+1058175572+1057018423+1056224038+1055370335
1711+1053861507+1051551375+1048324862+1043725893+1037996580+1032173822
1703+1025649789+1015479242+999504613+979387292+955036318+925019582+894938422
1693+870052440+847924132+825175498+802682075+781645820+757488992+723688431
1683+686601635+656737864+632241785+609771741+588518768+568249489+549844042
1673+535076878+524186011+516479334+511616892+508674476+506788945+506851489
1663+510696077+517976473+525806556+532569913+538230435+543905972+554808561
1653+576835564+596756792+604576093+609047221+618169650+632146258+644197935
1643+652739807+660652352+669251595+678696412+691147667+710502446+733024554
1633+749546418+760806666+771946866+785583753+800783680+815256804+828863258
1623+842219003+852814453+857416781+855023146+843054367+817496465+782158257
1613+745389417+711391351+684641637+671052783+671973665+682428309+696626942
1604+711158309+723931214+733903852+742103719+750990687+762335715+775832601
1594+789629775+802269129+813599982+823866996+833031277+841082008+848198488
1584+854506879+859898621+864062609+867013422+869721451+873414922+876963018
1574+877892297+876083384+871789607+864044202+852436373+837621983+820084851
1564+801575579+784827727+771511751+765351758+773646951+790613335+808103442
1554+825916006+842710884+857158144+869589177+879824685+887559006+893970919
1544+900362409+906880128+914135668+922241888+927760328+930141468+932110804
1534+935875550+941432685+946406308+949778799+952601368+955508247+957799434
1524+958984395+959792887+960897704+962011791+962746790+962867644+961713317
1514+958388522+952083423+942101648+926704552+898281826+844940401+786175863
1504+755049004+744582805+743622960+750698327+768302369+796862139+828362443
1494+852128964+865819862+870470088+862968071+840617603+812998265+794546364
1485+791581578+803319263+824529376+847515888+866703124+881151258+892350709
1475+902180862+912259710+922235439+930247878+936398400+942458231+950060344
1465+959077504+967090346+972537375+976246767+979990554+985328620+990975639
1455+994025943+994796077+994449369+993126558+990050458+983692287+972102261
1445+953024525+924353307+887372653+849110301+818419161+802558131+805736612
1435+822258610+841921067+862166094+883957234+905297539+922701389+935943401
1425+947078226+956967093+965086212+971884132+978908847+985989118+991312875
1415+994914378+997940028+1000897424+1003771183+1006398733+1008694892+1010895792
1405+1013202834+1015259300+1016738300+1017932263+1019169421+1020315351
1397+1021081655+1021409150+1021361588+1020979141+1020351761+1019755217
1388+1019599967+1020075792+1020966242+1022002537+1022914619+1023092037
1380+1021493056+1016690402+1006267668+985573754+949301564+897886078+839005926
1370+782669015+740301255+720882387+724054889+743470801+772178296+801796193
1360+825477398+841858859+852207630+858382269+864018808+873756994+889806259
1350+910228100+930735124+947977544+961072636+970663769+977738330+983186299
1340+987508829+990774440+993110637+994933793+996503215+997469644+996749626
1330+992765071+983943400+969281035+949132879+926099005+904670361+888471625
1320+876428345+861290356+833986017+792037249+743915320+705354428+689793685
1310+699774990+727674598+763124927+798726004+831454465+861027689+887633708
1300+911071122+931155392+948049626+962062779+973384563+982140264+988708904
1290+993914293+998631831+1002915666+1005540999+1004653034+999190823+990285784
1281+981602702+977516171+979978664+987215864+995693110+1002915061+1008260516
1271+1011998257+1014148505+1013983850+1009844785+998802599+976815768+941337359
1261+896416281+854882272+831852430+834208176+856781407+887650839+916308890
1251+938126162+953420072+964184745+971924507+977443954+981434286+984588851
1241+987007275+987438627+983102394+970735448+948924357+920264625+890795595
1231+865822415+845501744+825366150+802097421+778208098+760225841+753002077
1221+756938666+769934402+790082424+816072148+846092041+877281175+906425062
1211+931142494+950533079+964956222+975364849+982765427+987978406+991516425
1201+993482268+993554552+990950178+984238045+971214901+949204760+915995369
1191+871284223+817709018+760334335+704894659+656375773+618725148+594813589
1181+585760287+590283814+605278914+627367721+653907637+682778241+711855823
1171+739071285+762808919+782050772+796052974+803805433+803835596+794565980
1162+775104118+746760394+714515887+685603968+664751311+650903686+639145512
1152+625099172+607544440+588398518+570703785+555746776+542005091+527255460
1142+511277305+496368092+485948045+482456144+485047518+488549967+486012906
1132+474413541+458500246+447903856+449634406+463652362+485198166+509662604
1122+534756269+559683130+583864847+606570755+627190840+645613586+662433118
1112+678802017+695849754+714023671+732946560+751827126+769927482+786806938
1102+802371711+816779067+830258689+842957496+854867695+865867425+875837779
1092+884745438+892666179+899784876+906328795+912415699+917896317+922321629
1082+925150916+926156443+925730465+924804141+924346790+924728901+925383689
1072+924928085+921417609+912455535+895373268+867919726+829604438+783034062
1062+733733286+687726672+648617671+616853221+591503707+572235521+559606143
1052+554032986+554840404+560319343+568588202+578268346+588537981+599017279
1043+609725791+620862699+632459846+644246505+655741608+666371051+675576780
1033+682953107+688361508+692048127+694557040+695848008+694249161+687741989
1023+677745703+670372198+671650805+681893770+696346404+710433386+722598192
1013+733065331+742161694+750077531+757076248+763478823+769614028+775767371
1003+782050637+788299239+794048437+798460448+800482653+799945629+798693893
993+799246033+801750243+804019867+805274558+807626811+812886211+820013238
983+826748078+832098975+836428155+840231260+843552293+846174335+847856685
973+848208767+846103260+838623412+821313410+792974590+762285599+745554676
963+752950014+778490247+806793261+827242713+838834352+845018328+848702864
953+851369714+853623013+855556341+857061877+857993642+858230580+857764832
943+856614536+854597705+851327996+846511033+840161663+832443667+823452304
933+813359013+802552219+791382528+780229497+770340563+763961634+762377432
924+763588324+762854534+756224224+743296204+726496288+708526997+691041794
914+674957664+660975010+649628841+641139032+635412137+632302649+631840999
904+634050027+638624408+645005554+652747734+661675144+671663099+682333856
894+693087847+703490495+713538105+723527471+733757336+744242748+754558870
884+764109763+772682806+780630955+788457176+796185786+803008562+807736648
874+810025753+811089927+812899109+816739566+822599810+829583008+836622166
864+842952256+848307183+852942697+857330053+861596891+865492636+869101932
854+873034692+877396991+880781105+880274310+872293512+854652321+829742288
844+805339654+789917702+786354760+791133430+799062837+807189547+814860384
834+822438245+830675867+840180809+850917603+862398263+874085967+885395188
824+895730658+904841800+912984767+920613416+927921489+934730964+940871073
815+946548256+952216570+958123503+964027278+969427014+973564399+973751693
805+964463266+942792242+916663525+902146064+908604867+930040902+953419669
795+971060390+982698651+990626580+996679088+1001912221+1006705873+1011034247
785+1014763523+1017597378+1019044670+1018633740+1015938272+1010263576
776+1000066762+981752644+948564751+892785891+812254801+715088180+616759574
766+533323118+477202656+454761498+463863940+495437738+540101724+592609195
756+649843476+707283390+758752148+797441015+814595701+799128470+745636096
747+666788968+592659176+551276823+549979540+576754077+615066140+654327972
737+690482197+722457050+749473798+769356130+777525296+769723999+748998645
727+728368148+722083739+733985474+756751574+780773239+800950820+816676687
717+828972154+838862029+847225274+854807839+861992169+868762547+875029354
707+880920634+886671780+892259817+897373909+901864519+905901742+909564444
697+912782829+915824870+919156719+922657992+925629361+927702152+929278158
687+931089355+933611771+936796970+940192772+943352376+946102258+948437716
677+950460728+952460092+954641510+956767506+958531343+960303779+963130379
667+967093168+970677137+973351108+975609042+977754050+979824623+981813508
657+983447959+984027373+982776108+978954260+970767761+953197779+917939177
647+860368064+790463863+733789716+715131309+738794846+787362302+838471857
637+879449359+908549109+928878782+943841300+955668534+965323150+973121761
628+979611668+985690846+991787894+997418118+1002033747+1005948234+1009996407
618+1014585836+1019347309+1023634301+1027345036+1031066655+1035100720
609+1038707463+1040930128+1041741845+1041670838+1040764735+1038116830
601+1030531578+1009392742+960652637+874528472+760274143+650186422+582709781
591+574968474+611235357+657650685+682068904+665662520+610817776+540422098
581+483983412+460258675+469857332+501475198+541944294+582324043+619100743
571+651741267+680341948+705309620+727339176+746807419+763538007+776841285
561+785356018+787744077+784990500+781930589+784674358+795615307+812062200
551+829662682+845298194+857202952+864942310+869710837+873227225+876159094
541+878054936+878309476+876670255+872928013+866473307+856328221+841504426
531+821549072+796935833+768551332+737668465+708042707+686237998+677340214
521+682374835+699501104+724717672+752363344+777831025+799961214+819720273
511+837761445+854047245+868601923+881624664+893404470+904423413+914889410
501+924259122+931849211+937557564+941546351+943906061+944813708+944476338
492+942541129+937195136+924357069+897892057+853568329+798250448+754218880
482+743991232+768754547+806717014+828897989+815435565+762472020+685709572
472+621626786+601853620+623434760+658716068+680009213+674534776+647417260
462+616065285+600542364+613511833+651894030+697084494+734591289+764200722
452+788496139+806849758+819541646+829460206+839400599+850707536+863255997
442+874908433+882968233+887362374+890397899+893906091+897957824+902024337
432+905940705+909514799+912652301+915830446+919330845+922082743+922231879
422+919385193+916034735+917067738+924050332+931162043+935176223+937596729
412+939501641+940133454+939116977+938191594+939339270+942268922+945476491
402+948919453+953371032+957155999+956546355+953311512+953612538+957417055
392+961071158+963592164+966637295+971107482+974951768+974164773+967741574
382+960701811+957213840+955164226+946585137+919832332+874930535+842901334
##END=
