##TITLE=X8615
##JCAMP-DX=5.0
##DATA TYPE=LINK
##BLOCKS=1


$$ === CHEMSPECTRA SPECTRUM ORIG ===
##TITLE=X8615
##JCAMP-DX=5.00
##DATA TYPE=INFRARED SPECTRUM
##DATA CLASS=XYDATA
##ORIGIN=ComPlat
##OWNER=
##XUNITS=1/CM
##YUNITS=TRANSMITTANCE
##XFACTOR=1
##YFACTOR=9.2427893e-010
##FIRSTX=3997.453
##LASTX=373.96442
##MAXX=3997.453
##MAXY=0.9924369432586895
##MINX=373.96442
##MINY=0.5198140727920602
##NPOINTS=2559
##XYDATA= (X++(Y..Y))
2559I59877590I60051900I60199964I60407872I60784029I61138325I61152576I60876376
2551I60689619I60784932I61026310I61262722I61486429I61708138I61861619I61811963
2543I61462440I60927256I60499316I60361570I60452304I60632805I60869024I61212357
2535I61643264I61963058I61896184I61388086I60729344I60331003I60371308I60659761
2527I60865735I60876827I60928869I61341654I62066045I62637213I62655785I62185476
2519I61584644I61040819I60639125I60670531I61341010I62238808I62534033I61984920
2511I61400467I61566523I62290591I62753291I62508947I61962607I61673186I61662739
2503I61622241I61448446I61397178I61697691I62253060I62846733I63521017I64497490
2495I65623639I66111876I65221365I63342967I61570715I60328230I59551088I59366653
2487I59854245I60714318I61345395I61357132I61244536I61692597I62366558I62319740
2479I61624498I61310442I61303865I60827816I60399489I60992324I62238743I63149503
2471I63501026I63548682I63073343I62290011I62154587I62594715I62419180I61245890
2463I60290505I60459591I61529249I63147053I65008298I65769253I63494319I60051449
2455I58634008I59121471I60473714I61974859I62926569I62860211I62221525I61873807
2447I61772561I61107822I59883007I58991786I58916787I59476992I60293084I61028244
2439I61338624I61200362I61219579I61735223I61880256I60867025I59856438I59668069
2431I59343309I58562298I58523541I59667166I61200749I62215721I62253704I61824603
2423I62057017I62882395I62886393I61711814I61157026I61826602I62332637I61879611
2415I61304896I61482560I62304843I63266807I64018862I64306220I64015509I63528369
2407I63384819I63476327I63207220I62552605I62177544I62429047I63148472I64004611
2399I64456863I64020410I63007179I62182381I61869487I62127502I63048580I64400501
2391I65456681I65685870I65475382I65497179I65950205I66476812I66253813I65244194
2383I64867714I65568115I65908159I64571458I63112229I63421126I65031255I66712257
2375I67510615I66931708I65221687I63356122I62264732I62187218I62657527I62862082
2367I62408346I61913467I62170901I63028847I63752657I63931675I63792897I63930966
2359I64669415I65448684I65174289I63991262I63290087I63550101I64269720I64698821
2351I64174600I62884652I62083973I62487537I63570157I64637106I65505304I66303533
2343I67018896I67086930I65730560I63575380I62304069I62590395I63924001I65438044
2335I66616299I67329340I67063586I65086328I62870723I62947528I64495427I64841532
2327I63377532I62500176I63280929I64445062I64844241I64683344I64922013I65846058
2319I66555938I66116390I65249159I65429273I66727669I67599221I66238723I63548424
2311I62105576I62295815I63137444I63814694I64118818I64325244I64591449I64650068
2303I64327630I64087800I64553143I65442300I65369622I63780903I62400478I62321288
2295I63210767I64481175I65391484I65206017I64383154I64324083I65230458I66028106
2287I65991284I65468224I64883256I64161445I63470265I63309239I63726346I64301641
2279I64697854I64966574I65364205I65994831I66664407I67095572I67295677I67373578
2271I66984395I65543352I63487032I62274663I62359271I63039616I63600530I63762782
2263I63689910I63739437I64053234I64457830I64790265I65053826I65122570I64574940
2255I63317752I62311163I62392740I63106039I63566610I63493610I63329811I63555969
2247I64163315I64736740I64788523I64252501I63621618I63323233I63281510I63281639
2239I63356122I63526757I63634258I63662439I63785804I63975204I63913554I63477359
2231I63006147I62896969I63181425I63620264I64063746I64491235I64768145I64705270
2223I64391472I64146226I64120946I64153126I64033952I63829139I63858030I64302350
2215I64896927I65207371I65202857I65152041I65006879I64488784I63826882I63651927
2207I64025827I64382896I64442224I64534700I64930396I65397610I65591653I65444815
2199I65133533I64911179I64887770I64897766I64795875I64813932I65188541I65591138
2191I65493697I64912533I64325373I64019443I63939349I63965273I64024408I64124493
2183I64384250I64830634I65229232I65346342I65246322I65138821I65083361I65033061
2175I65050408I65249417I65537871I65644275I65449651I65107028I64784719I64498006
2167I64244311I64090831I64114175I64331757I64638396I64852431I64927043I64995271
2159I65101418I65067820I64782526I64465246I64470212I64852108I65278952I65403672
2151I65187444I64843983I64646973I64768919I65099225I65316807I65279920I65161198
2143I65163584I65368461I65762481I66102783I65994315I65406961I64831472I64736869
2135I65145269I65758999I66205899I66208156I65820649I65455713I65448297I65697994
2127I65910094I66018756I66156501I66309595I66292248I66046872I65734881I65546319
2119I65606550I65999087I66624295I67108405I67141680I66865415I66650542I66596179
2111I66546523I66471975I66506347I66734311I67189982I67855366I68450781I68506241
2103I67908181I67155287I66862642I67148774I67642363I67931720I67832731I67354425
2095I66672403I66115229I65942918I66068411I66151536I66017595I65862179I65996636
2087I66510217I67191014I67652681I67597351I67151934I66852969I67060813I67545760
2079I67887352I68024453I68155298I68384617I68677907I68913610I68879689I68409703
2071I67558594I66611914I65962458I65842511I66063188I66223891I66221699I66302502
2063I66649252I67193786I67763793I68194700I68345602I68154138I67725810I67335144
2055I67232157I67429941I67792297I68280018I68881559I69376438I69433381I68985320
2047I68341475I67857172I67607540I67519643I67696597I68304265I69188005I69958311
2039I70425266I70635561I70608669I70335822I69899111I69408037I68962878I68688547
2031I68623995I68661011I68722984I68838933I68963588I68953850I68790503I68643471
2023I68708410I69050066I69501157I69709904I69457435I68936051I68578660I68650500
2015I69067348I69523470I69782969I69887826I69999776I70085287I70018800I69935676
2007I70108051I70521353I70906151I71112899I71189897I71175968I71028033I70689344
1999I70150097I69522051I69059481I69004924I69361283I69860612I70201687I70322021
1991I70409660I70650715I70985923I71163715I71054602I70810323I70622405I70476985
1983I70289391I70107729I70051238I70182664I70487304I70858043I71178096I71470677
1975I71785635I71958913I71789569I71399482I71100195I70991598I70949745I70863847
1967I70677736I70353492I69955667I69677015I69716611I70129397I70723973I71159330
1959I71318615I71499374I71956979I72356932I72071187I71062470I70120562I70063168
1951I70907892I71968587I72605338I72694525I72470237I72186684I72000637I71949176
1943I71934859I71814848I71528393I71142241I70834054I70776466I70944199I71133922
1935I71241552I71363369I71574309I71789246I71889718I71867276I71819813I71846769
1927I71924670I71909129I71704638I71367496I70934977I70247345I69129643I67745866
1919I66515698I65593588I64678185I63470910I62080490I60835813I59935306I59400381
1911I59144235I58983467I58707718I58194460I57451368I56570788I55617982I54573539
1903I53456096I52439898I51688552I51159494I50762443I50576977I50688347I50959195
1895I51179937I51289888I51274863I51032196I50516681I49865548I49264200I48842257
1887I48729210I49018631I49656930I50522936I51564284I52709005I53736166I54378721
1879I54483127I54059765I53350013I52784907I52572227I52376700I51726857I50677255
1871I49738894I49226217I49063450I49167984I49591604I50250282I50874523I51314845
1863I51675525I52154991I52894665I53893064I54920418I55657191I56038120I56313869
1855I56693508I57054317I57058444I56508687I55603859I54847547I54632287I54904038
1847I55238278I55225123I54834069I54432440I54411417I54826653I55450056I56036249
1839I56439362I56668294I56938175I57471295I58190333I58800000I59145847I59260507
1831I59127726I58683406I58039625I57458462I57056832I56712532I56263182I55661447
1823I54940990I54167395I53396509I52621109I51835777I51190126I50943654I51213664
1815I51861508I52663928I53518455I54378012I55004768I55025146I54374594I53464028
1807I52742474I52365415I52406171I52985658I53981928I54928479I55419102I55472304
1799I55417877I55528860I55822602I56185667I56595294I57112808I57695325I58162023
1791I58395339I58510450I58780911I59397866I60334679I61403950I62330251I62799400
1783I62662750I62152523I61744122I61781848I62307939I63143119I63985651I64537602
1775I64720166I64759891I64942133I65299524I65670651I65988060I66259682I66353576
1767I66166433I65968197I66178492I66794221I67383896I67616826I67491849I67130975
1759I66680142I66353447I66273740I66299922I66193259I65888233I65483766I65102579
1751I64855397I64779302I64774143I64748605I64763760I64889124I65059307I65194989
1743I65288239I65339442I65415280I65708699I66333198I67142519I67867232I68318775
1735I68453038I68394935I68370107I68484250I68621674I68612581I68408413I68085587
1727I67767082I67513581I67270785I66995809I66798670I66819500I67019863I67266335
1719I67537700I67866909I68190380I68435433I68634636I68811590I68906774I68930247
1711I69025173I69266486I69517086I69567838I69389013I69164918I69062318I69057159
1703I69066059I69150473I69445053I69945800I70467506I70816384I70974573I71079946
1695I71215305I71338541I71466743I71715021I72066221I72321979I72355835I72224216
1687I72012954I71766482I71574180I71568311I71774027I72052292I72263553I72423612
1679I72601792I72767009I72870512I72966857I73107891I73253633I73381900I73552147
1671I73818868I74175550I74526557I74671461I74462133I74019296I73621858I73386220
1663I73222744I73080935I73035407I73130010I73315671I73571171I73923596I74292918
1655I74482383I74425246I74294917I74251065I74235781I74155172I74115705I74278666
1647I74549450I74615227I74338833I73974284I73888773I74143500I74467679I74616453
1639I74602781I74560090I74541969I74535972I74540357I74513143I74330772I73906572
1631I73344303I72898564I72757981I72878186I73048498I73115049I73086739I73047789
1623I73052496I73123884I73280525I73517388I73784238I74009365I74148207I74199475
1615I74186577I74174518I74276215I74536423I74819782I74930443I74807465I74506952
1607I74114931I73806551I73816805I74189479I74698287I75137836I75559134I76113664
1599I76785433I77390198I77796407I78041782I78185913I78142706I77827877I77451462
1591I77412253I77830456I78405042I78815184I79066299I79363845I79807585I80260160
1583I80455558I80281119I79955714I79793720I79817839I79789400I79589939I79393123
1575I79454064I79835831I80369338I80836036I81122683I81197747I81084442I80917935
1567I80837583I80770903I80556094I80293694I80293629I80671785I81239084I81759435
1559I82114956I82296231I82396703I82565080I82845602I83066215I82921246
1552I82236064I81224187I80392876I80068180I80104487I80165686I80090428
1545I79842925I79432654I79057722I79004649I79266598I79611285I79980348
1538I80405709I80675848I80585243I80376109I80486383I80999318I81593766
1531I81893892I81780652I81523797I81549786I81936519I82320092I82417339
1524I82380968I82509105I82839927I83151790I83228917I83064344I82868495
1517I82863272I83042870I83210667I83252455I83228208I83200607I83183776
1510I83269738I83528205I83799117I83876761I83856060I83971816I84187978
1503I84252466I84091118I83915260I83948729I84174694I84412589I84597218
1496I84811381I85047793I85226360I85400348I85572981I85487019I85072428
1489I84836016I85264021I86058058I86438084I86057542I85285431I84654547
1482I84305733I84063001I83861735I83857156I84157218I84638812I85054629
1475I85301166I85554022I85993635I86462267I86699388I86779289I86917744
1468I87079801I87181821I87328402I87511676I87522832I87408560I87522897
1461I87940390I88281401I88273534I88088454I87974053I87924204I87894797
1454I88001331I88282820I88575401I88768413I88898613I88949301I88883975
1447I88850699I89054996I89450241I89742564I89686976I89319138I88902096
1440I88639566I88495243I88312033I88000944I87576357I87168085I87042850
1433I87392180I88028932I88522779I88713920I88815747I88931566I88846507
1426I88448682I87991787I87775689I87848624I88077749I88302618I88431593
1419I88509559I88651174I88919443I89321911I89777001I90087638I90218677
1412I90477918I91039025I91606904I91967713I92305629I92624005I92625617
1405I92390559I92345289I92507088I92491353I92155695I91669457I91089068
1398I90390472I89814726I89720767I90179726I90938360I91606582I91848475
1391I91611741I91218043I91055921I91124536I91101707I90907470I90774561
1384I90742640I90624240I90455218I90401758I90311991I89955309I89601852
1377I89888435I90994142I92202513I92609043I92122161I91415440I91021678
1370I90852204I90612310I90307863I90162186I90333659I90849625I91596651
1363I92336067I92893434I93271655I93501618I93610344I93805807I94329640
1356I95010631I95373826I95311208I95187521I95195840I95098399I94743910
1349I94423083I94532970I95080535I95631648I95780421I95633324I95659571
1342I96060168I96562334I96800874I96621857I96148001I95786870I95932741
1335I96465087I96814159I96607734I96054558I95760881I96265626I97528747
1328I98833399I99435134I99208782I98427706I97262026I95917457I94951302
1321I94824003I95138510I94809945I93219162I91005685I89507700I89467911
1314I90514869I91949399I93523479I95069508I96038823I96206814I96298128
1307I97046637I98138027I98820566I98983848I98976303I98993973I99239349
1300A000126442A001806605A003738980A004990622A004950704A003756133A002123756
1293A000906163A000742558A001708519A003012268A003473871A002814290A002144521
1286A002678995A004232375A005596355A006183838A006506664A007019341A007421293
1279A007410072A007235117A007062097A006485060A005159644A003555835A002787979
1272A003682360A005876554A007953188A008768184A008494691A008034958A007901340
1265A008172382A008813648A009370306A009174005A008639789A009151563A010968441
1258A012810919A013443028A012633320A011130627A010078961A009780319A009146340
1251A007273874A005160096A004674245A006113998A007819569A008220103A007481267
1244A006817495A006781446A006908164A006679040A005989214A004878994A003615357
1237A002940106A003451622A004677857A005407213A005040342A004086182A003259707
1230A002646687A002009806A001460757A001357964A001747599A002396732A003249582
1223A004307890A005208848A005586037A005706307A006038870A006417284A006378785
1216A006060860A006029390A006528525A007430644A008488759A009252938A009223209
1209A008410342A007438898A006959884A007139159A007697688A008251960A008580460
1202A008673967A008705244A009038065A009981520A011253154A011927180A011286430
1195A009754266A008700214A009105906A010557525A011789305A012118256A011953104
1188A011900546A011945688A011697410A010947611A009874793A009118288A009533718
1181A011373939A013842078A015756203A016588804A016771497A017040669A017597972
1174A017994636A017765898A016973279A016138292A015940573A016930524A019146000
1167A021839910A023651693A023347504A020901614A017781504A015713834A015194901
1160A015539395A016214775A017421727A019239829A020935792A021675853A021630196
1153A021519471A021261197A020259122A018853806A018305209A019377188A021587376
1146A023857602A025477469A026303815A026244615A025165993A023643245A022965479
1139A023598232A024333005A023931247A022951678A022797037A023585593A024141541
1132A023786665A023000689A022441323A022325503A022555982A022839470A022881064
1125A022678895A022431843A022240121A022173827A022313185A022356521A021692233
1118A020271956A018832525A017814586A016650002A014723561A012551163A011328411
1111A011482472A012243685A012650345A012509762A012187645A011790272A011134432
1104A010358516A009991903A010308602A011024158A011819936A012725344A013706718
1097A014325607A014250221A013833759A013757728A014111572A014326123A013999493
1090A013408527A013097890A013263365A013723808A014074298A013858264A013029791
1083A012201446A011998052A012217310A012033455A011075748A009882983A009152531
1076A009038839A009361987A010013829A010875901A011648335A012098781A012444113
1069A013129811A014175286A015118935A015513213A015258744A014610901A014097062
1062A014150007A014595424A014917024A015063218A015413773A016015959A016438225
1055A016541470A016669607A016955223A017177770A017109671A016786006A016569328
1048A016921109A017965230A019292000A020289754A020690803A020741039A020848863
1041A021170721A021540687A021715836A021694103A021688751A021766845A021799412
1034A021712482A021690943A022054783A022855850A023668911A023877916A023408123
1027A022789556A022305769A021939028A021850228A022201686A022826701A023415152
1020A023782861A023938921A024052871A024335392A024822725A025285554A025493720
1013A025561626A025823252A026388423A026966362A027189360A027059546A026926315
1006A027067220A027493549A027968501A028062073A027528372A026775736A026320969
999A026118993A025876842A025543118A025396473A025613538A025980409A026220174
992A026338896A026500373A026834226A027365670A027926648A028400698A028968963
985A029652985A030203839A030445861A030145091A028874940A026587109A023398836
978A018606560A011819936A004517282I98379791I93291646I87604022I79047597
971I66223504I49195327I29005962I07967100H88924713H73632417H63131236
964H58261832H58596072H62896372H69786885H77255208H83996948H89604736
957H93100616H93668301H91751275H88910655H87195217H88082633H92078421
950H99174199I08374275I17508897I25421089I32313279I38566783I44425622
943I49944546I54902877I58942518I62160842I65173386I68288530I71049250
936I73066426I74836356I76832896I79109441I81599377I84182690I86632257
929I88804332I90818735I92730022I94218850I95238724I96358102I97754519
922I99261533A000741913A002141490A003510242A004895374A006112386A006888044
915A007440640A008389512A009769807A011144557A012233948A013172695A014197018
908A015274544A016306799A017211239A017626024A017206016A017125342A018193516
901A019692985A020869434A021445955A021980880A022954064A024233243A025489593
894A026413702A026598008A025324117A022345107A018490160A013874644A007689498
887I99667354I91386292I85432463I83038033I83754556I86308915I89499703
880I92824884I96057782I98689269A000264123A000731272I99895576I97410477
873I93341302I88336861I82941947I76881261I69315239I59923118I49786228
866I41122302I36215238I36476026I41804002I50504106I60261421I69245141
859I76144876I79856145I79813389I76483372I71212984I65660268I61199459
852I58271974I56132014I53480214I50183408I47342143I44659906I40567321
845I34629485I29434483I27728718I29692305I34248362I40294409I48023521
838I59617382I73868717I83659824I89147600I92953859I95172366I95017402
831I92337550I88068463I83303787I78529374I74508242I72882442I75275646
824I81535469I88154683I92864092I96176375I98619364A000292369A001676017
817A003516239A006236976A009949921A014325865A018782676A023129020A027341809
810A030917460A033467498A035291017A036787391A037956553A038630063A038854287
803A038738273A037702471A033981401A027926068A022963738A019153545A014616898
796A007799965I97386616I82646077I65782086I50761476I38250471I26803061
789I18447000I20353966I34214635I50372293I57826751I50290006I28448595
782I01893968H83690761H80865940H91835625I09746897I26320629I34828301
775I34025235I26612500I13230975H91767332H62858066H34410532H13190395
768G97736879G81279031G55676631G23905851F99721793F84557699F73434082
761F64226138F57061939F52519165F50929285F51967602F54614307F57977922
754F62199160F68575835F78924502F93461261G08722539G21800778G33330087
747G44725390G56328021G67654387G78511412G89036582G98984523H07981657
740H16336686H24658956H32735656H39989687H46744776H53632903H60914986
733H68516864H76175168H83676186H91064416H98327475I05019173I10735042
726I15518225I19386264I22016460I23081088I22791602I22209278I22554481
719I24081873I26301605I28673076I30831158I32737351I34581700I36330800
712I37455273I37010630I34114873I28580472I21407631I15073905I12372966
705I14037007I18701920I24473507I29809995I33973387I36811621I38266335
698I38595222I38543309I38746768I39427049I40539527I41845984I42941566
691I43377954I42837096I41184275I38279426I33817456I27368038I18137588
684I04566985H85155212H60808775H35444657H13478526G98609591G94031866
677H00991316H17171028H37837474H58690611H77164087H91657896I00848493
670I04072493I01679934H94558232H83218324H67300496H46398090H22069193
663G98990456G83163169G78504511G84780070G97847282H11997630H22953707
656H29485217H33131869H36642710H42164213H50310625H60412885H71316856
649H82014338H91863741I00520831I07813942I13690837I18131655I20924360
642I21499720I19187126I13958719I07072462I00773817H97053520H96576827
635H98731619I02462879I06889123I11297633I14983235I17366895I18215231
628I17625684I15811516I12934589I09142582I04733169I00149576H95726685
621H91599987H88004667H85488485H84628606H85590247H88032913H91322560
614H94783230H97865549I00183625I01357173I00721130H97135290H89036406
607H74703171H52781279H23253962G88600194G54082817G26109525G09056649
600G02947792G04285977G09194976G15746219G23843814G33760865G45146172
593G57104389G68727914G79355878G88519777G95989713H01978559H07104946
586H11976220H16811703H21513761H26017454H30482907H35198572H40410534
579H46189472H52336313H58432531H64037611H68819311H72515747H74877159
572H75662877H74675635H71919107H67893590H63729617H60840309H60167445
565H61525620H63592194H64613615H63355331H59705648H54603960H49397608
558H45165278H42422486H41014461H39880380H37096897H30957085H21774807
551H12670946H07973918H10294315H19026534H31461315H44869473H57585356
544H68935453H78773636H87058052H93665722H98555181I02108648I05269901
537I09145420I14183716I19709154I24276110I26181916I23667604I15557950
530I02547229H87708410H75285108H68630298H68584769H73265546H79774228
523H86566720H93880917I01905641I09565106I15617988I20138190I24190019
516I28435826I32631333I36281273I39237068I41603381I43507961I45197798
509I47079485I49381826I51929155I54428119I56764251I58847914I60492803
502I61680344I62648369I63536623I64286809I65017261I66096592I67653519
495I69255137I70215746I70168541I69370892I68516817I68210049I68542612
488I69127322I69476523I69309951I68501727I66816533I63840941I59176673
481I52634457I44398795I35177115I26023598I17825596I11068895I06109144
474I03369448I03157218I05546166I10485539I17683981I26145415I33853827
467I37938672I35495555I25420058I10522168H97299476H91948930H95767828
460I04704215I13265669I18404374I20178237I20108333I19504018I18690828
453I17274549I15280717I13882752I14374084I16501728I18691795I20109300
446I21691248I24775890I29329045I33988283I37485582I39562409I40710677
439I41601962I42788407I44408016I45891170I46176205I44421494I40619750
432I35721198I31156370I27995117I26516284I26573034I27963840I30234582
425I32637201I34764458I36999796I40046905I44146325I48884045I53647044
418I58070773I62000913I65243549I67691632I69650382I71685550I74096359
411I76757509I79375002I81647549I83315395I84263107I84463599I83771904
404I82020030I79350819I76222842I73065071I70069681I67218808I64375737
397I61442513I58497488I55676085I52967730I50362233I48201120I47075035
390I47213297I48283213I50007421I52528053I55703622I58505936I59879395
383I60084466I60621843I62811265I66727282I71422698I75881508I79636177
376I82629955I84840594I86270029I87127780I87793358I88672584I90117947
369I92269258I94865340I97360886I99377288A001040233A002792364A004821664
362A006817559A008408407A009643540A010844689A012184679A013616049A015006146
355A016141968A016746863A016646198A015911940A014884845A014058499A013723292
348A013540791A012632611A010353163A006982261A003501536A000706187I98718675
341I97361595I96700854I96935847I97802240I98324332I97312327I94124183
334I88974322I82759446I77011978I73976347I75823340I82889841I92896014
327A002625277A010355098A016286098A021144474A025237252A028644074A031545119
320A034248251A037086291A040076780A042687566A044377273A045246310A045649100
313A045463311A044426220A043054308A042629269A044143828A047417547A051314863
306A054794685A057641173A060221649A062832757A065416522A067744787A069719208
299A071405239A072820293A073741823A073271127A069432689A060711949A049321225
292A041429539A042022956A050044068A059744956A065932360A067123061A064945697
285A061892591A059379246A057008226A053291605A047692329A042704720A042817509
278A049246548A056080634A054286973A040333442A019141873I97610840I76329311
271I48840709I08926419H57233769G99867102G42255188F86981986F36855420
264E96879415E71775247E62399570E65668969E78222987E99433064F30327779
257F70238328G15080964G58234601G92550325H12971265H19108111H14267469
250H00053278G73944069G35660028F94813891F68058579F66551759F87409926
243G18718329G50273785G77852863H00864727H19429711H33526147H43528580
236H50873022H57702917H65496194H74276714H83293258H91927520H99819850
229I06736223I12564559I17208191I20273679I20781456I17715322I11838491
222I06596026I05752591I10224299I18130688I27048244I35190851I41405468
215I45485026I48281536I50738841I53109925I55392468I57804116I60284120
208I62199922I63749368I65767511I68256093I70593837I72503061I74345024
201I76380063I78444315I80404548I82329184I84138710I85473219I86157627
194I86630322I87522703I88813167I89413677I87474531I81846365I74105516
187I68268345I67426071I71294625I77527622I84381119I91434271I98655348
180A005819934A012525819A016743768A012361246I92285057I58465180I25900878
173I11161499I17170917I32771336I45198443I48771514I45403578I41314863
166I41269592I44534799I47120241I46357674I42184802I36219881I30923053
159I28268674I28852417I32792552I40378888I51015300I62657204I73299871
152I82206980I89202802I93841146I95238982I91616190I81173371I65690062
145I51958368I46871190I51080755I59222330I66308177I71421731I75975402
138I81026145I86012981I88585977I85399638I74394421I57951922I43455404
131I38511259I44559111I55543370I62520555I59457388I46861194I32368416
124I26495584I34526176I52265007I71074335I85915992I96990662A005931949
117A013252789A018350608A019362937A013205068I97852992I75345228I51880016
110I34912264I30360527I39732850I57703193I75876414I89446565I98327492
103A004233923A008449486A011767637A014904707A018070990A020922121A023366141
96A025783270A028227161A030163212A031259116A031904574A032893557A034662198
89A036769528A038378883A039186269A039294609A037870269A032828554A022954709
82A010018601I98350837I92720027I95589021A005297841A017494985A028259018
75A035668916A040077941A043343019A046615771A049047087A049512431A048898185
68A048947776A049795532A049940887A048444901A046410571A045256241A043975966
61A039495101A030189716A018321524A007823439A001686787A001089695A003646311
54A004494453A000356405I90404595I74452912I53894419I35105340I26882446
47I32107886I45786957I59711018I67068680I64001902I49267295I26775009
40I06994689H99180003I01851084I04163614H97458051H84874691H78520328
33H90525299I18801038I46934517I67297612I80421831I87290096I90321212
26I92667534I95479843I98803476A002967191A007534405A011701924A016445061
19A024022239A033803415A040351885A041683299A042457345A045916273A050114295
12A051210070A048595286A044146149A037046309A025559304A014533128A010747957
5A014888520A024106654A034393542A037940947A033051101
##END=


$$ === CHEMSPECTRA PEAK TABLE EDIT ===
##TITLE=X8615
##JCAMP-DX=5.00
##DATA TYPE=INFRAREDPEAKTABLE
##DATA CLASS=PEAKTABLE
##$CSTHRESHOLD=0.93
##MAXX=3997.453
##MAXY=0.9924369432586895
##MINX=373.96442
##MINY=0.5198140727920602
##$CSSOLVENTNAME=- - -
##$CSSOLVENTVALUE=0
##$CSSOLVENTX=0
##NPOINTS=41
##PEAKTABLE= (XY..XY)
420.70997243940565, 0.811997828747089
427.7926318999216, 0.8310931310502369
440.54141892885036, 0.8566979154246628
487.2869713682853, 0.9227546433869644
526.9498643471461, 0.8599126324097961
548.197842728694, 0.8563403470292451
558.1135659734164, 0.8674461822614729
576.5284805707583, 0.8751730903410267
597.7764589523063, 0.8579791767572389
617.607905441751, 0.8421673753529161
685.6014362627047, 0.8371680356542076
719.5982016731818, 0.6160797465981379
743.6792438389366, 0.5198140727920602
786.1752006020592, 0.9625713799773133
841.4199443940838, 0.9002258158504688
926.41185792025, 0.8753614999795126
980.2400698201718, 0.8563594796030961
1011.4037714464421, 0.8446825721640154
1026.9856222595777, 0.8244096026350449
1042.5674730727128, 0.8347691870748167
1117.6436633541825, 0.8028146009056172
1151.6404287646596, 0.7467932683969478
1222.4670233698198, 0.6497198330356225
1247.9645974276777, 0.8176435814010716
1273.4621714855352, 0.8286870703223551
1308.8754687881155, 0.7195553164272532
1332.9565109538698, 0.7339069234923834
1372.6194039327597, 0.8432871087754064
1446.2790623221263, 0.601640223045465
1477.442763948397, 0.8141658284966442
1490.1915509773257, 0.8489012104217101
1544.019762877268, 0.9007174351919411
1566.6842731508991, 0.8574801068033118
1597.8479747771694, 0.8653240184283354
1626.1786126192533, 0.9108144624889046
1722.5027812822514, 0.8200158458698779
1738.084632095387, 0.7932733277407998
2946.3863360594214, 0.8789371830094103
3020.045994448788, 0.8771993500681086
3045.543568506646, 0.8768904190785454
3061.125419319781, 0.8785982711841946
##END=


$$ === CHEMSPECTRA PEAK TABLE AUTO ===
##TITLE=X8615
##JCAMP-DX=5.00
##DATA TYPE=INFRAREDPEAKTABLE
##DATA CLASS=PEAKTABLE
##$CSTHRESHOLD=0.93
##MAXX=3997.453
##MAXY=0.9924369432586895
##MINX=373.96442
##MINY=0.5198140727920602
##NPOINTS=177
##PEAKTABLE= (XY..XY)
3986.1207448631744, 0.8879451731114277
3970.5388940500393, 0.8876419643327201
3956.373575129007, 0.8876137118986668
3937.9586605316654, 0.8878985025711362
3929.459469179046, 0.8886021949402604
3915.2941502580143, 0.8885991549868596
3896.8792356606723, 0.8867223835125213
3889.7965762001563, 0.8884580712024265
3878.4643210633308, 0.8876770120654668
3867.132065926505, 0.889299212166952
3861.465938358092, 0.8875762804505597
3850.1336832212664, 0.8860452151758514
3833.135300516028, 0.886306581847398
3826.052641055512, 0.8884172421049726
3813.3038540265834, 0.8859431128552911
3806.2211945660674, 0.8889942149085148
3799.138535105551, 0.8883771875532622
3793.472407537138, 0.8885138606786414
3782.1401524003127, 0.8904362896835637
3776.4740248319, 0.889320430838348
3765.1417696950743, 0.8890357002440089
3756.642578342455, 0.8923685530163012
3748.1433869898356, 0.8918068982874661
3742.477259421423, 0.890184340490035
3729.728472392494, 0.8893293723127168
3724.0623448240813, 0.8890763500313503
3716.9796853635653, 0.8908134675807602
3708.480494010946, 0.890348730891967
3699.981302658327, 0.8892339451345889
3685.8159837372946, 0.8894373752299662
3674.483728600469, 0.8899611215827664
3667.401069139953, 0.8896186327980917
3661.7349415715403, 0.8916364889811419
3654.6522821110243, 0.8921594598639199
3646.153090758405, 0.8892539123323137
3633.404303729476, 0.891086040210054
3624.905112376857, 0.8894532903888619
3616.4059210242376, 0.8913044316084712
3605.073665887412, 0.8903664326820343
3585.2422193979673, 0.8894101958837506
3578.159559937451, 0.8907182788665964
3565.410772908522, 0.8894439320646956
3558.328113448006, 0.8903854469481822
3546.9958583111807, 0.8903408033515843
3531.414007498045, 0.8899853802075632
3518.6652204691163, 0.8911166763594678
3514.4156247928067, 0.8908469652977413
3500.250305871775, 0.8906831719799981
3484.6684550586397, 0.8918254356256862
3481.8353912744333, 0.8917404990134138
3470.5031361376073, 0.8909488300786166
3454.921285324472, 0.8919597250357048
3440.75596640344, 0.8910888416994909
3426.590647482408, 0.8914349055950668
3416.6749242376854, 0.8916028720321789
3409.5922647771695, 0.8920781593649582
3398.260009640344, 0.8916859610108702
3388.3442863956216, 0.8923435189214822
3375.595499366693, 0.8924341185907587
3361.430180445661, 0.8932896829279868
3348.6813934167317, 0.8936507682047331
3337.349138279906, 0.8928006866901178
3331.6830107114934, 0.8927260613335884
3321.767287466771, 0.8936418276546432
3301.935840977326, 0.8927078826155933
3297.6862453010162, 0.8930583580945021
3283.5209263799843, 0.893992303133552
3267.939075566849, 0.894258020386022
3249.524160969507, 0.8952787496709254
3239.608437724785, 0.895296750927366
3229.6927144800625, 0.8952368474856338
3216.9439274511337, 0.8964911087821067
3199.945544745895, 0.8956308343194513
3178.697566364347, 0.8965979203038154
3154.6165241985927, 0.896252033869794
3137.618141493354, 0.8966089469514502
3117.7866950039092, 0.8972682332636615
3105.0379079749805, 0.8982325769124401
3061.125419319781, 0.8785982711841946
3045.543568506646, 0.8768904190785454
3020.045994448788, 0.8771993500681086
2991.715356606724, 0.882346508771813
2983.2161652541045, 0.8821423632845439
2946.3863360594214, 0.8789371830094103
2930.8044852462863, 0.880251286745206
2920.888762001564, 0.8830726130564316
2895.391187943706, 0.8889198280159495
2874.1432095621576, 0.8928240515371892
2861.394422533229, 0.8931064584942983
2848.6456355043, 0.8916968083483927
2827.397657122752, 0.8950440863419455
2813.2323382017203, 0.8935916402330232
2786.318232251759, 0.8956791140293598
2757.987594409695, 0.8980001189129873
2725.4073608913213, 0.8993561248340746
2708.408978186083, 0.9003546215135957
2699.909786833464, 0.9001448730474529
2689.994063588741, 0.9007430654466699
2680.0783403440187, 0.8990997058276403
2672.9956808835027, 0.8993675692557858
2658.8303619624703, 0.9004089811303058
2647.4981068256448, 0.9000688769852705
2626.250128444097, 0.9034015513717293
2610.6682776309617, 0.9056026911423196
2605.002150062549, 0.9052324277757984
2586.587235465207, 0.906064746497937
2566.7557889757622, 0.9058563687374475
2556.8400657310394, 0.9048733694427455
2546.924342486317, 0.9061409810240834
2538.425151133698, 0.9072017648606973
2531.342491673182, 0.9079940299554042
2521.4267684284596, 0.908439813380459
2512.9275770758404, 0.9087360484746397
2505.8449176153244, 0.9093574264108159
2498.7622581548085, 0.9094121437234718
2481.76387544957, 0.9102631790939429
2467.5985565285378, 0.9093584394205231
2444.934046254886, 0.9126409273096409
2433.6017911180606, 0.9130903459237273
2422.269535981235, 0.9139738660014721
2403.8546213838936, 0.9123029092621505
2389.6893024628616, 0.9129802569089328
2361.3586646207973, 0.9172038419074608
2350.0264094839717, 0.9147780515215393
2340.110686239249, 0.9160121062320445
2324.528835426114, 0.9146681408925784
2308.9469846129787, 0.915186045802541
2289.115538123534, 0.9198308570592325
2283.449410555121, 0.9191243031225412
2276.366751094605, 0.9202429033790633
2266.451027849883, 0.9203848227116491
2257.9518364972632, 0.9203608016265373
2243.7865175762313, 0.9194948650311568
2235.287326223612, 0.9145443420484153
1738.084632095387, 0.7932733277407998
1722.5027812822514, 0.8200158458698779
1624.7620807271305, 0.9086013412905447
1597.8479747771694, 0.8653240184283354
1566.6842731508991, 0.8574801068033118
1542.6032309851444, 0.8992147425075471
1490.1915509773257, 0.8489012104217101
1477.442763948397, 0.8141658284966442
1446.2790623221263, 0.601640223045465
1393.8673823143076, 0.8523786047059125
1372.6194039327597, 0.8432871087754064
1359.870616903831, 0.8674758054011794
1332.9565109538698, 0.7339069234923834
1308.8754687881155, 0.7195553164272532
1273.4621714855352, 0.8286870703223551
1247.9645974276777, 0.8176435814010716
1222.4670233698198, 0.6497198330356225
1174.3049390383107, 0.7950346456854339
1151.6404287646596, 0.7467932683969478
1117.6436633541825, 0.8028146009056172
1066.648515238467, 0.8948961481049676
1042.5674730727128, 0.8347691870748167
1026.9856222595777, 0.8244096026350449
1011.4037714464421, 0.8446825721640154
980.2400698201718, 0.8563594796030961
926.41185792025, 0.8753614999795126
854.1687314229866, 0.9212295988652063
841.4199443940574, 0.9002258158504688
743.6792438389366, 0.5198140727920602
719.5982016731818, 0.6160797465981379
685.6014362627047, 0.8371680356542076
636.022820039093, 0.8941715337579841
617.607905441751, 0.8421673753529161
607.6921821970286, 0.8699956513352965
597.7764589523063, 0.8579791767572389
576.5284805707583, 0.8751730903410267
558.1135659734164, 0.8674461822614729
548.197842728694, 0.8563403470292451
526.9498643471461, 0.8599126324097961
485.870439476153, 0.9175502043451311
440.54141892885036, 0.8566979154246628
427.7926318999216, 0.8310931310502369
420.70997243940565, 0.811997828747089
##END=

##END=

