##TITLE=LSH-R224A
##JCAMP-DX=5.0
##DATA TYPE=LINK
##BLOCKS=1


$$ === CHEMSPECTRA SPECTRUM ORIG ===
##TITLE=LSH-R224A
##JCAMP-DX=5.00
##DATA TYPE=INFRARED SPECTRUM
##DATA CLASS=XYDATA
##$CSCATEGORY=SPECTRUM
##ORIGIN=Angelika Moesle
##OWNER=
##XUNITS=1/CM
##YUNITS=TRANSMITTANCE
##XFACTOR=1.0
##YFACTOR=7.6462248e-10
##FIRSTX=3997.453
##LASTX=373.96442
##MAXX=3997.453
##MAXY=0.821007135581981
##MINX=373.96442
##MINY=0.1361052398210887
##NPOINTS=2559
##XYDATA= (X++(Y..Y))
2559I60902306I60580282I60589247I60848597I61253173I61809368I62507437I63124280
2551I63373184I63307314I63295387I63487541I63630351I63516306I63244483I62951536
2543I62641127I62358937I62302265I62648065I63330544I64052389I64541622I64746950
2535I64752251I64607804I64319143I63954480I63669795I63620529I63822582I64077178
2527I64145854I64112802I64357965I64834101I64839714I64122157I63522464I63943177
2519I65119566I66090315I66289641I65677007I64645066I63972097I64251715I65149967
2511I65691585I65409395I64684510I64169162I64057923I63994392I63827494I63997276
2503I65052370I66849266I68284927I68363270I67347074I66316301I65802201I65392713
2495I64785381I64452365I64952824I66127577I67636436I69386871I70671225I70414916
2487I68634078I66732648I66550004I68372390I69913366I69647702I68832001I69145217
2479I70103337I70468781I71122963I72942309I74069510I73148261I71765374I71643144
2471I72278773I72721390I73662361I75164203I75775746I75445693I75517098I76325549
2463I76761461I76143061I74561938I72293506I70284656I71111582I76587081I81709843
2455I82152693I79578373I76247050I73601480I72555428I72986664I73572170I73490241
2447I73781784I75501272I77437237I78223861I78326058I78491864I78461930I77972541
2439I77617387I77472940I76339035I74126494I73521032I76243542I78832441I79043771
2431I79333367I81253116I82809605I82428726I80575159I78582289I77995849I78756981
2423I78661334I77477851I78092276I81527199I84264442I84700979I84600654I84886429
2415I84870449I84239887I83466125I82928951I82695247I82870719I83500035I84123113
2407I84286347I84449424I85308779I86265497I86192610I85296618I84535173I84468445
2399I85176181I86231820I86895825I87163204I87520073I87648929I87027877I86345554
2391I86826212I88080399I88175814I86309384I83459031I81833633I83845600I87856362
2383I89148278I87659453I87033256I89366390I91504720I90497879I87494972I84724364
2375I84079849I86533498I90648015I93316193I93225767I91354037I89240886I88066991
2367I88305450I89601185I91400263I93426263I95241788I96084382I95327849I92938355
2359I89847127I88168720I90024626I94267219I97334750I97821255I96399703I94472003
2351I93683040I94688322I96138405I96516087I95791748I94533118I92988167I91211695
2343I89789597I90227070I93132223I96133182I97303491I97236763I96865472I96254944
2335I94892403I92676900I90986722I92167945I95327069I96395260I95457095I95589537
2327I97485666I98529926I97730595I96237717I94998497I94095723I93011474I91507293
2319I90372686I90421875I90630945I89492986I87458100I86696187I89076639I92611108
2311I93935296I93101276I91568174I90257316I89332247I88524264I87493491I86016437
2303I84160219I82233142I80667689I80542730I83311544I87225800I88215414I86413607
2295I83921605I81680455I79925342I79012824I78792684I78567322I78430047I78663438
2287I78459825I77075457I75527076I75312315I76005552I75962754I74790030I73362632
2279I72403420I71700517I70756584I69785289I69376191I69383129I68879397I67540475
2271I66322537I66498789I67652416I67789535I66429488I64595098I63060904I62009707
2263I61310313I60726678I60171107I59682263I58985285I57635061I55884236I54939990
2255I55645154I56772199I56726986I55707126I54473597I53147538I51497272I49701702
2247I48396690I48097039I48686208I49348419I49281691I48495379I47650134I47261850
2239I47146090I46675877I45397837I43368408I41230312I39816633I39308925I38962268
2231I38012566I36532940I35143583I34171274I33391432I32592336I31872985I31199627
2223I30255382I28983344I27813892I27125099I26714910I26015204I24741996I23154405
2215I21737843I20682593I19628122I18056744I15990989I14091195I12815338I11775055
2207I10400587I08637289I06692751I04665270I02642622I00812831H99297502H98007223
2199H96688881H95146892H93474566H91962667H90700217H89397310H87801300H86179253
2191H85084480H84597196H84029386H82676121H80713030H79049356H78364929H78481312
2183H78731620H78758124H78643923H78362121H77603016H76232444H74518648H72864017
2175H71581923H70824218H70462361H70133945H69581258H68906731H68371037H67972619
2167H67443396H66681716H65929704H65382941H64942741H64513687H64138655H63663999
2159H62744308H61358850H59918356H58744851H57747909H56655475H55356700H53994782
2151H52802335H51884126H51188551H50624872H50141642H49767233H49535557H49211038
2143H48247850H46338780H43884819H41608902H39856206H38524534H37422200H36379577
2135H35243179H34029683H32878396H31713699H30207879H28186948H25866754H23654525
2127H21818418H20261619H18581029H16445973H13875082H11122638H08449083H06026225
2119H03948932H02305448H01132099H00144122G98770200G96794558G94669013G92840312
2111G91157306G89253927G87085351G84820816G82545366G80233825G77828038G75307661
2103G72774577G70406130G68227654G65945501G63105906G59501513G55349111G50996837
2095G46550863G41829637G36598287G30887603G25084701G19513709G13940379G07762445
2087G00675890F92916679F84887749F76769642F68500149F59967801F51127887F41952542
2079F32394252F22469037F12325827F02153891E91981994E81619151E70967025E60408675
2071E50611888E41852461E33856116E26434325E19932340E14829065E11179539E08743780
2063E07441925E07330023E08285494E10015700E12244300E14777111E17640248E21122683
2055E25387454E30209357E35298248E40497248E45544980E50178314E54570266E59195336
2047E64240496E69470872E74525970E79124303E83190178E86938705E90689533E94566878
2039E98488773F02394259F06319663F10212949F13825020F16940959F19664248F22339752
2031F25283493F28659678F32404230F36166088F39578053F42613506F45400405F47850624
2023F49887654F51837494F54167393F57003480F60183575F63518639F66799683F69855520
2015F72723724F75516937F78164846F80572036F82913667F85483545F88325635F91187602
2007F93761846F95926679F97841440F99770700G01813537G03977825G06398579G09131534
1999G11847418G14142666G16071459G18002902G20043868G21931969G23493758G24989130
1991G26850727G29133192G31438420G33472682G35409346G37532320G39740184G41635144
1983G43080082G44463202G46230554G48255930G49998804G51247065G52316348G53590958
1975G55227114G57178045G59221662G61031264G62410954G63470960G64533460G65830520
1967G67329635G68904053G70556891G72338508G74189502G76028882G77861246G79679579
1959G81394858G82946513G84388410G85759292G86925782G87749511G88378592G89048365
1951G89558334G89272168G87641311G84400337G79277185G71903530G62172106G50544631
1943G37917019G25278648G13597542G03812487F96661621F92553340F91665377F93992041
1935F99173344G06435061G14853911G23656758G32239621G40037730G46601689G51841145
1927G56011634G59329705G61688719G62720428G61869337G58313197G51032227G39199970
1919G22776434G03080274F82921774F65933313F55250939F52217943F55952362F64142342
1911F74412109F85107110F95238744G04279503G12055241G18504919G23599774G27630180
1903G31246733G34912630G38441408G41238831G42993086G44108827G45457884G47636983
1895G50481177G53419226G56244479G59257598G62647230G66070460G68972573G71109422
1887G72641667G73892579G75097032G76293455G77474989G78807674G80456537G82256473
1879G83944233G85665047G87767363G90126455G92189249G93690312G94905132G96217315
1871G97734282G99330137H00877193H02368824H03840499H05244588H06521147H07786014
1863H09288792H11098473H12909634H14289791H15168479H15959001H17007625H18040191
1855H18511495H18464489H18583757H19299755H20315562H21240319H22196023H23373894
1847H24406148H24727625H24352438H23806299H23386132H22811383H21462329H18636220
1839H13597180H05730393G95136341G83377593G73373489G67942424G68088664G72595129
1831G79066011G85342633G90385727G94323291G97863684H01522098H05133039H08025096
1823H09774285H10712060H11503751H12379007H13027421H13024069H11994777H09481493
1815H05041132G98631132G90887276G83065703G76637929G72624673G71043240G71045656
1807G71757991G72925572G74672110G76935944G79428960G81917922G84226424G86125905
1799G87508948G88586649G89762259G91345719G93376395G95623859G97818939G99926088
1791H02062936H04174138H05994576H07339967H08269167H09026325H09901894H10984505
1783H12006236H12667590H13090095H13681369H14596537H15601508H16403645H16889292
1775H17097817H17130167H17041457H16746248H16101265H15128177H14051646H13036931
1767H11972326H10614540H08915788H07108680H05462000H04051518H02831786H01855191
1759H01259474H01032552H00989991H01041128H01248483H01551019H01745589H01873043
1751H02253687H02956979H03652087H04189885H04873689H05910932H07035015H07907387
1743H08515577H09007850H09474710H10013055H10720868H11545066H12273069H12713036
1735H12891081H13072166H13464893H13910083H14107850H14123051H14325261H14856901
1727H15544446H16312361H17339861H18760711H20426957H22031308H23391745H24566107
1719H25695959H26813338H27858532H28805739H29691598H30596632H31648842H32974668
1711H34597260H36377162H38037250H39328152H40266239H41127308H42095017H43051579
1703H43801955H44330321H44734116H45089349H45478724H46013483H46745462H47650496
1695H48704188H49859528H50967242H51893246H52730150H53693104H54765816H55671318
1687H56248405H56631154H57016710H57473203H58011780H58659102H59394199H60113862
1679H60717608H61210894H61683680H62202769H62794823H63496556H64292924H65045639
1671H65674642H66336229H67189893H68052131H68573949H68737027H68856763H69088517
1663H69279502H69359014H69519830H69916456H70460491H70980983H71413155H71856396
1655H72515333H73456304H74443735H75225214H75896546H76723705H77704665H78549755
1647H79044912H79243849H79298338H79266377H79185383H79232936H79635563H80445183
1639H81504331H82567455H83408178H83937635H84265428H84546293H84762768H84721609
1631H84226062H83255468H82044702H80986800H80390616H80315392H80629776H81212787
1623H82044858H83076020H84111159H84971916H85682068H86310994H86756417H86900007
1615H86858536H86857522H86943271H86998461H86968294H86920976H86902501H86836007
1607H86672852H86646114H87174947H88316491H89490074H90064198H90099589H90165693
1599H90547040H91020448H91348163H91596677H91919091H92304569H92644132H92888593
1591H93018697H92947058H92571870H91892821H91001272H90080335H89478225H89539419
1583H90208100H91022475H91598782H91885883H91957366H91875437H91762094H91737304
1575H91793431H91880738H92016376H92202294H92358668H92420251H92439427H92603518
1567H93118008H93949066H94736626H95157026H95326574H95661850H96405288H97444402
1559H98522259H99502752I00471631I01591036I02823006I03882622I04526436
1552I04771520I04800363I04838170I05158323I05943466I07045332I08076495
1545I08807695I09334657I09839637I10324037I10631094I10732121I10914453
1538I11561619I12758588I14236968I15611981I16538219I16849875I16783148
1531I16863361I17406772I18271193I19088219I19601384I19882248I20305612
1524I21127704I22078108I22637265I22651920I22392258I22128076I21965310
1517I21991034I22257244I22634770I22911738I23087989I23401205I23957556
1510I24504942I24780428I24920354I25247678I25822114I26487677I27215759
1503I28091639I29061998I29931643I30572884I31056505I31577075I32189864
1496I32641212I32614240I32131555I31548700I31203524I31219739I31539970
1489I31977676I32320903I32499649I32583059I32534027I32065295I30898416
1482I29178148I27474095I26271436I25585761I25166607I24901956I24827122
1475I24877713I24913338I24976636I25296009I25968120I26818042I27626026
1468I28281689I28643157I28472050I27674746I26533513I25589970I25236063
1461I25445913I25986907I26772751I27785206I28851759I29886274I31137654
1454I32764690I34430624I35740313I36757211I37733884I38650924I39332155
1447I39762768I40086897I40478689I41081889I41877712I42600960I42994155
1440I43119192I43177579I43108044I42698479I42024965I41403835I41023970
1433I40946017I41221737I41657183I41795705I41486777I41163584I41292986
1426I41863680I42578198I43241968I43771191I44020797I43846416I43357026
1419I42932416I42839184I42923841I42867871I42660204I42592619I42871535
1412I43460548I44196035I44850139I45261574I45549534I45977652I46519893
1405I46805512I46583815I46094815I45870077I46128803I46555985I46770590
1398I46663326I46206522I45405554I44502235I43987822I44382421I45850588
1391I47930452I49869691I51233168I52159250I53100533I54267723I55456741
1384I56432557I57190182I57701944I57710285I57053141I56054797I55365614
1377I55451284I56268232I57391068I58392842I59027380I59210570I59064719
1370I58920974I59033149I59349638I59778690I60435758I61356227I62303200
1363I63118044I63868887I64461720I64600866I64344557I64265045I64853824
1356I66038632I67371473I68473183I69200875I69476049I69133290I68111481
1349I66808107I65993419I66102554I66676444I66833753I66265242I65368236
1342I64531878I63850724I63392750I63093099I62562550I61626178I60821157
1335I60771891I61318654I61795025I61964417I62186349I62748156I63537665
1328I64464137I65678567I67086399I68141649I68531179I68686931I69271812
1321I70488192I72166909I74103809I75954181I77216864I77788883I78237347
1314I79034027I79829304I80065580I79989731I80336544I81199485I81871518
1307I81792551I81289598I81219830I81916964I82733055I82910086I82536925
1300I82195646I82316707I83454510I86207422I90027276I92943032I93251804
1293I91111213I88200057I86102263I85111870I84611957I84366872I84694665
1286I85580367I86769385I88390107I90334879I91737332I92102854I91955445
1279I91721351I91366198I91487337I93092857I95901661I98112409I98145540
1272I96113460I93563304I92021705I91910622I92680642I93564239I93999373
1265I93851886I93919705I95907352A000761332A006671575A010078667A009418406
1258A006193800A002769168A000623511A000067939A000732957A001974905A002824825
1251A002262941A000194067I97698089I95968077I95450547I96054839I97463918
1244I99098593A000339762A000896736A000794227A000216829I99493893I98967554
1237I98725354I98578023I98313450I97909654I97534154I97409039I97576015
1230I97719214I97409585I96680334I96131545I96330091I97378793I99049561
1223A000865320A002087313A002224666A001628793A001115160A001088423A001526129
1216A002537881A004211221A006027293A007141164A007311258A007135474A007325055
1209A007976820A008539252A008382644A007412675A006093164A004936262A004193214
1202A003916715A003950780A003986248A003948597A004181442A005060052A006547864
1195A008110432A009002605A009013985A009040879A010408020A013400715A016736949
1188A018680396A018688036A017976870A018278003A019943314A021683927A022558482
1181A023227007A024377828A025458179A025854337A025912100A026379818A028003658
1174A031240580A035028318A036985095A036199952A034174186A032104611A029461925
1167A025942968A022771372A021105983A020464586A019746170A018916594A018452696
1160A017871712A016777875A016561555A018832951A022972100A027157477A030890025
1153A034417244A036803152A036749365A034549842A032003974A030872407A031842221
1146A034543918A037805862A039871696A039527845A037677786A036344633A035910590
1139A034995967A032831679A030098178A027390713A024494056A021495748A019407775
1132A019192002A020910867A024039590A027962031A032235572A036654964A040794582
1125A043665982A044476616A043584287A042088758A040502882A038271242A034830629
1118A030643380A026748770A023727466A021554369A020217163A019941209A020858326
1111A022910206A026159757A030599961A035238947A038263213A038890188A038085792
1104A037410250A037574888A037860663A037146847A035491593A034051722A033508311
1097A033545027A033883188A034754469A036266368A038287767A040822489A043490822
1090A045249051A045753876A045928725A046581426A047585773A048564707A049622607
1083A050877729A051905696A052224992A051898758A051328766A050845066A050763918
1076A051361896A052445053A053397405A054015261A054743265A055861345A056987844
1069A057703999A058040834A058085969A057788265A057220378A056561051A055809428
1062A054785203A053397873A051848167A050605828A050100459A050250050A050252858
1055A049408782A048133081A047409131A047883631A049547617A051830393A054069984
1048A055928229A057417288A058663133A059661789A060288922A060475384A060243553
1041A059649473A058687065A057005228A054129228A050472450A047182677A045202826
1034A044926171A046177395A048378321A050919902A053467173A055847703A057844704
1027A059448432A060767318A061423372A060718521A058352022A054449070A049647318
1020A045559538A044079679A045896842A050317247A055981237A061296387A065152256
1013A067533487A068998068A070000389A070823261A071688306A072662875A073477250
1006A073741823A073424632A072820027A072070432A070861302A068860014A066326930
999A063817622A061742434A060218997A059240453A059023510A059731947A060957057
992A062138357A063242952A064681186A066829571A069204956A070477072A070435289
985A069894996A069055988A067675674A065819222A063607694A060953004A058007314
978A055195938A052743535A050543856A048423767A046473694A044969357A043644311
971A041575437A038397604A034347476A029493184A023684514A016806016A009246286
964A002181558I96559429I92525983I90001318I88672686I88050698I88257976
957I89619815I91953028I94775396I97612107I99906577A001472809A002981356
950A005349180A008020863A009092796A008507447A007381026A006281030A005374904
943A004647213A003960602A003106705A001768640I99665702I96765147I93375125
936I89996329I86653235I82837122I78278584I73193786I67529796I61016897
929I53988652I46791637I38005940I25390099I11012051H98400730H86905074
922H75626828H64396991H52905155H41760521H32422994H24764264H17373848
915H09818016H02904595G96802821G91117316G85763034G80854409G76101457
908G71010889G65487371G59582818G52603917G43865537G36457816G32507078
901G31533678G34913176G43059970G51724762G58677004G65210326G72051328
894G79209834G88289102H02578596H20049898H33594394H42855137H51411886
887H61591695H73151429H84391556H95166615I06425684I16872638I24351374
880I29303809I32455138I29487466I12828668H82223292H45256169H14445542
873H01242247H03955324H09152999H07575697H00791210G95739230G97662330
866H06688903H19158583H30627424H37653565H38656587H34037090H25321005
859H14405630H03268324G93535731G85899452G79282564G70613095G56865063
852G36780229G09068548F73672802F40475020F20759332F13274749F16098325
845F31500910F57061322F86274768G16380387G43971709G64280034G76404460
838G82369037G85026456G90615065H02826798H20422747H39991143H58995937
831H76754964H92438024I05978233I19571528I35201969I52547768I71758124
824I91275538A003079031A006223189A005418246A004076363A004843265A008826353
817A015659716A025507523A037893404A049752087A057617549A059664986A055220961
810A046806632A037977047A029617208A022070808A014887358A005245424I90003033
803I65156360I13734015G98271223F40094297E20733814D40208092C76343234
796C28744525C09996313C30382201C79745729D32238018D75494587E12982944
789E49749377E82993892F04312294F10375910F03052495E85268445E60774938
782E35563014E17148715E11764772E23292389E54330794F04311397F59473656
775G00355269G24312810G37787227G44422122G46261034G46903834G47997204
768G45058374G23028845F56333318E57326919D84717445D49244642D34344465
761D31924686D40122305D56228767D74370271D89982081E02948166E14435052
754E24459736E33259035E42612737E54137470E66545294E78172886E89758735
747F02176459F14269196F24059046F31472107F37665397F42899281F46649797
740F49131081F51264929F53321525F54844649F55953609F57186904F58898207
733F61215907F64133533F67691854F72188419F77767441F83663886F88937956
726F93763249F98643966G02449868G02113422F95806320F86962626F82480404
719F85830202F95993953G10177742G24456478G35104395G40341358G38331339
712G25672623G01330852F71997981F50360245F46956191F61920134F83553038
705G00375537G10495167G17445537G24670225G33963630G45723470G58351628
698G67712852G69644840G61117168G38112057F97256714F42518481E87944261
691E50244028E38997470E52721142E81905161F15793022F46801065F70471349
684F83121256F80969986F65053145F45901019F36141572F40620051F55981984
677F75438672F93405834G07600692G18338723G26813076G33967060G40291234
670G46067944G51516550G56707131G61539361G66001081G70315158G74595170
663G78501709G81508513G83297145G83663525G82385719G79487425G75470115
656G71213022G67749256G66044891G66724252G69764030G74390543G79364259
649G83369954G85234512G84308196G81036118G76916144G73833959G73846041
642G79080510G90361796H05641370H20980112H33648571H43738501H52710038
635H60730860H64603801H57497992H33095495G94077193G56436478G40301524
628G53620112G86849699H23660371H53673927H74619596H86959485H89758778
621H79731367H51801184H01942811G32938704F58487862E99031521E70067291
614E73100794E97608800F30361899F62464870F90363483G13365164G30889552
607G40981508G39789139G21901099F83910452F31609304E83112420E59422141
600E68502734E99873336F34455720F56864567F59909102F43972539F16026881
593E86718956E63893488E47179031E29505285E04569823D72915160D40913022
586D14828843C97252071C88777445C90486098D03141891D25025491D52094956
579D80148462E06132859E27690382E42253725E47014901E40393531E24439780
572E05653565D92060659D88569300D95187434E09131050E27455627E47857963
565E68531928E88317305F06945080F24748501F41958583F58348872F73487430
558F86949452F98225748G06799803G12378122G14933344G14703773G12000674
551G06152793F93972475F69957716F30432018E79632050E30678361D97871435
544D87653936D97384619E20542050E51076372E83562988F10350029F21104937
537F10870951E89958723E78894030E89450586F15329747F43238416F66457469
530F85051685F99837505G11285610G21448348G32962869G46171154G58727128
523G68176595G74193712G78364745G82751552G88856054G97081269H06741444
516H16778677H26424586H35238580H42980408H49579366H55063830H59553925
509H63235959H66137371H68076998H68985931H69097638H68854736H68935573
502H70320799H73931973H79964759H87638377H95705426I03099661I08925949
495I12030351I10860666I03495195H87305596H58426490H12396703G48093086
488F73633981F05788218E57226632E23717038D90537653D53822512D29111322
481D35474667D76389878E38781735F05373702F64464677G11712714G47626615
474G74561181G94855788H10124372H20918841H26551337H25425072H15768639
467G95952977G63968144G17698183F57549074E88686374E19308091D57384927
460D09522425C79558680C65364407C59307144C54824220C51771579C54401013
453C65862799C85671601D10888240D38659166D68055529D97937033E19983126
446E16359285D73120294C99612138C27836528B87255229B83591475C03161936
439C30149589C55741532C76975122C93726255D07292422D19525826D31882669
432D44794302D57962209D71143716D84453145D98215091E12142142E23598121
425E28214538E25477373E22903208E30550089E50551475E74433674E91050066
418E95997043E93880969E91073218E83798679E55570910D94058246D11960991
411C43097277C13681055C22471663C50267164C80705642D08119543D32658067
404D55051208D75389935D93549953E09664170E24290616E38069128E51184570
397E63321001E74235673E84118481E93179002F01280583F08271451F14314721
390F19739668F24873577F30060806F35656821F41923037F48899600F55769016
383F58323069F46534115F10398516E54902073E05486395D89219155E10426201
376E50673666E89838597F20300852F43771693F63331630F80519028F95916000
369G09952146G23182257G36070779G48711565G60982855G72528947G81709866
362G85354950G82199255G76565121G74777736G76975154G75969326G63721501
355G34210118F81914855F06001419E18312008D41517859C95374572C84640205
348C98999465D22452222D43832831D61541382D80179331E03323432E29768298
341E55729388E78648907E98176259F14897030F29379029F42096989F53463477
334F63700348F72825998F80972792F88637836F96260942G03648240G10267622
327G16006602G21252374G26366483G31285553G35481142G38306550G39563854
320G39739015G39669871G40065326G41334558G43868498G48381434G55681580
313G65924687G78165731G90784691H02557003H13410248H24035949H34869004
306H45705958H56147845H65778943H72893951H72459674H57719067H28365071
299G97336020G83958967G97424029H29649581H64913742H92872690I11778641
292I23526007I28793761I25598935I08666755H68053067G92493110F82468477
285E61475151D64973032D10898335C84371579C54929457C06050681B46743951
278A99023245A78003189A82751172B02072612B25371372B47749818B68275866
271B87039786C04329205C20908530C37806799C55609870C74147843C92916596
264D11512020D29537101D46491263D62043323D76269012D89565266E02373106
257E14880243E26954350E38366012E48932039E58439348E66655442E73550583
250E79472753E84951176E90248475E95307744F00181835F05149354F10390253
243F15889489F21466483F26661313F30965217F34219406F36479147F37734737
236F37831944F36049470F30492861F17891557E94408321E59151176E19310353
229D89723628D83214394E00719333E32177398E65688123E94202915F15855346
222F31688894F43831989F54087803F63304892F71685857F77301828F73449545
215F52767785F18128262E84894816E66948156E64023708E66447385E64977074
208E56498044E44428965E30681557E14364544D95318279D74840639D54185227
201D33864000D14780747C99312331C90065931C86425251C83735131C77886393
194C69581978C62589083C59180314C58796590C60112827C62863673C67466098
187C73765211C80860769C87941477C94988549D02748345D12019066D23122813
180D36338620D51521300D64703081D66129543D47247135D11904981C76972744
173C59049157C61586568C76121107C92902563D07165047D18395585D27692615
166D35907306D43278935D50087821D56919587D64305793D72362590D80605695
159D87607086D89612545D79400580D50611470D07881591C69712705C53852692
152C61956689C82854730D05042308D23175315D36894854D47424205D55782057
145D62578159D68228702D73112303D77641452D82196015D86893855D91428812
138D95168726D97615048D98948941E00066086E02000842E05168229E08887953
131E11609996E12125304E11035794E10725229E13308437E18868242E26141923
124E34053767E40972605E42803333E34520587E14928457D88857843D64489255
117D48670752D43683200D47092125D54253515D61619804D68138627D74132592
110D79987683D85936981D91999701D97850115E03221703E08115322E12150951
103E14160074E13447349E11523195E11224752E14182523E19964456E27095834
96E34070293E39513091E42783610E44969647E48046220E52564534E57212094
89E60940159E63761124E65252599E63388118E55465712E41459695E26551410
82E17662114E17218561E22032980E27452975E31474496E34759631E38177054
75E41737637E45059371E47953378E50531246E52840761E54706917E55964612
68E56392730E55864364E55153393E55723659E58313804E62576588E68014008
61E74399336E81203973E87488118E91760880E90165455E77241114E52424608
54E24008855E04032298E00231191E11317165E29781394E48536272E64291321
47E76957404E87490223E96458486F04069197F11454663F21225881F35496666
40F53627256F73386559F92562226G05018264F97637359F55466558E64117213
33D24837390B98635729B48302739B57816654B93998985C38913538C82314008
26D19135905D48139268D69601182D85858872E00426073E14682710E27231745
19E36749305E45208496E55518759E64827560E69709603E71849531E73785728
12E74994585E73607216E68973999E58878964E37391560E03566800D66605602
5D38162020D25350477D30329494D52168661D81712200
$$ === CHEMSPECTRA INTEGRALS AND MULTIPLETS ===
##$OBSERVEDINTEGRALS= (X Y Z)
##$OBSERVEDMULTIPLETS=
##$OBSERVEDMULTIPLETSPEAKS=
$$ === CHEMSPECTRA SIMULATION ===
##$CSSIMULATIONPEAKS=
##END=


$$ === CHEMSPECTRA PEAK TABLE EDIT ===
##TITLE=LSH-R224A
##JCAMP-DX=5.00
##DATA TYPE=INFRAREDPEAKTABLE
##DATA CLASS=PEAKTABLE
##$CSCATEGORY=EDIT_PEAK
##$CSTHRESHOLD=0.93
##MAXX=3997.453
##MAXY=0.821007135581981
##MINX=373.96442
##MINY=0.1361052398210887
##$CSSOLVENTNAME=
##$CSSOLVENTVALUE=0
##$CSSOLVENTX=0
##NPOINTS=0
##PEAKTABLE= (XY..XY)
##END=


$$ === CHEMSPECTRA PEAK TABLE AUTO ===
##TITLE=LSH-R224A
##JCAMP-DX=5.00
##DATA TYPE=INFRAREDPEAKTABLE
##DATA CLASS=PEAKTABLE
##$CSCATEGORY=AUTO_PEAK
##$CSTHRESHOLD=0.93
##MAXX=3997.453
##MAXY=0.821007135581981
##MINX=373.96442
##MINY=0.1361052398210887
##NPOINTS=100
##PEAKTABLE= (XY..XY)
3614.9893891321344, 0.7481296090436566
3807.6377264581706, 0.7477976114920855
3803.3881307818606, 0.7474015385766904
3865.715534034402, 0.7458477048869786
3607.9067296716185, 0.7457457210698412
3821.8030453792026, 0.7443760658199994
3840.217959976544, 0.7443525223292177
3844.4675556528537, 0.7436377432948215
3874.214725387021, 0.7429401904402771
3855.799810789679, 0.7419014599766669
3595.1579426426897, 0.7412068272153737
3886.96351241595, 0.7407907273079825
3892.6296399843627, 0.7390458611024899
3589.491815074277, 0.7388719347208318
2282.032878663018, 0.7386202836994591
3905.3784270132915, 0.7374419599327876
2296.19819758405, 0.7372987300852116
3950.707447560594, 0.737182321664989
3933.709064855356, 0.7370747354589405
3920.960277826427, 0.7369641687544651
3956.373575129007, 0.7368059186628919
3943.624788100078, 0.7367309359593907
3983.287681078968, 0.7365573077804998
3971.9554259421425, 0.7357979443739172
2263.6179640656765, 0.7346277860107097
3996.036468107897, 0.7344812774619394
2313.1965802892882, 0.7332125332638955
2324.528835426114, 0.7304940250834027
3568.2438366927286, 0.7301685834049751
3554.0785177716966, 0.7249363092408367
2358.525600836591, 0.7232335240335309
2347.1933456997654, 0.7217943095474385
2381.1901111102425, 0.7209160351112563
2375.5239835418297, 0.7207275059694751
2395.3554300312744, 0.7196348336837683
2402.4380894917904, 0.7194684770646621
2486.0134711258797, 0.7120191479056195
2443.517514362783, 0.7074562930764963
2463.348960852228, 0.7071436075949026
2522.843300320563, 0.7049554018061688
2542.6747468100075, 0.700993004245967
2605.002150062549, 0.6818423888929939
2617.7509370914777, 0.680115046305498
2658.8303619624703, 0.6781111978782945
2647.4981068256448, 0.6779495505690427
2675.828744667709, 0.6731089382132122
2699.909786833464, 0.6722449086938322
3467.670072353401, 0.6716175703570039
1086.4799617279123, 0.6643458630000653
2998.79801606724, 0.6258163473711127
1609.180229913995, 0.6126478339819126
2861.394422533229, 0.6124549533735977
1602.097570453479, 0.6084401034758904
794.6743919546516, 0.5994326495657781
881.0828373729473, 0.5924124739491052
1284.7944266223608, 0.5916908408387983
2935.054080922596, 0.5895569943560351
2970.4673782251757, 0.5871860407360915
1298.9597455433932, 0.5857351443477496
1263.5464482408129, 0.5660511872286595
824.4215616888191, 0.5655682111453001
1648.8431228928848, 0.5593470950758814
3116.370163111806, 0.528862895891875
1392.4508504222044, 0.5218398590578819
3083.789929593432, 0.49870050107715863
1375.452467716966, 0.49467724721377365
1335.7895747380762, 0.48640814641373853
1572.350400719312, 0.4689236595017575
1130.3924503831117, 0.4426353888757944
1243.7150017513682, 0.4358862658113017
671.4361173416728, 0.43126520638975585
1223.883555261923, 0.4277467448183297
466.03899298670785, 0.4244827641360746
1349.9548936591086, 0.4121295822251256
971.7408784675526, 0.3998235477009158
487.2869713682562, 0.39547693881385126
1477.442763948397, 0.39130684914327457
514.2010773182169, 0.39089393771162495
553.8639702971068, 0.3905119911965479
3293.4366496247067, 0.38791594036471705
446.20754649726314, 0.3824880138357737
907.9969433229085, 0.37406796355960437
1179.971066606724, 0.373571069817864
1143.1412374120405, 0.3728711619260813
695.5171595074276, 0.3694765883119771
536.8655875918685, 0.339250148718336
1450.5286579984358, 0.33025932458254126
1055.3162601016415, 0.32810816322371855
378.2140156763094, 0.32523253659292295
1199.8025130961687, 0.2972679741639636
866.9175184519154, 0.2941045474548084
617.607905441751, 0.2745370576318718
643.1054794996089, 0.2743439384613432
589.2772675996871, 0.27056372291171615
1017.0698990148553, 0.26897245712849593
953.3259638702107, 0.2398475862031164
1498.690742329945, 0.23703014963691624
997.2384525254101, 0.216840416921358
416.46037676309606, 0.18985785608497271
764.9272222204845, 0.1361052398210887
##END=

##END=

