##TITLE=NR-SMO-R6
##JCAMP-DX=4.24
##DATA TYPE=INFRARED SPECTRUM
##DATE=21/2/2019
##SAMPLING PROCEDURE=Diamant-ATR
##ORIGIN=Angelika Moesle
##XUNITS=1/CM
##YUNITS=TRANSMITTANCE
##RESOLUTION=4
##FIRSTX=3997.453
##LASTX=373.96442
##DELTAX=-1.4165319
##MAXY=0.90829378
##MINY=0.27638051
##XFACTOR=1
##YFACTOR=8.4591451e-010
##NPOINTS=2559
##FIRSTY=0.9071328
##XYDATA=(X++(Y..Y))
3997+1072369368+1071989438+1071598587+1071523263+1071874727+1072523398
3989+1073178904+1073436723+1072974565+1071965129+1071114444+1070959499
3980+1071292783+1071614511+1071882337+1072349357+1072896493+1073108653
3972+1072967237+1072911008+1073179397+1073542346+1073682142+1073475971
3963+1072979427+1072475343+1072420242+1072973155+1073654380+1073741823
3955+1073030723+1072071526+1071553773+1071576744+1071702448+1071635579
3946+1071521361+1071547291+1071629872+1071537990+1071160103+1070682936
3938+1070484163+1070736417+1071131284+1071142135+1070567308+1069718526
3929+1069070277+1068898069+1069268275+1070022921+1070757626+1071154114
3921+1071250647+1071199703+1071088725+1071026155+1071035175+1070978664
3912+1070907075+1071090980+1071439343+1071415668+1070879313+1070478245
3904+1070742758+1071144249+1070959358+1070520803+1070491914+1070743885
3895+1070802439+1070742899+1071113528+1072010013+1072567155+1072133603
3887+1071161865+1070491210+1070246848+1069879390+1069386792+1069356423
3878+1069764608+1069967678+1069872626+1069968101+1070403555+1070731837
3870+1070630231+1070218029+1069660042+1069082749+1068794208+1069047518
3861+1069625305+1070080629+1070162505+1069828305+1069125519+1068254823
3853+1067771526+1067977274+1068361643+1068435276+1068100582+1067607913
3844+1067434507+1067887647+1068708033+1069334086+1069596274+1069876853
3836+1070419691+1070921308+1071050606+1070808992+1070394888+1069994454
3827+1069710563+1069530322+1069349024+1069181043+1069230085+1069516512
3819+1069727545+1069805828+1070026937+1070353034+1070258263+1069488679
3810+1068394055+1067673443+1067881235+1068699930+1069111075+1068663079
3802+1067768003+1067152448+1067090794+1067261312+1067328603+1067193457
3793+1066967698+1066848194+1066968332+1067279984+1067566623+1067657730
3785+1067568173+1067419851+1067369964+1067556194+1067918086+1068227625
3776+1068459726+1068689290+1068705497+1068313024+1067881235+1068015535
3768+1068661740+1069247066+1069427307+1069178013+1068737345+1068510811
3759+1068608753+1068632850+1068368760+1068125244+1068033643+1067762013
3751+1067110524+1066424860+1065950370+1065762308+1066392095+1068082614
3742+1069537157+1069670400+1068886090+1067983122+1067582406+1068005036
3734+1068927240+1069451898+1069129254+1068352835+1067638353+1067122995
3725+1066773716+1066715585+1067098968+1067800485+1068469027+1068775113
3717+1068566616+1067872145+1066821701+1065594257+1064510836+1063997592
3708+1064159443+1064671137+1065144569+1065452487+1065705868+1065883009
3700+1065742579+1065363494+1065227855+1065569243+1066040068+1066145127
3691+1065772384+1065188044+1064713343+1064520419+1064619418+1064880056
3683+1065134141+1065368779+1065673808+1065877936+1065581926+1064879985
3674+1064588062+1064956577+1065454672+1065797327+1065967634+1065858841
3666+1065408237+1064776829+1064322210+1064379777+1064875194+1065329320
3657+1065397668+1065143653+1064702844+1064026623+1063168187+1062518882
3649+1062602379+1063291072+1063797833+1063742662+1063356602+1063014932
3640+1062819471+1062565527+1062078848+1061395087+1060673135+1060084568
3632+1059717955+1059653342+1060088091+1060909746+1061502752+1061628174
3623+1061498172+1061188774+1060503745+1059458585+1058618258+1058453659
3615+1058875866+1059591758+1060313921+1060758958+1060775305+1060530027
3606+1060443007+1060731407+1061181305+1061411856+1061201598+1060675601
3598+1060243600+1060325336+1061038691+1062036359+1062776772+1063002108
3589+1062815596+1062487808+1062235343+1062039037+1061864080+1061883669
3581+1062233793+1062688624+1062790582+1062309187+1061423835+1060530168
3572+1059981412+1059924479+1060297785+1060892412+1061350484+1061289464
3564+1060634733+1059671521+1058871850+1058675755+1059149681+1059855426
3555+1060227394+1060041516+1059489518+1058869877+1058362130+1058122771
3547+1058360791+1059072807+1059852467+1060237258+1060096617+1059536657
3538+1058664270+1057633837+1056850654+1056784913+1057470506+1058455985
3530+1059270805+1059652919+1059437870+1058709858+1058016726+1057906665
3521+1058301462+1058734168+1058947244+1058898978+1058575206+1058130803
3513+1057911879+1058096982+1058476912+1058689424+1058616567+1058458733
3504+1058414624+1058378899+1058063090+1057456414+1056966704+1056984179
3496+1057448733+1058013203+1058537650+1059045538+1059317450+1059091620
3488+1058588594+1058237976+1058015246+1057649620+1057254470+1057198030
3479+1057515672+1057858116+1057914627+1057684428+1057408359+1057271804
3471+1057256302+1057334374+1057600579+1058067317+1058540680+1058827811
3462+1058882560+1058711761+1058341837+1057901662+1057550128+1057310558
3454+1057114463+1056986716+1057028077+1057246931+1057538008+1057795124
3445+1057945841+1057914979+1057651452+1057216139+1056794284+1056551050
3437+1056495033+1056548655+1056639832+1056632997+1056455716+1056404490
3428+1056881446+1057698732+1058202252+1058147080+1057872561+1057636373
3420+1057367068+1057046326+1056840366+1056814296+1056772089+1056449444
3411+1055884764+1055560287+1055984397+1057059855+1057980508+1057896870
3403+1056743411+1055353130+1054665986+1054872087+1055376452+1055510823
3394+1055197550+1054909502+1055035981+1055405835+1055603973+1055594391
3386+1055672251+1055859045+1055810638+1055389417+1054902949+1054689168
3377+1054809658+1055174086+1055608201+1055784144+1055478763+1054958473
3369+1054746101+1054935150+1055116096+1055049439+1054976934+1055081781
3360+1055124622+1054898510+1054625330+1054577486+1054666127+1054697412
3352+1054730388+1054898369+1055122508+1055212629+1055093196+1054799089
3343+1054379489+1053918034+1053539655+1053303326+1053188191+1053275423
3335+1053735186+1054445582+1054884840+1054666761+1053967146+1053243222
3326+1052788955+1052666422+1052771833+1052861953+1052752244+1052563759
3318+1052640351+1053193969+1054079956+1054899497+1055266884+1055018013
3309+1054295710+1053482369+1052928892+1052688476+1052597017+1052541845
3301+1052501118+1052450104+1052418960+1052511265+1052737940+1052950101
3292+1052955456+1052636757+1052106814+1051765075+1051945386+1052490126
3284+1052922691+1052983288+1052801356+1052636546+1052593846+1052516761
3275+1052189607+1051711946+1051474561+1051642542+1051879645+1051733014
3267+1051157624+1050580119+1050520156+1051162274+1052236675+1053225325
3258+1053655494+1053319673+1052428402+1051563413+1051250844+1051485482
3250+1051851038+1052108787+1052357517+1052586236+1052564745+1052343002
3241+1052316368+1052551921+1052593141+1052150571+1051490415+1050986260
3233+1050749086+1050783049+1051078424+1051443487+1051527477+1051140995
3224+1050478090+1049933068+1049697585+1049620570+1049483381+1049245573
3216+1048983455+1048799197+1048841686+1049191810+1049700967+1050091678
3207+1050170877+1049888466+1049362539+1048909963+1048820899+1049050393
3199+1049306029+1049392063+1049277139+1048953720+1048475214+1048028134
3190+1047751430+1047562100+1047316681+1047026590+1046807383+1046761936
3182+1046998617+1047582745+1048365716+1048990853+1049134525+1048682231
3173+1047787718+1046853606+1046254681+1045957544+1045659420+1045356434
3165+1045406392+1045884827+1046309148+1046233754+1045807813+1045481715
3156+1045431406+1045530475+1045675063+1045845298+1045968536+1045960856
3148+1045868762+1045837477+1045930768+1046012293+1045867917+1045518426
3139+1045275544+1045334662+1045480518+1045356012+1044860947+1044184655
3131+1043648864+1043542537+1043877301+1044288093+1044341855+1043921480
3122+1043230321+1042549871+1042095393+1041956512+1042055934+1042231454
3114+1042387598+1042464965+1042328621+1041906696+1041388027+1041028390
3105+1040797205+1040436934+1039826594+1039115987+1038530449+1038117332
3097+1037666658+1036920609+1035889119+1034878838+1034166962+1033733270
3088+1033329524+1032776540+1032150910+1031628788+1031218771+1030767815
3080+1030173682+1029407128+1028331740+1026692799+1024364389+1021526893
3071+1018563694+1015879029+1013808580+1012491227+1011743416+1011280341
3063+1011132582+1011608481+1012843606+1014660815+1016820399+1019169876
3054+1021579035+1023895114+1025978176+1027752192+1029242741+1030527400
3046+1031606733+1032385195+1032827061+1033079032+1033364403+1033745249
3037+1034081422+1034219738+1034119330+1033814865+1033434512+1033227566
3029+1033373351+1033750463+1034035058+1034052391+1033936834+1033895825
3020+1033920910+1033853689+1033665133+1033496589+1033437119+1033394419
3012+1033221717+1032902455+1032528585+1032110112+1031565866+1030966306
3003+1030588913+1030600610+1030853779+1031077213+1031089967+1030778385
2995+1030080038+1029097448+1028059758+1027001422+1025609449+1023571201
2986+1020958126+1018045940+1014915887+1011411752+1007280789+1002179497
2978+995738656+987770767+978344883+967715793+956224110+944124131+931453341
2968+918192010+904546522+891034771+878357357+867192476+858042238+851245424
2958+847082049+845768923+847365799+851646352+857908291+864893379+871094156
2948+875361956+877322767+877213340+875396201+872167853+867946840+863312498
2938+858768981+854695867+851494436+849523902+848931741+849722111+851852171
2928+855118568+859133128+863554323+868236861+873097385+877964955+882693293
2918+887362937+892210637+897340255+902659979+908113580+913736289+919394863
2908+924718392+929431088+933600945+937437590+940986820+944152950+946941898
2898+949611342+952569610+956037950+959759389+963159241+965855813+967855096
2888+969212895+969736707+969087050+966938318+962953352+956781674+948214578
2878+937394608+925059709+912704588+902298087+895520720+893028135+894196250
2868+897411069+900801408+903083031+903984449+904044905+904157010+905236343
2859+908000277+912745174+919259436+926969435+935220016+943529927+951665797
2849+959456686+966586925+972713929+977770619+981971057+985512608+988456994
2839+990903498+993055612+995069762+996980051+998796486+1000536610+1002130456
2829+1003432730+1004383682+1005090344+1005747400+1006526073+1007476109
2820+1008461517+1009282961+1009923317+1010532741+1011139276+1011608975
2812+1011943668+1012341073+1012855162+1013266024+1013417588+1013446900
2803+1013534836+1013658708+1013772010+1013992344+1014362128+1014649189
2795+1014681602+1014659477+1014825766+1015082529+1015228174+1015314137
2786+1015531864+1015948927+1016489299+1017026358+1017470479+1017839699
2778+1018181861+1018450109+1018585607+1018652475+1018739002+1018825036
2769+1018880208+1018991608+1019268734+1019676215+1020028524+1020142742
2761+1019983076+1019681781+1019434319+1019361744+1019454965+1019604414
2752+1019645564+1019430726+1018976106+1018508240+1018240697+1018172631
2744+1018201450+1018274377+1018310031+1018180804+1017896491+1017618378
2735+1017419183+1017203077+1016911506+1016664749+1016635577+1016842101
2727+1017147975+1017435741+1017678341+1017867108+1018020010+1018241120
2718+1018596036+1018981109+1019260420+1019437842+1019572777+1019657120
2710+1019681217+1019713912+1019808119+1019918180+1020003932+1020137105
2701+1020380762+1020623221+1020683607+1020552125+1020377873+1020251324
2693+1020112725+1019865757+1019519719+1019195383+1018992876+1018892186
2684+1018813128+1018700037+1018523671+1018306438+1018119009+1017932356
2676+1017577088+1016993312+1016373741+1015921799+1015640023+1015482893
2667+1015533344+1015882693+1016437439+1016983799+1017405725+1017749296
2659+1018103085+1018503942+1018930659+1019305515+1019525004+1019545156
2650+1019434813+1019346383+1019420509+1019639645+1019802834+1019774861
2642+1019686361+1019766899+1020095956+1020606169+1021130264+1021411688
2633+1021284223+1020880266+1020501040+1020326366+1020357439+1020560299
2625+1020923952+1021394637+1021828963+1022082132+1022143645+1022149705
2616+1022257018+1022504973+1022769910+1022868768+1022761877+1022616092
2608+1022637583+1022900264+1023328883+1023767930+1024089095+1024280822
2599+1024417729+1024554354+1024658215+1024601211+1024314221+1024037658
2591+1024166462+1024674069+1025017429+1024820277+1024304426+1023887575
2582+1023719876+1023715225+1023732347+1023668438+1023562746+1023589451
2574+1023829937+1024068732+1023919564+1023231998+1022326987+1021735390
2565+1021721438+1022160204+1022747644+1023182252+1023271668+1023039637
2557+1022715513+1022567755+1022705930+1022959381+1023021952+1022833255
2548+1022644276+1022582622+1022449520+1022112079+1021815928+1021931837
2540+1022531397+1023257646+1023566551+1023174924+1022307328+1021440366
2531+1020839609+1020476731+1020359130+1020676631+1021443044+1022207766
2523+1022456143+1022169787+1021705796+1021327487+1021115608+1021075092
2514+1021130546+1021245962+1021510969+1021853131+1021898791+1021413943
2506+1020626744+1019952566+1019644930+1019721592+1020028101+1020417473
2497+1020851306+1021192482+1021169793+1020811918+1020536342+1020527675
2489+1020462357+1020069744+1019522538+1019114564+1018885352+1018620909
2480+1018045236+1017105205+1016165950+1015736062+1015936033+1016429265
2472+1016831743+1016967875+1016819412+1016521006+1016366766+1016573712
2463+1017032629+1017446522+1017656569+1017695323+1017608443+1017382472
2455+1017012618+1016573500+1016229788+1016157212+1016390652+1016779038
2446+1017117677+1017271495+1017145862+1016639875+1015750295+1014773907
2438+1014268836+1014579362+1015380019+1015910103+1015713585+1015021932
2429+1014447457+1014438790+1014939562+1015447169+1015490573+1015099510
2421+1014688859+1014530743+1014544060+1014575345+1014631715+1014728177
2412+1014695694+1014329363+1013669770+1013026313+1012741155+1012936897
2404+1013427241+1013868754+1014019965+1013817106+1013308795+1012692818
2395+1012278784+1012183661+1012222979+1012223190+1012196415+1012158013
2387+1012087903+1012077193+1012216355+1012422597+1012579445+1012674004
2378+1012688801+1012656671+1012862983+1013558793+1014449148+1015010165
2370+1015271367+1015652495+1016173066+1016580265+1017036575+1017787275
2361+1018292768+1017606611+1015698506+1013662795+1012457264+1012033436
2353+1011829027+1011503634+1010968407+1010186210+1009215388+1008318832
2344+1007892045+1008155643+1008886402+1009522531+1009705590+1009690018
2336+1009850319+1009982717+1009640766+1008872732+1008054248+1007295586
2327+1006550805+1006030022+1006084912+1006779313+1007717934+1008369212
2319+1008611883+1008776200+1009052551+1009196081+1009083131+1009234272
2310+1010230813+1011743416+1012744537+1012688097+1011997712+1011414148
2302+1011341643+1011813173+1012595228+1013241222+1013413290+1013266306
2293+1013275184+1013643629+1014120867+1014405462+1014458379+1014410606
2285+1014430335+1014624528+1014799273+1014501783+1013590571+1012543157
2276+1011970866+1012123909+1012903005+1013920192+1014528911+1014282999
2268+1013451762+1012733122+1012411041+1012147937+1011695290+1011387866
2259+1011649208+1012358054+1012971987+1013021099+1012429784+1011632650
2251+1011200649+1011154707+1011085655+1010980949+1011158442+1011430284
2242+1011201283+1010331221+1009164585+1007898457+1006531710+1005227533
2234+1004308147+1003998186+1004340419+1005263468+1006607174+1007970821
2225+1008641688+1008077219+1006614009+1005365004+1005227392+1006241901
2217+1007849627+1009385342+1010354473+1010625469+1010402317+1009894076
2208+1009268939+1008958977+1009422686+1010483066+1011479959+1012151178
2200+1012723539+1013157372+1013056964+1012422385+1011797812+1011485596
2191+1011228411+1010871733+1010686559+1010793027+1010852990+1010597707
2183+1010200162+1010109618+1010784290+1012262578+1013823588+1014588099
2174+1014571258+1014654051+1015347747+1016004733+1015530877+1013700915
2166+1011378071+1009476942+1008458417+1008814249+1010699031+1012897932
2157+1013924913+1013996220+1013944149+1013513557+1012230448+1010769141
2149+1010460236+1011722418+1013343885+1013424352+1011304086+1008429950
2140+1006879368+1007311863+1008843350+1010421975+1011478973+1011692472
2132+1011111585+1010272315+1009497094+1008437419+1006801226+1005081606
2123+1004091548+1004104161+1004709286+1005232747+1005169472+1004496421
2115+1003704854+1003387423+1003691818+1004215279+1004434204+1004148551
2106+1003488536+1002726280+1002242278+1002393771+1003148487+1004051244
2098+1004681313+1004922786+1004817938+1004478665+1004080274+1003706827
2089+1003269118+1002664204+1001941688+1001391241+1001450429+1002201058
2081+1002920684+1002724660+1001825849+1001412943+1002012150+1002923714
2072+1003679769+1004792643+1006280866+1006801156+1005437297+1003372274
2064+1002521237+1003150038+1003939491+1003899821+1003292018+1002914202
2055+1003146373+1003687168+1003902288+1003492059+1002945276+1003104660
2047+1004022848+1004645871+1004087179+1002815414+1002187530+1002883481
2038+1003890520+1003307801+1000574377+997653666+997194537+999634981+1002727478
2028+1003671455+1001628486+998560227+997262462+998307974+999679372+999674440
2019+998874276+998756675+999680358+1001063241+1002595856+1004100497+1004640868
2009+1003196754+1000432467+998454182+998307833+999118144+999915489+1000737003
1999+1001680557+1002277368+1002303228+1002122564+1001862983+1001105518
1990+999743281+998356593+997382811+996582577+995677143+995112673+995658752
1980+997212082+998494980+998522671+997962007+998007737+998486243+998488850
1970+998303817+999165565+1001045485+1002139756+1001301543+999531120+998274787
1960+997679948+997132108+996528814+996280155+996531844+996880841+996871118
1951+996608788+996630913+997150005+997812839+998146335+997857794+996906912
1941+995684823+994775795+994370852+994196881+993969219+993702240+993541235
1931+993446604+993225073+992874384+992645877+992717959+993006782+993243886
1921+993099087+992456123+991672024+991144336+990614111+989630746+988410067
1911+987525983+987019080+986423044+985553334+984706172+984197509+984091887
1901+984338926+984909314+985712649+986537404+987216726+987794724+988462067
1891+989353902+990334237+990978751+991040898+990820916+990813659+991141024
1881+991481002+991501648+991240305+991012925+990997212+991021380+990829654
1871+990414563+990049994+990062536+990452401+990838602+990924566+990758910
1861+990528782+990276599+989911537+989386455+988769844+988221018+987886536
1851+987723416+987504421+987090952+986612446+986330598+986371255+986586516
1841+986764009+986825099+986693970+986254500+985556998+984879861+984486261
1832+984418688+984419816+984015224+982969501+981606206+980597405+980367981
1822+980654479+980899968+980887214+980795262+980763906+980716908+980661807
1812+980767429+981039834+981268624+981393412+981580840+981946819+982425677
1802+982816387+982878957+982563430+982134388+981933360+982103666+982501423
1792+982737963+982535456+982049059+981536167+981018837+980354664+979500244
1782+978622995+977886740+977225104+976449743+975567843+974878586+974793538
1772+975433965+976340738+977049020+977577624+978073112+978554577+979035197
1762+979539069+979975862+980270885+980490021+980610370+980489528+980216277
1752+980169279+980599660+981229940+981570834+981516790+981218244+980802871
1742+980365586+979982908+979658361+979342058+979056265+978979743+979274344
1732+979658924+979709093+979441409+979086916+978794499+978567260+978338048
1723+978057046+977748635+977509699+977443042+977520268+977565646+977514631
1713+977425568+977305994+977091720+976787677+976571500+976596021+976684803
1703+976555365+976198123+975835034+975594055+975364842+974961519+974293048
1693+973534245+972934475+972504940+971988243+971205201+970324218+969666528
1683+969190488+968593324+967927460+967439653+967275830+967364471+967473968
1673+967552604+967882647+968742633+969902997+970734024+971040321+971097184
1663+971219294+971481200+971710906+971796235+971798772+971915950+972549824
1653+973809258+974505984+974066584+973156147+972379306+972016851+971841471
1643+971541304+971110924+970665112+970297724+970111423+970211338+970445976
1633+970456616+970173782+969758621+969396095+969176748+969006089+968766449
1623+968532163+968432953+968405543+968335434+968215649+968008844+967626377
1613+967191416+966972492+967103480+967473968+967875319+968224527+968537518
1604+968769338+968809642+968623975+968293721+967891666+967418162+966846999
1594+965968270+963984560+959499456+951609709+941598076+933157952+930039877
1584+933207769+940346534+947997133+954114766+958663920+962338079+965117162
1574+966625045+967273998+967789003+968497285+969158428+969547377+969808790
1564+970053151+970234027+970496567+971355356+972713647+973323142+973040449
1554+972444061+971919332+971693854+971770094+971868035+971755015+971531510
1544+971395026+971324071+971265587+971367827+971531721+971510019+971374169
1534+971304341+971352537+971425113+971459921+971501493+971658694+971981056
1524+972319696+972431589+972250995+972033903+972021572+972140723+972187368
1514+972107465+971999306+971910806+971820544+971826956+972146571+972521146
1504+972418412+971982536+971550535+971218730+970880866+970485716+970143977
1494+969833451+969380805+968708106+967779702+966298736+963646484+959205489
1485+952497316+943469541+933369901+924924704+920488219+920096663+921363918
1475+920125552+911793517+895854568+878253144+864392043+855704457+852258101
1465+853053051+855216721+856518925+857083888+858119746+860805468+864255277
1455+864616393+857823736+839059904+803138558+752018956+704275391+686428971
1445+706409396+748659550+792635736+826939914+851806159+872537848+891378554
1435+905827658+914981419+921100532+926082673+930324684+933581850+935878975
1425+937395031+938145731+938110852+937252557+935336137+932194740+927988594
1415+922740812+916350492+909115828+901830996+895401428+890401812+887072352
1405+885760002+886867379+890358760+896000776+903422516+911480385+918821445
1395+925035329+930119922+933841079+936211625+937435617+937290113+935197257
1385+931048820+925543993+919898665+915692308+914334650+916149112+920253934
1375+925258411+929776844+932863281+934490385+935241155+935604244+935806399
1366+936069222+936698234+937793915+939016709+939936024+940463430+940731537
1356+940796432+940550521+939871199+938776857+937363746+935694436+933871660
1346+932137031+930723357+929555453+928165242+926002347+922949308+919330250
1336+915121638+909383512+900551339+887149578+868410690+844477640+816144112
1326+784490706+750842104+716923986+684856969+657171195+636654415+625085365
1316+621557978+622368359+622354830+616745156+603153783+582720535+559664347
1306+539298919+525200714+517510233+513779141+511343312+509191303+508156396
1296+509606887+513928907+520282376+527667440+535842275+545169161+555957353
1286+568274460+582268628+598175799+615707043+633727573+650915809+666685086
1276+681376298+695770794+710474337+725499748+740216396+753678613+765109206
1266+774196591+781023915+785734145+788353632+789081855+788785774+789100175
1256+791874748+798333487+808496613+821195799+834640400+847201904+857978752
1247+866805711+873851678+879325995+883444134+886393242+888244343+888934728
1237+888288523+886042271+881976908+876069392+868461070+859331337+848997412
1227+838297508+828908123+823106793+822839179+828604292+838959496+851107812
1217+862326738+871281303+878228905+884118876+889588472+894700122+899271894
1207+903153916+906268256+908623723+910299304+911293661+911411755+910326432
1197+907664527+902984525+895842519+886227375+875241607+865154158+858111573
1187+854416275+852304465+849606554+845481580+840712022+836899476+835483546
1177+837024263+841030157+846414846+852090895+857100869+860400594+860953931
1167+858292166+852922908+846094175+839061948+832124703+823591993+809370268
1157+784172782+744317061+690329735+627160958+561653448+499447108+443846419
1147+396808599+360201060+336143329+326723927+333413392+356098387+392255535
1137+437177317+485373318+532243933+574946169+612250399+644054523+670970995
1128+693865790+713487987+730463710+745392871+758696690+770434425+780398497
1118+788361242+794227185+798043255+799935788+800112858+799012457+797379998
1108+795998806+795229504+794857255+794428495+793702034+792740019+791557952
1098+789555851+784971396+774564684+753921495+719036077+669458180+611597218
1088+558932919+526875555+524551902+549611529+590366942+633261328+669261592
1078+695101689+710909368+718029390+718765716+716924267+717230706+723244126
1068+735512086+751810460+769069722+785021917+798582076+809528596+818180739
1058+825130244+830937140+835924566+840175314+843663948+846432885+848693228
1048+850718300+852615624+854270278+855531615+856389839+856969246+857409844
1038+857771877+858026807+858099031+857842972+856825504+854005553+847867627
1028+837665043+825169491+814776378+810847852+814524266+823256665+833215734
1018+841794808+848216272+852761691+855929301+858051258+859276517+859644962
1009+859032720+857042174+852999852+846029279+835469595+822126810+809456373
999+802373906+803627069+811457064+821369558+829812359+835787307+839830052
989+842650003+844805288+846845156+849128400+851471466+853288957+854219616
979+854381467+853885627+852462370+849876281+846525683+843382030+841410228
969+841058130+842058547+843634988+845049156+846010889+846613408+847125806
959+847934707+849357471+851306797+853379853+855435928+857875737+861202802
949+865403592+869840078+873710614+876590246+878561485+879921820+880816967
939+881093740+880482837+878981367+877019499+875171287+873795238+873008603
929+872860281+873421086+874777617+876961509+879836491+883036442+886014439
919+888222570+889421830+889843332+889893924+889713401+889168872+888225107
909+887121323+886176501+885557565+885271701+885254368+885355340+885343995
899+885136978+884968363+885108301+885477591+885785791+885969062+886244426
890+886797904+887605043+888485675+889212840+889623633+889693108+889505327
880+889217773+889005894+888910137+888796834+888573893+888267173+887773729
870+886816646+885294390+883446741+881614805+880000808+878634483+877450091
860+876398449+875416353+874238514+872483029+870119740+867703888+866024924
850+865559947+866173317+867210373+867886243+867561414+865625970+861359227
840+854217009+844342002+832804800+821450589+812479042+807796363+808248446
830+813154418+820654652+828778121+836295548+842729131+848009326+852337793
820+856009839+859068444+861281367+862501976+862770576+862014451+859958235
810+856465304+851793828+846403643+840553765+834071562+826405320+816843375
800+804770593+789889488+772335484+752759087+732606031+714322184+700751879
790+693831193+693706123+698934881+707348229+716930679+726487975+735866015
781+745524917+755803459+766445443+776567560+784883742+790024845+790977277
771+787575100+780556542+770917230+759306889+746151956+731964687+717216331
761+702246937+687595255+674045454+662004099+651121628+640823991+631006339
751+622009356+614142791+607500218+602236511+598840253+598034030+600477362
741+606465134+615448166+625534911+633650559+636602273+632448128+621419450
731+606174902+591229394+581261166+579022630+584457594+595565683+609697146
721+624216360+637280609+649067104+661792854+677787397+697389231+718669253
711+739074281+756990035+771765096+783042927+790420981+793373611+791308095
701+783657918+769607345+747660754+716079994+674575890+626049776+576950173
691+536198636+513148050+514579481+541125570+585306130+634282108+676303754
681+705673353+723186065+733405913+741523533+750973515+762168272+773146429
671+782342185+790831984+801306551+813176966+822519776+829066732+834714526
662+840243944+845366304+849670251+852990340+855482010+857608898+859709012
652+861720696+863488371+865018448+866304023+867219815+867831917+868637577
642+870115654+872044827+873647832+874432565+874626476+874861678+875600399
632+876779788+877996381+879047883+880112560+881329012+882431598+882976127
622+882834499+882244945+881312595+879879966+878294998+877773863+879226785
612+881992621+884249653+884542492+882473875+877482151+866611096+843813327
602+803059711+744437409+677987086+619137897+578156796+555273838+546625747
592+552142094+574529212+612027247+657071069+701695644+740842872+772033556
582+794595137+808837154+814994246+812438738+799507873+775202645+742403882
572+708118235+678826145+655706718+635026607+613291895+591346854+573925671
562+566750865+573831358+595749165+629026363+666947486+702077899+729425456
552+748174280+760567944+768843257+772946388+770711481+759493472+737271657
543+703137503+658483969+608241969+559746611+519844808+493532722+484300044
533+493515424+518442865+552397060+589096199+625995731+661888823+693607054
523+717593232+732721940+740602245+745054021+750714427+760198160+772940187
513+787006614+800731583+812786044+821928601+827393758+829726043+830725262
503+831930017+833374202+834247787+834419291+834616443+835405474+836419631
493+836683158+835728049+834054088+832283736+830426856+828201532+825541952
483+822638997+819722795+816903619+814398351+812967483+813608474+816650662
473+821603491+827697237+834129764+840038478+844779640+848334930+851065817
463+852929954+853316437+851599847+847439431+841059117+833709177+826888195
453+821301703+817102815+814066123+811712136+810104480+809798605+810558465
443+811559516+813256588+816885440+821843202+825921812+828166160+829939824
433+832806844+836575211+839841819+841822077+843613356+847243265+853233010
424+859767566+864722368+867366094+868041611+868011031+868388424+868748131
414+868367638+867446491+866709531+866437760+866326712+866028306+865697911
404+866085874+867851576+870904191+874670585+878586781+882107404+884511630
394+884889658+882757977+879367568+877683531+880100088+886947071+896805027
384+906545171+912721428+914329718+912364116+908402121+905283975+907033894
374+913014549
##END=
