##TITLE=X9245
##JCAMP-DX=4.24
##DATA TYPE=INFRARED SPECTRUM
##DATE=5/11/2018
##SAMPLING PROCEDURE=ATR platinum Diamond 1 Refl
##ORIGIN=ComPlat
##XUNITS=1/CM
##YUNITS=TRANSMITTANCE
##RESOLUTION=4
##FIRSTX=3997.453
##LASTX=373.96442
##DELTAX=-1.4165319
##MAXY=1.066769
##MINY=0.71013713
##XFACTOR=1
##YFACTOR=9.9350606e-010
##NPOINTS=2559
##FIRSTY=1.0176516
##XYDATA=(X++(Y..Y))
3997+1024303326+1023999155+1023601034+1023301782+1023336459+1023809814
3989+1024522185+1025037536+1025103769+1024920187+1024815917+1024773681
3980+1024511866+1023961239+1023372816+1022953456+1022658524+1022440145
3972+1022465703+1022864784+1023459207+1023971078+1024275369+1024292287
3963+1023996756+1023696064+1023785576+1024128743+1024222214+1023906284
3955+1023358897+1022567213+1021375367+1020060413+1019448952+1020039295
3946+1021098434+1021406564+1020829660+1020468494+1021131431+1022358673
3938+1023255347+1023292783+1022301318+1020513730+1018773297+1018161715
3929+1018935401+1020249995+1021156748+1021474598+1021724414+1022138494
3921+1022125055+1021158908+1019821276+1019506186+1020774345+1022715519
3912+1024238772+1024958703+1024808358+1023490164+1020653036+1016601145
3904+1012747115+1010649116+1010439736+1011461798+1013456007+1015877615
3895+1017488820+1017393909+1016138230+1015650836+1016778248+1017851545
3887+1017281480+1015565885+1014376559+1013958399+1013703183+1014381118
3878+1016542831+1018430610+1018132438+1015690793+1012732836+1010689312
3870+1010223997+1011244019+1012299678+1011963230+1010730948+1010793102
3861+1013067964+1015856857+1017306797+1016849161+1014339842+1009578219
3853+1005128626+1005781783+1010359464+1015168483+1018473926+1019676210
3844+1018579515+1015518609+1011519273+1007833946+1005591002+1005567964
3836+1007345353+1009715126+1012106616+1014509266+1016551350+1017461103
3827+1017040903+1016062517+1015012018+1013014329+1009509946+1006818484
3819+1007299038+1009548462+1011983508+1014843554+1018103281+1020675474
3810+1021616544+1020614760+1018304142+1016251859+1015005538+1013356656
3802+1011035239+1010114568+1011735012+1014472669+1017285440+1019928306
3793+1021920115+1022997612+1023630671+1024234933+1024384318+1023550998
3785+1022275161+1021501715+1021028000+1020116808+1019253611+1019764402
3776+1021621704+1023379655+1023738060+1022234005+1019561861+1017445624
3768+1016941673+1017467582+1018300542+1019090786+1019101825+1017735876
3759+1015805622+1015055693+1015569364+1015427058+1012902380+1007829987
3751+1002810148+1001760849+1004007933+1006053437+1006607424+1006978668
3742+1008671946+1010734908+1011373367+1009434113+1005090110+1001132229
3734+1001426201+1005995483+1011462398+1015296150+1016712135+1015986084
3725+1014308405+1013219870+1013401892+1014619415+1016412283+1018188353
3717+1019244612+1018987596+1017007666+1013502083+1010489772+1010896413
3708+1014527984+1018679346+1021305534+1021649301+1020275193+1019203336
3700+1020109849+1022202328+1023671707+1023655028+1022063981+1018813973
3691+1014180617+1010054933+1009364280+1012142853+1015662835+1018364736
3683+1019871071+1019897949+1018360896+1015365264+1010948608+1006575147
3674+1005685073+1007925858+1009448991+1009378438+1010655236+1014744563
3666+1019247971+1022099018+1023153237+1023185993+1022675802+1021429602
3657+1019365800+1017282080+1015849057+1014061469+1010204559+1004042970
3649+999224712+1000569783+1006281175+1011790447+1015323388+1017237204
3640+1018404692+1019102545+1018944160+1017753395+1015998683+1014184097
3632+1012016625+1008842090+1005813880+1006296174+1010190040+1013889765
3623+1015403540+1014435113+1011520593+1008371135+1007085818+1007502418
3615+1007987652+1008264705+1009142181+1010378062+1010882134+1010942368
3606+1011980389+1013891445+1015093970+1014837554+1013972437+1013661187
3598+1013962478+1014341282+1014776360+1015510930+1016114352+1015525328
3589+1013072764+1009759402+1008398972+1010170722+1013083803+1015212878
3581+1016061917+1015922130+1015433417+1015325428+1015918171+1016789407
3572+1017024705+1015708191+1012283599+1007317516+1003552517+1003848409
3564+1007209766+1010783743+1013323420+1015223077+1017037183+1018433249
3555+1018641069+1017570892+1016094434+1015123247+1014565061+1013719142
3547+1012519257+1011906956+1012707759+1014531464+1016333931+1017406868
3538+1017650684+1017439745+1017258082+1017215486+1017019905+1016493036
3530+1015901972+1015656716+1015775264+1015932809+1016084595+1016597546
3521+1017613848+1018685345+1019239572+1019131342+1018693984+1018367256
3513+1018274505+1018209831+1018100881+1018244028+1018740060+1019028872
3504+1018519401+1017535016+1017116496+1017693880+1018628591+1019149461
3496+1019132782+1018983397+1019068109+1019346722+1019464910+1019210415
3488+1018860408+1018813133+1018897965+1018548318+1017771753+1017390669
3479+1017963734+1019042071+1019895909+1020379583+1020707751+1020854737
3471+1020699112+1020459375+1020509170+1020900213+1021310453+1021405964
3462+1021188905+1021058958+1021456959+1022405108+1023438449+1023994836
3454+1023842930+1023106081+1021983949+1020709071+1019735245+1019490708
3445+1019871431+1020467534+1021127951+1021803966+1022266522+1022419027
3437+1022444585+1022446384+1022407748+1022472662+1022763994+1023083043
3428+1023199192+1023180954+1023114360+1022787152+1022000147+1021058478
3420+1020559925+1020666235+1020991884+1021234261+1021452640+1021700176
3411+1021829884+1021795927+1021850402+1022246124+1022810549+1022955256
3403+1022271081+1021028600+1019889670+1019288167+1019242452+1019479789
3394+1019571580+1019229493+1018599074+1018076884+1017852505+1017797790
3386+1017719318+1017529976+1017227365+1016829483+1016357329+1015818940
3377+1015199560+1014531104+1013951199+1013585235+1013356177+1012989012
3369+1012229485+1011090554+1009922226+1009178897+1009024712+1009184297
3360+1009252690+1009158859+1009233972+1009722325+1010331507+1010493371
3352+1010021816+1009273328+1008726181+1008596713+1008793854+1009075707
3343+1009202895+1009000714+1008413491+1007615207+1006992347+1006844641
3335+1007120135+1007523056+1007821828+1007966174+1008017409+1008143997
3326+1008581475+1009350121+1010068852+1010327667+1010213678+1010219677
3318+1010664355+1011376486+1011907316+1011958791+1011638781+1011350209
3309+1011448960+1011971509+1012585130+1012851385+1012684001+1012440304
3301+1012455423+1012668043+1012814668+1012788991+1012760434+1013046246
3292+1013805293+1014812357+1015661275+1016145429+1016329851+1016382286
3284+1016433161+1016521593+1016635942+1016763130+1016840282+1016810405
3275+1016826724+1017186329+1017941657+1018738860+1019107705+1018894725
3267+1018473446+1018408892+1018821052+1019317925+1019607457+1019784920
3258+1019951464+1019955903+1019647533+1019160140+1018839650+1018914043
3250+1019261770+1019576620+1019734405+1019861712+1020067253+1020292711
3241+1020451576+1020567605+1020713871+1020903092+1021081035+1021203544
3233+1021274937+1021320172+1021345970+1021356889+1021404764+1021540591
3224+1021689017+1021669819+1021417483+1021084035+1020891094+1020984565
3216+1021399125+1022015146+1022587011+1022945057+1023156236+1023418051
3207+1023801534+1024120584+1024101266+1023719462+1023288344+1023132239
3199+1023267106+1023462207+1023490284+1023286664+1022992812+1022876423
3190+1023081723+1023492324+1023942761+1024422355+1024912868+1025211639
3182+1025137126+1024761922+1024334523+1024113144+1024270689+1024748963
3173+1025246916+1025498652+1025480773+1025305470+1025090811+1024939025
3165+1024858153+1024762402+1024680810+1024797319+1025157884+1025534648
3156+1025706352+1025717151+1025754467+1025868216+1025936010+1025899173
3148+1025919571+1026181266+1026569909+1026713175+1026385606+1025753867
3139+1025183922+1024899429+1024836675+1024771521+1024577980+1024358281
3131+1024272369+1024298407+1024292287+1024224734+1024197976+1024235173
3122+1024210935+1024040671+1023832251+1023742260+1023774537+1023836211
3114+1023904964+1023999755+1024068629+1024019074+1023795655+1023436169
3105+1023141238+1023156716+1023434490+1023594314+1023380135+1022959695
3097+1022623247+1022419267+1022279360+1022293159+1022553774+1022810069
3088+1022626487+1021934873+1021114392+1020487092+1020070252+1019828716
3080+1019834955+1020136486+1020656636+1021205223+1021512034+1021331451
3071+1020607561+1019564981+1018625351+1018128239+1018080963+1018266585
3063+1018549758+1018892685+1019182218+1019322004+1019435873+1019713767
3054+1020079491+1020231757+1020000179+1019484469+1018891845+1018407812
3046+1018157036+1018116720+1018165315+1018305822+1018614792+1018881406
3037+1018646229+1017744755+1016533112+1015530608+1015069972+1015203879
3029+1015694512+1016175426+1016474917+1016703255+1016954031+1017085779
3020+1016912995+1016485476+1016050638+1015804422+1015764106+1015825900
3012+1015887094+1015969766+1016210103+1016645301+1017080019+1017256162
3003+1017115776+1016859360+1016781728+1016960031+1017087459+1016799126
2995+1016137990+1015449496+1014918067+1014506866+1014182537+1013902124
2986+1013557157+1013146677+1012844906+1012777352+1012822708+1012642365
2978+1011904916+1010601721+1009148420+1008043446+1007446623+1007153732
2969+1006859520+1006340990+1005490811+1004356800+1003182293+1002295338
2961+1001829662+1001590165+1001293434+1000892012+1000547465+1000347145
2952+1000173821+999819855+999151579+998210570+997210646+996392744+995820999
2942+995372542+994933324+994481747+993967417+993301841+992518736+991740010
2932+990975564+990194859+989576138+989412534+989732963+990214057+990538626
2922+990714949+990979823+991512872+992353752+993453626+994632333+995603280
2912+996225000+996642980+997118614+997842445+998903983+1000228716+1001546010
2902+1002574731+1003206170+1003459286+1003426649+1003337978+1003469605
2894+1003849729+1004182157+1004177357+1003835330+1003317640+1002736655
2885+1002201087+1001840221+1001614823+1001320431+1000868735+1000343725
2877+999793218+999227952+998789094+998647988+998760177+998915142+999011973
2867+999124762+999269288+999301865+999169098+999076227+999210554+999435892
2857+999477228+999332342+999328322+999817575+1000919970+1002539514+1004514945
2847+1006653380+1008705543+1010505850+1012102297+1013568796+1014818716
2839+1015806581+1016697376+1017595370+1018333659+1018745939+1018955079
2830+1019224933+1019683769+1020267393+1020803382+1021115832+1021157828
2822+1021064117+1021020681+1021108633+1021278176+1021411124+1021421683
2813+1021365288+1021417843+1021700416+1022176770+1022722598+1023202192
2805+1023511162+1023661148+1023783056+1023960519+1024130543+1024204696
2796+1024195577+1024173019+1024185138+1024251011+1024369680+1024487389
2788+1024491108+1024311125+1024050390+1023940001+1024110025+1024485109
2779+1024911668+1025307150+1025643118+1025867616+1025932890+1025913212
2771+1026008243+1026304974+1026594146+1026620304+1026496356+1026625343
2762+1027167091+1027812630+1028156037+1028102162+1027848026+1027624008
2754+1027528017+1027501259+1027422187+1027279641+1027207408+1027282520
2745+1027387510+1027399269+1027404069+1027575652+1027921219+1028301703
2737+1028610313+1028805894+1028852090+1028731501+1028478446+1028159396
2728+1027868304+1027708360+1027701400+1027768234+1027881623+1028139838
2720+1028587515+1029060990+1029326764+1029297607+1029032672+1028638270
2711+1028278185+1028160476+1028373576+1028786696+1029192737+1029478430
2703+1029607777+1029573701+1029451192+1029365041+1029326044+1029225134
2694+1029054390+1028961639+1029029073+1029171739+1029303127+1029403917
2686+1029407996+1029232333+1028969319+1028847050+1028960079+1029172579
2677+1029311166+1029331084+1029273369+1029181578+1029106465+1029108865
2669+1029177979+1029236053+1029288368+1029452512+1029722606+1029861913
2660+1029694529+1029396598+1029313926+1029537344+1029797479+1029779601
2652+1029453832+1029058950+1028808174+1028712063+1028695505+1028751899
2643+1028876927+1028973758+1028971358+1028970758+1029151581+1029582820
2635+1030163924+1030658517+1030757867+1030316789+1029638854+1029317525
2626+1029607777+1030114129+1030297591+1030128527+1029993300+1030130207
2618+1030458376+1030829020+1031126112+1031219583+1031074877+1030838739
2609+1030667636+1030574165+1030492572+1030374984+1030262914+1030336947
2601+1030746228+1031309814+1031618064+1031497236+1031156589+1030864177
2592+1030713111+1030707472+1030862017+1031145190+1031430762+1031600786
2584+1031699177+1031892478+1032207088+1032428107+1032387191+1032226526
2575+1032240205+1032532377+1032954496+1033292624+1033431930+1033401213
2567+1033337739+1033380455+1033543880+1033694105+1033677547+1033499724
2558+1033305343+1033152717+1032929539+1032629807+1032533097+1032869664
2550+1033412252+1033679227+1033519402+1033225550+1033092483+1033136759
2541+1033265386+1033433010+1033560078+1033516162+1033311342+1033172875
2533+1033327660+1033738021+1034140702+1034344203+1034340003+1034101946
2524+1033567877+1032981254+1032885983+1033503324+1034395078+1034968143
2516+1035046496+1034826677+1034563782+1034388719+1034222895+1033899286
2507+1033504763+1033424131+1033877448+1034567381+1034941026+1034759963
2499+1034353442+1034262971+1034669732+1035292952+1035821261+1036207144
2490+1036541552+1036881239+1037144854+1037056903+1036438722+1035650638
2482+1035356066+1035764747+1036465119+1036966911+1037069261+1036832884
2473+1036471839+1036154949+1035849458+1035564726+1035602522+1036195385
2465+1036976870+1037214807+1036621224+1035670916+1035106250+1035301351
2456+1036073957+1036869721+1037181331+1037043824+1037024866+1037473503
2448+1037989333+1037952617+1037338756+1036661421+1036336732+1036394086
2439+1036632383+1036818605+1036809846+1036633703+1036474239+1036491757
2431+1036611625+1036579828+1036303735+1035991885+1035843819+1035811782
2422+1035814542+1035958288+1036318373+1036677499+1036752012+1036592907
2414+1036476278+1036438722+1036245540+1035848739+1035537608+1035547927
2405+1035789344+1036041680+1036196465+1036261859+1036270978+1036220223
2397+1036052479+1035740749+1035375864+1035105050+1035021058+1035140087
2388+1035420140+1035778185+1036150030+1036536753+1037012747+1037765915
2380+1039063590+1040965768+1043102883+1045068414+1047032266+1049519387
2371+1052522819+1055407702+1057782034+1059821239+1061625865+1062904823
2363+1063457850+1063525403+1063501525+1063392696+1062665206+1060761468
2354+1057652567+1053897767+1050499213+1048476207+1048281586+1049649214
2346+1051800968+1053827094+1055175884+1055770307+1055750869+1055365346
2337+1054937587+1054726887+1054685971+1054370522+1053361898+1051829405
2329+1050386424+1049418477+1048863290+1048489406+1048160637+1047866186
2320+1047501661+1046789649+1045680715+1044572262+1043787297+1043107442
2312+1042163853+1041054679+1040216919+1039865593+1039828037+1039813158
2303+1039636535+1039272250+1038847851+1038558559+1038474927+1038513803
2295+1038615073+1038758099+1038792536+1038553159+1038185634+1038049447
2286+1038231230+1038439050+1038485966+1038634511+1039217895+1040004660
2278+1040307511+1039836916+1039093227+1038722823+1038841731+1039142423
2269+1039315326+1039223295+1038936162+1038720423+1038840891+1039238293
2261+1039445753+1039063830+1038408573+1038280905+1038899686+1039629936
2252+1040014499+1040303071+1040660877+1040714032+1040240677+1039639175
2244+1039393678+1039540904+1039854674+1040231198+1040677675+1041064038
2235+1041170708+1041045080+1041069438+1041471639+1042000188+1042299320
2227+1042407069+1042652926+1043250948+1044180259+1045205201+1045759188
2218+1045210120+1043687946+1042221927+1041595467+1041558151+1041543992
2210+1041514235+1041590068+1041465160+1040854898+1040263595+1040582644
2201+1041826205+1042919060+1043089924+1042782273+1042694082+1042830389
2193+1043091844+1043818374+1045083293+1046252220+1046673860+1046229543
2184+1045268915+1044546464+1044768923+1045617841+1045994485+1045722111
2176+1045978407+1047511860+1049484590+1050659278+1050762828+1050218920
2167+1049397599+1048671428+1048813375+1050512052+1052991854+1053858411
2159+1051810087+1048767779+1047116857+1046774890+1046728935+1046869561
2150+1047354915+1047892943+1048107602+1047632328+1046172308+1044296648
2142+1043323781+1043641031+1044072510+1043565798+1042525498+1041871561
2133+1041780849+1041913437+1041994789+1041760691+1041139031+1040649718
2125+1040877216+1041571469+1041984110+1041970671+1042049624+1042463944
2116+1042791512+1042526698+1041760331+1041190386+1041384407+1042052023
2108+1042297760+1041678019+1040702513+1040149966+1040229998+1040671076
2099+1041270778+1041974271+1042611770+1042943538+1042927579+1042792712
2091+1042950617+1043742181+1044986822+1045932451+1045987886+1045359026
2082+1044738206+1044585100+1044898630+1045408101+1045832381+1046155750
2074+1046655142+1047432427+1048018451+1047734078+1046393447+1044509988
2065+1043065206+1043047328+1044598059+1046505996+1047254484+1046721735
2057+1046074157+1045976367+1045960768+1045574405+1044999661+1044583660
2048+1044844515+1046595387+1049728887+1052479983+1053328661+1052886984
2040+1052667645+1053088445+1053935923+1055351907+1056979071+1057482903
2031+1056285418+1054690771+1054401599+1055715712+1057443667+1058031970
2023+1056795849+1054387560+1051956233+1049887152+1047658845+1045024498
2014+1043005332+1043108042+1045524010+1048799816+1051528954+1053409054
2006+1054159942+1053145679+1050893015+1049186899+1049118385+1050289833
1997+1051844044+1053166917+1053844372+1053852651+1053460769+1052681564
1989+1051693338+1051555712+1053113282+1055404462+1056444523+1055520731
1980+1053734343+1052422148+1051914477+1051917237+1052384712+1053271187
1972+1053757260+1052785114+1050572286+1048815654+1048752421+1049642855
1963+1050103851+1049991902+1050023939+1050242438+1049891471+1048723023
1955+1047494701+1046938675+1046840164+1046591068+1046188746+1046010204
1946+1045859378+1045081973+1043670068+1042553215+1042446786+1043023810
1938+1043591116+1043894567+1044166461+1044695490+1045404142+1045878456
1929+1045780786+1045026058+1043600475+1041704057+1040188122+1040026258
1921+1040936850+1041574829+1041311094+1040984366+1041469839+1042339636
1912+1042529218+1041712096+1040852618+1041172868+1042648486+1044132984
1904+1044705809+1044356042+1043604314+1042830629+1042066782+1041391487
1895+1041168908+1041440562+1041514955+1040900254+1040201081+1040345547
1887+1041258660+1042231166+1042902622+1043184835+1042983494+1042488422
1878+1042205729+1042269203+1042159293+1041416324+1040075333+1038255588
1870+1036261859+1035329308+1036639103+1039362001+1041669860+1042657605
1861+1042624248+1042384751+1042464784+1042800152+1043105282+1043269667
1853+1043207633+1042650526+1041425923+1039682731+1037664404+1035731750
1844+1034809758+1035676075+1037502060+1038818214+1039098027+1038872808
1836+1038891167+1039040072+1038396934+1036500156+1034364001+1033573757
1827+1034039552+1034561622+1034932386+1035702953+1036690458+1037156013
1819+1036944713+1036579468+1036419404+1036166348+1035278553+1033753980
1810+1032429907+1032074381+1032380111+1032453904+1031672659+1029901269
1802+1027630727+1025860177+1025088771+1024787360+1024131983+1022488260
1793+1019851153+1017829587+1018266225+1020180162+1021322212+1020753947
1785+1018838331+1016237580+1013334339+1010460734+1007802749+1004805437
1776+1000405699+993789714+984825794+974745381+965440994+956435438+945506826
1766+931880513+915815435+896368121+873290375+850522439+832019014+817160780
1756+804824463+795394208+788096088+781078742+773926528+768531006+766512799
1747+767098283+768975383+771846347+776045945+781987175+789475836+796863047
1737+802517085+806941240+812113704+817884310+822070529+824123232+824086215
1727+821534780+816288884+809038939+801185453+793531327+785564511+777443870
1717+773095848+776283402+784256517+793161282+801564796+808872035+814887958
1707+820497600+826875168+833668856+840185131+847734447+858288814+871244991
1697+886385978+904861026+923269480+937224981+947276056+955658332+962691697
1687+967285877+969469667+972116853+978359014+986119510+992527195+996886497
1677+999288186+1000415058+1001300753+1001845981+1001272256+1000730388
1669+1002979752+1007512617+1010998163+1011995027+1011681137+1012289599
1660+1014065908+1015100329+1013857728+1009668930+1002609828+996712573+997117115
1650+999166338+998816451+997600188+999544062+1004673990+1009321084+1011884038
1640+1012221205+1010265873+1006630222+1004435872+1007527736+1013564837
1632+1018052646+1019795599+1019600977+1018925802+1018525641+1018247747
1623+1018588035+1020328948+1022406908+1023000011+1022111137+1022293279
1615+1025101970+1028357977+1030009979+1029979142+1029379559+1029350762
1606+1030040576+1030830220+1031348330+1031872200+1032758555+1033818893
1598+1034558982+1034811078+1034837356+1034902749+1035023938+1035176083
1589+1035432858+1035769666+1035985765+1035987445+1035957448+1035986125
1581+1035580444+1033834732+1030374024+1026881639+1026444281+1028250228
1572+1028720702+1026601466+1023851930+1023166075+1023976598+1024290367
1564+1023379535+1020686393+1014439313+1003701003+995995942+997623046+1001496874
1554+1003451307+1003252126+1001401603+998711342+995538066+990895411+983522299
1544+973724879+963249584+954180734+950546943+953190949+956117948+955733805
1534+952498495+949365716+948176150+947223021+944837590+941703131+939493963
1524+938441004+938334934+940366639+944751259+950097346+956765706+965503928
1514+974500724+981088272+983955577+983033766+980089788+981479675+992251641
1504+1003993895+1010381782+1011848881+1009894869+1006730412+1005876394
1496+1009381318+1014569020+1017556254+1017063101+1014997259+1015476253
1487+1019833035+1025045815+1028519122+1029856513+1029883991+1029340443
1479+1027982413+1025046895+1020344306+1014891429+1011248699+1011834123
1470+1015000259+1017031904+1016267817+1013334099+1010413579+1008799854
1462+1006886157+1002299357+993820491+983563695+978541337+980578681+984846192
1452+988639508+991296293+992908038+994271648+996075554+997903699+998841469
1442+998465665+996814204+993808612+989495746+985429636+983655666+983418389
1432+982937955+982141591+982101155+982794689+982873161+981782946+980435955
1422+979484566+978324158+977060619+977865322+981442478+985487290+988151575
1412+989233451+989367178+989048309+988237666+986985827+986119210+986397403
1402+987092976+986886776+985595940+984080125+982840344+981736090+980746965
1392+979543121+977018623+972117153+964944001+957243500+950628835+944490044
1383+937374666+928983331+920090925+911362182+902803403+894424187+887026657
1373+881449772+877112008+872840178+868546630+864995031+862793002+863020680
1363+867873434+878265697+891891770+905964080+919364754+931927369+943494139
1353+953762454+962639022+970371081+977225843+983307399+988614430+992879721
1343+995546885+996490655+996838261+998364215+1001454038+1004737223+1006921314
1333+1007787031+1007765553+1007304557+1006662499+1005979824+1005318868
1324+1004617235+1003711142+1002542574+1001411143+1000850676+1001075055
1316+1001771348+1002649844+1003811872+1005367283+1007095897+1008720301
1307+1010169042+1011393525+1012174170+1012229005+1011422442+1009866191
1299+1007839826+1005550805+1002989591+1000064572+996797465+993342757+989940903
1289+986885696+984410034+982520995+980999241+979537901+977852303+975778722
1279+973384172+970891411+968383711+965667052+962496716+958851466+954903665
1269+950771261+946408300+941725449+936696671+931316688+925606915+919733179
1259+913939775+908280098+902569846+896603118+890260467+883481597+876273169
1249+868680057+860704782+852326646+843592684+834606026+825438006+816081064
1239+806488044+796678505+786800813+777084565+767767039+759057494+751108617
1230+744037156+737985716+733085206+729331726+726539294+724400200+722597133
1220+720987727+719772004+719413718+720324131+722691324+726652443+732458626
1210+740313793+750159208+761777274+775006424+789725412+805715918+822661112
1200+840237206+858105652+875780016+892542768+907599703+920357119+930521224
1190+937981388+942725613+944894525+944819712+942954491+939769757+935689128
1180+931081390+926288810+921626777+917370606+913746473+910870589+908672340
1170+906943006+905470267+904071262+902513091+900432911+897402901+893180386
1160+887874256+881775661+875130758+868206582+861407555+855160234+849812047
1150+845700822+843124009+842125345+842430116+843688495+845730099+848497093
1140+851803916+855339077+858880297+862308788+865432269+868017481+869971673
1130+871337862+872199619+872714010+873117351+873622443+874403808+875655348
1120+877496031+879822668+882414419+885195453+888242500+891481529+894510879
1111+896833016+898182167+898562470+898093795+896923247+895178495+892925291
1101+890259567+887473554+885020389+883256139+882227237+881659812+881121183
1091+880273585+879026544+877379582+875157636+872074951+868027200+863128490
1081+857474812+851060108+843922052+836218371+828116749+819687078+810978313
1071+802197256+793712450+785843665+778706989+772231750+766238745+760572829
1061+755240601+750376567+746099038+742489664+739617740+737481644+736009566
1051+735148048+734828339+734814780+734660415+733856132+732081923+729382182
1041+726105776+722685384+719503649+716905599+715232839+714778863+715670917
1031+717832210+721201306+726019624+732737180+741483621+751663984+762175815
1021+772041509+780809668+788467033+795195087+801267525+806985096+812564201
1011+818078512+823470375+828574385+833182303+837144503+840422648+843079493
1001+845243366+847048112+848619362+850111779+851688367+853477396+855586133
992+858071875+860882845+863971109+867443696+871447652+875964018+880850789
982+886017794+891505167+897459416+903989489+910968440+918029702+924739639
972+930685788+935575979+939436908+942550910+945107984+947122531+948702180
962+950135802+951698832+953559074+955813657+958432946+961195321+963800271
952+966053475+967941194+969562118+970955665+971963388+972338652+972025242
942+971209080+970083888+968716079+967134271+965405717+963658505+962123852
932+961020978+960284188+959547939+958506199+957194125+955863812+954688225
922+953652305+952665159+951723730+950966482+950570580+950578020+950839235
912+951146225+951346726+951281032+950760882+949737080+948400588+947098293
902+946285431+946531348+948362432+952018661+957348250+963862125+970886371
892+977770951+984063507+989607755+994536522+999052349+1003150076+1006663099
882+1009583858+1012187489+1014803958+1017564173+1020400701+1023196792
874+1025796703+1027932138+1029411596+1030384583+1031152629+1031764090
866+1032012827+1031692817+1030708192+1029135623+1027154013+1024673131
857+1021201624+1016329011+1010118287+1002876202+994819515+986028738+976465236
847+966033617+954858009+943522577+932954470+924090981+917655698+914054604
837+913257760+914753657+917654318+920791777+922767388+922157606+917927652
827+909915241+899202909+887995564+878857661+873999387+875079343+882959107
817+897170964+915827614+936294290+956078112+973480462+987838105+999215053
807+1007945896+1014572380+1019894949+1024686929+1029360361+1033983997
799+1038537441+1043055967+1047463984+1051391447+1054451754+1056687019
790+1058486727+1060174605+1061897639+1063734543+1065656159+1067407751
782+1068588077+1068974560+1068731104+1068120362+1067128058+1065620282
773+1063642272+1061213345+1058050688+1053765900+1048134960+1040969127
765+1031916476+1020785264+1008351577+996619282+987759032+982675840+980750265
755+980738506+981628581+982869262+984163937+985135844+985307788+984506204
745+983094960+981701174+980937507+981386384+983485102+987292217+992545733
735+998933500+1006172886+1013883046+1021484917+1028280345+1033726742+1037713960
725+1040546648+1042668044+1044449633+1046079197+1047373633+1047811711
717+1047036825+1045208321+1042694442+1039574621+1035485293+1029804318
708+1021998107+1011979669+1000278631+987966912+976450957+967304835+962161408
698+962318833+967979590+977694398+988660326+997973292+1004004694+1006705215
688+1006749490+1004738123+1001214901+996766808+991834801+986763248+981931012
679+977535593+973551855+970149162+967876520+967303095+968736717+972241461
669+976839720+979910105+980771143+981197102+981910254+982513436+982753173
659+982955293+983524639+984512324+985637816+986580445+987255201+987742714
649+988059844+988230827+988425328+988768316+989152039+989398495+989444871
639+989212873+988478483+987104615+985297948+983445026+981887456+981015379
629+981201721+982397347+984027990+985323086+985685451+985082689+984224591
619+983822810+983498781+982062759+978953737+974510983+968959116+962309714
609+955183238+948585491+942880458+937936212+934120039+932221881+932556289
599+934889285+939090022+945196116+952820004+960889410+968156093+973983694
589+978591252+982538633+986170745+989399515+991719612+992739095+993068703
579+994256169+997288938+1001409283+1004776940+1006371047+1006927913+1007728596
569+1008839090+1009080627+1007904140+1006452099+1006154108+1007102377
561+1008448527+1009830555+1011639501+1014074068+1016685257+1019004275
552+1021169587+1023683226+1026717615+1029805398+1032232166+1033700825
544+1034575421+1035551287+1037107058+1039003596+1040345067+1040660517
535+1040695674+1041349131+1042209328+1042151614+1041072797+1040166644
527+1040700473+1042779274+1045063374+1045982966+1045138607+1043392175
518+1041994549+1041562350+1041745333+1041857642+1041535833+1040793704
510+1039834396+1038729302+1036844283+1032837987+1026085515+1018274745
501+1012697440+1010802821+1010466254+1008734220+1004911627+1000580042+997366751
492+995420417+993977436+992614007+991602624+991511732+992759433+995317287
482+998664606+1002065560+1004980440+1007306117+1009356000+1011784687+1015257154
472+1019522985+1023500243+1027033184+1030913612+1034971743+1037998812
463+1039567422+1040190042+1040218239+1040265515+1041464200+1043341300
455+1044163821+1044472671+1046507676+1050182323+1052674844+1052561575
446+1051450482+1050962728+1050530890+1049550464+1049297288+1050649559
438+1052045745+1051174508+1047618649+1042648246+1037182651+1031923315
429+1028560518+1028923003+1033077604+1039116385+1044729087+1048355859
421+1048309783+1043761379+1039681291+1041369529+1045762667+1047899182
412+1046928476+1046357690+1049632656+1055985207+1061463041+1062746678
404+1058861691+1050591004+1040774746+1035010379+1037654805+1043633832
395+1045440258+1045239398+1047568854+1051791129+1053632952+1050449898
387+1044332045+1040275594+1040647318+1042965856+1045529170+1049845156
378+1057405630+1067088941+1073741823+1073549481
##END=
