##TITLE=X7439
##JCAMP-DX=4.24
##DATA TYPE=INFRARED SPECTRUM
##DATE=29/10/2018
##SAMPLING PROCEDURE=Diamant-ATR
##ORIGIN=ComPlat
##XUNITS=1/CM
##YUNITS=TRANSMITTANCE
##RESOLUTION=4
##FIRSTX=3997.453
##LASTX=373.96442
##DELTAX=-1.4165319
##MAXY=0.95326877
##MINY=0.58449179
##XFACTOR=1
##YFACTOR=8.8780072e-010
##NPOINTS=2559
##FIRSTY=0.84719598
##XYDATA=(X++(Y..Y))
3997+954263678+954833070+955589843+955905255+955734793+955340361+954864424
3988+954394327+954120541+954198085+954655693+955479872+956469142+957088753
3978+956946221+956339164+955891089+955790181+955795150+955783401+955876050
3968+956140370+956420467+956491297+956343461+956234497+956378037+956656925
3958+956683579+956082095+954895777+953772232+953441513+954042796+955157076
3948+956178974+956551990+956241815+956040604+956697611+957692386+957902257
3938+957128431+955930364+954784731+954144509+954555524+955817909+956740243
3928+956570117+955761514+955171644+955107394+955192054+955061270+954882685
3918+955132705+955947216+956845313+957375900+957656937+957931865+957877886
3908+956831550+954815682+952953559+952548183+953706303+955633013+957794032
3898+959464209+959639706+958243584+956411270+955693638+956563739+957436391
3888+956952330+955854700+955412198+955363590+954870130+954649047+955618578
3878+956765554+956852765+956115328+954959356+953452054+952516762+953503682
3869+955611126+956713455+956721176+956855652+957242229+957014432+955967558
3859+954381437+952426127+950856320+951761668+956227313+960389229+961526066
3849+960980038+959920744+958558660+956874921+954999974+953373570+952730864
3839+953566590+955308538+956680558+957258141+957472645+957556701+957335483
3829+956953673+957022086+957521454+957523602+956924737+957075527+958298905
3819+958764772+958398134+959027883+960594065+961091284+959884892+957787251
3809+955936205+955650804+956953941+957587651+956336143+954934246+955464296
3799+957406850+959532891+961516466+962615975+962266323+961322170+960867515
3789+960876243+960777887+960530083+960311752+959803119+958748390+957755226
3779+957705075+958451441+958986795+958861450+958371145+958044521+958370004
3769+959275553+960003927+960267777+960515715+960775940+960556938+959805804
3759+958912138+957963017+956761928+955338481+953896101+952981219+953579078
3750+955265570+955988237+955656578+956164674+958131800+959029025+957230346
3740+953743229+950317945+949030921+951183615+955108401+958039822+959553502
3730+960265763+960340218+959882475+959213585+958672659+958575243+959027212
3720+959606205+959763709+959330941+958323813+956988786+956349839+957693997
3710+960345858+962072364+961999721+960666506+959176458+958743153+959581968
3700+960485772+960759693+960985677+961537077+962024159+962171391+962419598
3690+963453380+964962025+965499594+964527042+962788518+961100348+959728932
3680+958344223+956643364+955448318+956600463+959525170+960700679+959659311
3670+959050508+960637100+962937698+963980409+963494737+962151519+960861809
3660+960099665+959834338+960297317+961518748+961995021+960209904+956795228
3650+954255487+955166878+958492932+961011391+962038795+962295595+962321242
3640+962453570+962873716+963345490+963294399+962319563+960409705+957862982
3631+955700284+956030735+959328525+962279482+962990132+962350648+961700825
3621+962023286+963421893+964577260+964309449+963182346+962363807+962280959
3611+962774017+964011762+966084160+967847121+967934534+966582655+965109929
3601+964279036+963683527+962779320+961776288+961105920+960727870+960244413
3591+959543901+959243663+960393660+962958443+965142759+965784123+965294288
3581+964509720+964099712+964309718+964767461+964902675+964546511+963785845
3571+962658003+961600589+961779644+963715216+965549209+965447428+964167252
3561+963347840+963696350+964828153+965923500+966285505+965710204+964695422
3551+963962617+963670368+963576712+963645729+963967250+964459233+965069579
3541+965870797+966741099+967377831+967677331+967738090+967493374+966791989
3531+965847702+965164243+964933223+964822715+964590688+964576589+965245681
3521+966393865+967228853+967292163+966946473+966815890+966980243+967030126
3512+966802060+966665368+966954193+967435032+967648394+967523653+967365679
3502+967382127+967476388+967509420+967471420+967414420+967429325+967629999
3492+967983611+968239271+968192744+967941583+967726475+967641211+967650140
3482+967710832+967719963+967540504+967236909+967150973+967573939+968336150
3472+968919373+969062107+968929040+968619671+967991265+967151107+966581111
3462+966512631+966676849+966882491+967369841+968337023+969421628+969942211
3452+969677354+969179799+969107827+969418271+969513270+969104672+968540852
3442+968304730+968517085+968848207+968854115+968501174+968255182+968535682
3432+969226526+969818208+969891388+969438412+968825380+968425308+968244373
3422+968030742+967746415+967689214+968132388+969032969+970042783+970655949
3412+970520264+969767654+968943408+968567841+968818197+969558454+970513013
3403+971358408+971751967+971440517+970430636+969077414+967986297+967660009
3393+968024767+968427457+968427255+968390061+968853377+969620220+970090652
3383+970293877+970813118+971665830+972053951+971534979+970806203+970789083
3373+971427962+971929814+971817292+971297111+970863739+970757461+970709525
3363+970395724+970138857+970546112+971394796+971710812+971110872+970262524
3353+969814382+969629821+969297155+968812154+968494661+968516347+968678148
3343+968586505+968058067+967313177+966623743+965875228+964819291+963693195
3333+963171537+963658485+964863199+966061333+966658453+966556941+966091612
3323+965656561+965350818+964900527+964031433+962976033+962334938+962357563
3313+962701441+962894998+962659279+961884244+960700813+959494421+958605522
3303+958073391+957663785+957088888+956273705+955375675+954493087+953574915
3293+952649762+951833975+951084319+950197903+949044013+947676625+946268283
3284+944981863+943918205+943155793+942631987+941896362+940378318+938113840
3274+935787260+933835576+931991982+929884472+927512104+924946783+922186294
3264+919538865+917491308+915926200+914114967+911690501+909015679+906455260
3254+903858452+900932469+897782918+894928101+892809446+891293886+889734754
3244+887653024+885331412+883451967+882075382+880417423+877992286+875434082
3234+873510393+871895604+869672550+866559120+863024134+859650143+856851117
3224+854837330+853481960+852400443+851306036+850190548+849146494+848214426
3214+847512571+847295382+847689143+848487944+849329712+849993567+850515561
3204+851055010+851615943+852058513+852531361+853566755+855464528+857855493
3194+860069953+861703809+862823258+863817564+864966285+866192684+867430094
3184+868904767+870720028+872579063+874229099+875778765+877389056+879024322
3174+880632867+882255982+883874128+885392239+886880474+888586704+890561014
3165+892503635+894151523+895563423+896904358+898208503+899428054+900539916
3155+901630497+902844542+904085242+904994887+905513926+906072912+906943483
3145+907903749+908731621+909424479+909890278+910065843+910289813+910965215
3135+911956432+912797597+913359134+913926513+914715511+915587022+916220262
3125+916507342+916750581+917377644+918461645+919661323+920587820+921094707
3115+921262416+921246706+921182053+921173661+921327070+921782463+922678680
3105+923987188+925411576+926628039+927606902+928481837+929242571+929852179
3095+930441444+931010500+931186468+930661117+929683127+928852032+928575896
3085+928884930+929597191+930477966+931335781+932179900+933218113+934479826
3075+935618141+936358398+936836349+937192849+937264820+936993384+936653870
3065+936435136+936144968+935405987+933951858+931936191+929984171+928568914
3055+927443490+926122292+924632446+923305475+922126206+920763384+919151213
3046+917712727+916813556+916098676+914731289+912418740+909889943+908281867
3036+908357397+910195821+913122542+915899681+917371669+917074049+915199975
3026+912184028+908409294+904200517+900067672+896752628+894738170+893890358
3016+893905196+894813632+896696098+899248327+902010629+904744934+907340332
3006+909627704+911428128+912583764+912959868+912576849+911689091+910733860
2996+910280212+910818520+912409744+914698996+917311111+920006880+922572737
2986+924841109+926717466+928101503+928960459+929439955+929756038+930201025
2976+931241520+933107000+935258285+936799088+937416014+937515042+937579024
2966+937743175+937873018+937873555+937915718+938278058+938985217+939798049
2956+940485335+940922198+941081247+941108706+941229016+941479170+941720059
2946+941899316+942080184+942208484+942057223+941462856+940560596+939813558
2936+939792544+940672716+941822712+942195258+941398068+940158107+939524062
2927+939849477+940664055+941339860+941768935+942354441+943302354+944166345
2917+944395754+944112635+943991989+944519152+945591471+946699306+947400422
2907+947708314+947976326+948409900+948906112+949322364+949613136+949744659
2897+949747277+949791991+949990180+950208847+950250002+950129490+950041003
2887+950113847+950291291+950375750+950168094+949643080+949003529+948479387
2877+948121477+947888041+947839635+948097442+948657704+949345325+949924251
2867+950210659+950136271+949776683+949365735+949230655+949563925+950202804
2857+950788780+951211477+951729509+952536635+953368333+953755179+953629297
2847+953436277+953582435+953987408+954293487+954334038+954279791+954391508
2837+954707121+955010917+955137740+955191718+955323778+955433145+955290880
2827+954861268+954320879+953814193+953334295+952788870+952058818+951040344
2817+949800786+948692280+948123290+948181498+948615676+949180100+949852414
2808+950726812+951809268+952940265+953844002+954249848+954065421+953526845
2798+953077561+952947852+952959467+952848488+952575441+952240223+951970734
2788+951935352+952189468+952527169+952707567+952752885+952878230+953227815
2778+953759073+954322826+954789565+955086313+955200782+955266644+955533515
2768+956111367+956854914+957543475+957988865+958030825+957703396+957337766
2758+957258947+957462104+957692453+957757039+957715145+957813233+958196319
2748+958719252+959155176+959516912+959970425+960467242+960726258+960672146
2738+960671004+961103772+961848057+962424029+962578177+962468340+962331313
2728+962256790+962281899+962441552+962650551+962756762+962807182+963060022
2718+963607998+964207602+964616737+964880050+965148130+965459177+965833670
2708+966355261+967015624+967628387+967996703+968080356+967950915+967669610
2698+967289008+966963794+966940095+967280011+967680083+967799051+967730168
2689+967818319+968056388+968097812+967894050+967840273+968152663+968539912
2679+968654717+968526954+968371061+968250885+968132052+968076530+968178041
2669+968396909+968578180+968592548+968430142+968218525+968117215+968137088
2659+968151052+968131784+968249207+968679088+969409409+970188203+970610296
2649+970439901+969947716+969698368+969935095+970426406+970881598+971174586
2639+971177137+970767867+970057822+969385642+969095810+969376444+970150270
2629+971090664+971917998+972603673+973088405+973063027+972404543+971589629
2619+971229504+971338737+971471333+971446895+971522156+971887921+972420522
2609+972990720+973667129+974484326+975275406+975863664+976202372+976234665
2599+975862925+975214512+974724946+974732399+975118036+975531804+975821703
2589+976033387+976127850+975940335+975431500+974865398+974610343+974689028
2580+974711519+974454584+974231419+974360726+974645523+974791077+974905814
2570+975116357+975188732+975107294+975488232+976721277+978100817+978544125
2560+977924178+977021247+976456823+976310665+976454607+976678309+976765118
2550+976743097+976732691+976561692+976063465+975610355+975750336+976466021
2540+977252200+977699268+977736126+977578958+977559555+977789299+978118675
2530+978519956+979099553+979657264+979813358+979627186+979458872+979297138
2520+978951582+978746410+979195895+980058208+980488895+980180063+979777372
2510+980073918+981125357+982216408+982582306+982107645+981197866+980041894
2500+978480009+976694892+975385108+974934079+974909238+974577110+973483307
2490+971586406+969394437+967907276+967896937+969245123+971165052+972817237
2480+973672232+973785560+973873107+974648343+975954299+976928195+977106378
2470+976980428+977294698+978103972+978810594+979010932+978971723+979127482
2461+979359912+979134196+978327406+977463616+976966866+976697645+976492943
2451+976570017+977018025+977469255+977639314+977646901+977586746+977388959
2441+977194663+977254751+977392584+977155992+976565988+976147185+976124694
2431+976121472+975820293+975407398+975151470+974999270+974769458+974375765
2421+973853368+973435774+973369442+973447456+973141376+972336801+971458375
2411+970881061+970666557+970743698+970984385+971245751+971421248+971280327
2401+970463198+968955560+967277729+965895839+964704083+963328437+961693373
2391+960057973+958592229+957032626+954782247+951498489+947660042+944278532
2381+941844331+939854176+937634949+935253451+933201463+931534038+929860034
2371+928014896+926346196+925256421+924645538+924192025+924245466+925586133
2361+927987168+930126569+931329537+932314645+933974483+936281727+938409849
2351+939570118+939794223+939839272+940485738+941990959+943975339+945894194
2342+947491057+948579959+949090136+949597359+951040344+953642523+956613219
2332+958959202+960155389+960167474+959414998+958666684+958511999+958883001
2322+959299118+959542626+959791303+960146124+960444684+960529814+960414875
2312+960192314+960040517+960312558+961315926+962899026+964456682+965468510
2302+965959083+966404808+967282294+968698088+970268499+971311009+971424337
2292+971039169+971095028+972008432+973305661+974360860+975038142+975496825
2282+975853056+976168804+976506370+976972573+977706116+978613478+979239467
2272+979200595+978634157+978070874+978036231+978757421+980015375+981248957
2262+981908113+981791763+981163290+980417326+979569985+978504447+977715247
2252+977880808+978693573+979308686+979854110+981052312+982463205+982697783
2242+981559132+980541598+980777384+981582496+981662860+981016528+980818271
2232+981822982+983575806+985010398+985530176+985682511+986588127+988464954
2223+990264975+990942391+990317006+988750288+986933482+985925615+986575640
2213+988755390+991272775+992756310+993039160+993404723+994865163+996703587
2203+997438943+996548164+994647303+992688031+991275259+990348897+989556272
2193+988823468+988188280+987455543+986448482+985298283+984495588+984941851
2183+987321201+991021412+994585066+997315075+999294554+1000050522+998669438
2173+995501022+992528311+991417724+991877079+992442443+992330995+991949654
2163+992508976+995484708+1000678525+1004593375+1003915153+1000281743+997832301
2153+998351878+1000605882+1002476129+1003149786+1003468622+1004083533
2145+1004189543+1002944010+1000767012+998371415+996102439+994828305+995682293
2135+998322270+1000980643+1002549510+1003236998+1003312393+1002597648
2126+1001131501+999406540+997990880+997353209+997648748+998297967+998438687
2116+998155098+998379337+999219830+999493214+998466414+996974688+996174276
2106+996129227+996208382+996152255+996175350+996443296+996876265+997337432
2096+997776779+998126766+998191487+997926495+997758316+998173897+998992033
2087+999588549+999781703+999840852+999790028+999508454+999339268+999777340
2077+1000721493+1001724459+1002667337+1003490307+1003765638+1003388997
2068+1003186779+1003992361+1005467101+1006429180+1005972243+1003868694
2060+1000544519+997297082+995916468+997188924+999594726+1000139546+997362608
2050+993442857+992399072+995683971+1000648447+1003983230+1005158873+1005751629
2040+1006555936+1006544724+1004878239+1002914872+1002732997+1004107770
2031+1005047022+1004801635+1003925760+1002554412+1001190246+1001683505
2023+1004921207+1008726555+1010041643+1008289357+1005438165+1003823846
2014+1004560947+1006917806+1008821152+1009049688+1008750926+1009423912
2006+1010286493+1009714684+1008276802+1008127153+1010236274+1013436849
1997+1015464332+1014697690+1011626489+1008553878+1007323518+1007646113
1989+1008133396+1007875186+1006481279+1004040901+1001475983+1000138942
1980+1001121028+1004998750+1011025206+1016338260+1017974801+1015953495
1972+1012832747+1010741014+1010076353+1010506905+1011761234+1013183943
1963+1013721512+1013089413+1012396622+1012926336+1014421822+1015145094
1955+1013719901+1010834737+1008902053+1009769871+1012934460+1016194988
1946+1017838580+1017856371+1017222459+1016661862+1016341617+1016280790
1938+1016461524+1016628226+1016474482+1016043057+1015665677+1015618211
1929+1015959538+1016400026+1016277232+1014983830+1012368894+1008538168
1921+1003600614+998306762+994712829+994669055+997339849+1000278722+1002424165
1911+1004550407+1007370648+1010248359+1012252478+1013451217+1014349851
1902+1014989066+1015295347+1015628684+1016341684+1017258848+1018005752
1894+1018509954+1018921103+1019292373+1019599325+1020085400+1021357050
1885+1023692492+1026296752+1027788479+1027741550+1027082931+1026773361
1877+1026893470+1027067288+1027108847+1027148659+1027420633+1027880255
1868+1028069516+1027827083+1027737051+1028245416+1029053415+1029479804
1860+1029129347+1028259649+1027598748+1027781966+1028817695+1030064168
1851+1030817517+1030937962+1030877807+1031217052+1032217332+1033566257
1843+1034533103+1034857175+1034955398+1035184135+1035472356+1035477659
1834+1034920218+1033742963+1032187188+1030969584+1030961728+1032281247
1826+1034300808+1036180722+1037173282+1037125279+1036594692+1036382470
1817+1036879422+1037708703+1038275678+1038490854+1038597804+1038636609
1809+1038520528+1038363024+1038214516+1037801151+1036885330+1035659803
1800+1034552304+1033693550+1032828283+1031681240+1030159302+1028368949
1792+1026681114+1025632361+1025534138+1026382890+1027911071+1029592797
1783+1031069014+1032488903+1034025679+1035480614+1036653370+1037622163
1775+1038531203+1039467367+1040467044+1041493910+1042572271+1043703067
1766+1044574108+1044862933+1044718117+1044537451+1044427480+1044264470
1758+1044112874+1044013309+1043729116+1043091714+1042209259+1041342918
1749+1040920490+1041289410+1042235577+1043175770+1043742208+1044069234
1741+1044559740+1045321347+1045963584+1046188427+1046249119+1046685378
1732+1047478875+1048116345+1048520176+1048774023+1048828471+1048745892
1724+1048738306+1048797857+1048645723+1048240079+1048205705+1049393097
1715+1051388622+1053126541+1054506551+1055780953+1056849244+1057501417
1707+1057900884+1058447719+1059132655+1059616380+1059799598+1059754414
1698+1059395430+1058736410+1058132978+1057809980+1057560565+1057202790
1690+1056799428+1056429837+1056099185+1056074814+1057002317+1058668399
1681+1059816248+1060036257+1059523059+1058475984+1057187684+1056101602
1673+1055422171+1055130526+1055520662+1056734305+1057920421+1058394143
1664+1058474574+1058798042+1059487677+1060132868+1060513134+1060658889
1656+1060658285+1060820556+1061429023+1061705763+1061166985+1060433375
1647+1060317227+1061266282+1062503691+1063138341+1063144854+1062837767
1639+1062512218+1062386402+1062620510+1063067176+1063307595+1063287185
1630+1063273355+1063591116+1064390790+1065511246+1066826736+1068395604
1622+1069949365+1070924871+1071154079+1070902045+1070500697+1069798104
1613+1068056828+1064263564+1056700467+1042778249+1021096960+994609034+970436880
1604+956086996+955498604+967160171+985727157+1005678315+1023475370+1037617665
1594+1047927420+1054880238+1059264378+1062058906+1064204013+1066287824
1585+1068454685+1070557495+1072322068+1073452931+1073741823+1073199554
1577+1072341538+1072018137+1072075137+1071640489+1070441079+1068970501
1568+1067788144+1066554561+1064540170+1061501330+1057433608+1051221853
1560+1039652264+1022619099+1006627974+991091034+973333993+954440115+936004853
1550+918610489+903193120+890259836+879023718+868962908+860364216+853044828
1540+846486779+840041855+832055726+820767040+806367608+794718193+793823251
1530+805181693+827573162+859518084+894351055+923652105+945579991+961827715
1520+972126393+976032515+973751051+964391894+947260172+923608533+896736313
1510+870675248+847345265+827141200+813813550+808222615+806260457+806150083
1500+808026440+812112557+817858848+823349144+826694333+828017075+828700668
1490+830211864+833207602+836908015+840329942+843363680+846416956+849764159
1480+853025023+855349186+856162690+855594909+854550721+854402414+855585711
1470+856814057+857099727+856649839+856042581+855574096+854985033+853910364
1460+852404203+851220235+852093491+855415182+858248112+859234562+859150506
1451+858773261+858612736+859128351+860448474+862223587+864139890+866027929
1441+867656212+869131758+871296134+874692415+878019946+880039776+881448788
1431+883499769+886421657+889260159+891346925+892869803+893948634+894005096
1421+891896444+886405879+878297761+871205365+867575782+867181282+868665758
1411+870589245+872158716+873351479+874514366+875856645+876949239+877113726
1401+876364942+875404608+875017091+875747144+877930721+881320422+884911333
1391+888009255+890861253+894069615+897647838+900777583+902882072+904208439
1381+905287941+906463920+907813114+909300476+910999388+912959197+914755928
1371+915687930+915386751+913783778+910855714+906484464+900297282+891908730
1361+881587964+869953722+857102009+843152533+829287919+817461059+808960724
1351+803815782+801541838+801726130+803915951+807355603+810901599+813353256
1341+813975419+812648112+809736698+805905032+801816632+797985099+794813796
1332+792591682+791576967+792183151+794851796+799661923+806275429+814236986
1322+823204799+832981752+843316684+853664574+863404601+872273185+880323901
1312+887645303+894323730+900444246+905938772+910503109+913601769+914493421
1302+912456405+907151273+898694376+887367220+873449030+857621787+841618913
1292+828054604+819128148+815521593+816604788+821271913+828361087+836742924
1282+845510668+854258404+863243002+873220427+884900726+898380710+913017740
1272+927723587+941296019+952564967+960474426+964268227+963647072+958670578
1262+949586751+937003924+922254506+907429289+895080638+887736744+886943180
1252+892192520+900993430+910233619+917184826+919094281+912875409+896763638
1242+872542406+845124359+819460210+798127766+781520320+769274120+761038239
1232+756435566+754945854+755866241+758216655+760853477+762909829+764197726
1222+765401902+768107406+774192674+784207159+795798568+804103668+804534287
1213+795971514+781641570+766808700+755452876+748802781+746086468+745896872
1203+747025049+748685760+750475711+752288958+754164509+756099208+758015646
1193+759900394+761872287+764077550+766524171+769030747+771382369+773538756
1183+775589669+777547396+779371654+781179598+783207080+785529632+788016133
1173+790568429+793190817+795823677+798360532+800861132+803554819+806630451
1163+810134823+814071291+818512364+823168142+826257806+824562116+816416804
1153+804755840+795371574+791738634+792867550+795995885+799465077+802821074
1143+805890396+808567097+810901398+812999039+814899632+816559336+817967409
1133+819280214+820730852+822381493+824059257+825534669+826725149+827739126
1123+828683346+829414070+829601316+829112891+828294755+827863598+828473475
1113+830203740+832416455+834296303+835584334+836672430+838019072+839671055
1103+841367282+842914263+844288028+845458233+846253610+846047230+843078615
1094+834610841+818970912+797788454+776020490+759938998+754476564+760635549
1084+774581870+790180711+803053504+812168952+818493700+823285565+827287828
1074+830559031+832880845+834363776+835426964+836255171+836651886+836542318
1064+836364068+836693780+837633838+838887763+840273278+841774404+843287949
1054+844723012+846212522+847975819+850028680+852065159+853649065+854658409
1044+855469899+856563165+858097120+859961526+862004383+864125859+866316687
1034+868627019+871047055+873566990+876479277+880435819+885911614+892663892
1024+899789387+905486802+905921517+895928247+873890458+846014467+822936921
1014+811197541+809457071+812589300+816964779+821416460+825565753+828964786
1004+831378981+833008876+834272872+835465702+836606770+837570796+838304406
994+838904548+839575922+840523566+841792933+843239812+844731471+846265829
984+847819053+849274391+850589815+851830447+853019115+854115670+854984160
975+855249420+854608123+853546009+853273230+854591742+857170087+860121380
965+862888449+865368774+867563227+869457576+871137892+872735561+874166259
955+875076642+875190574+874691811+874227354+874560960+876146007+878860238
945+882056248+884912206+886896184+888047993+888811144+889565568+890298171
935+890358393+888210197+882111636+872035049+860597720+851164779+845322213
925+842876061+843492651+847048585+852703770+858862554+864282154+868711478
915+872478424+875873295+878948121+881570374+883504670+884519587+884512470
905+883637871+882467867+881962591+882977910+885627488+889268149+893096727
895+896523823+899136409+900909844+902599424+905378778+909804275+915365334
885+921057177+926091141+930091926+932987899+934780266+935206119+933677534
875+929726430+923383287+915009976+905111303+894624170+885148866+878429485
866+875306856+874847704+874336184+870654099+862431646+850987067+839056278
856+828799830+820768114+813685251+804653657+790413946+769523804+743579087
846+716348689+692098252+674562228+666058335+666004692+670454090+674741485
836+677408653+680792245+687620858+698336527+712061495+728267930+746128026
826+763557033+778608973+791249471+802692439+813745742+824035893+830981259
816+829629178+817101740+798298027+783694699+780134335+786442231+797855658
806+810849366+823257838+833450707+841061001+847078998+852536195+857638840
796+862207138+866420280+870744601+875239988+879476426+883250287+886872350
786+890699317+894840823+899267864+903955398+909034612+914783992+921277321
776+928201605+935109239+941416800+945570457+944025155+932153649+908422654
766+878281984+851726115+835764128+830326132+831174144+834711950+839666020
756+845893754+852893031+859604758+865295459+870053152+874278647+878116154
747+881491689+884497566+887574138+891067700+894720714+898041062+900968522
737+903749622+906565969+909577418+912882056+916208379+918451507+917119769
727+908558406+888906480+854643236+804858829+747320655+700560521+682391659
717+694375016+720864419+742372628+749708465+748242049+749829178+761117126
707+779843832+800064412+817537260+830654299+839638830+845831786+850602772
697+854587243+857908867+860548441+862385925+863391577+863833005+863951436
687+863549148+862177061+859381392+854406174+845883079+831994228+811270587
677+784048312+753438888+724678630+702452185+687666512+677721178+669878185
667+663843337+660167967+658359218+658626693+662191891+669616484+679775784
657+690835666+701661776+712092244+722070274+730985921+738131222+743660458
647+749066363+756369369+766424204+778154117+789126183+796280950+797209192
637+792504135+786388722+783494764+784893169+787971017+789557340+787717305
628+781130856+769400338+755339078+745174138+744378963+753489510+768552796
618+784793336+799202569+810659838+819074505+824806496+828452595+830778974
608+832660567+834808561+837379656+839933496+841850000+842824903+843072103
598+843054781+842928026+842346079+840901886+838663860+836217507+834074481
588+832173149+830347011+829054952+828890868+829412996+829236089+827153755
578+822517916+814673581+802360243+783685434+757832763+728016031+701614175
568+685136237+679474807+681578760+688584213+698699740+710237238+721404741
558+730635732+737129263+741559191+745686866+750482626+754796205+756514923
548+755274223+753254327+752703733+753669438+754938872+756005551+757006704
538+757837261+758467749+759461114+761422332+764329517+767744662+771549743
528+776317976+782682603+790249795+797762337+804384235+809825924+813410122
518+812997294+804345295+783884900+754264074+724885346+704670203+694784890
509+690300715+687901291+688306130+691740746+695505208+697332487+698806354
499+703062732+710547614+718884402+725975725+731920541+737630981+743209362
489+748385119+752967986+756416029+758328707+759659169+762120964+766165121
479+770506763+773719087+775846067+778014538+780725279+783434408+786151794
469+790130559+796211732+803537296+810295483+815190740+818245157+821138847
459+826465529+835085100+844345162+851365856+855783833+857930149+857578014
449+853700358+843138166+821342071+787740534+750022131+720174313+704384332
439+699962259+702269436+708622919+716852086+724841371+731417212+736237477
429+739866657+743592515+747786522+750813345+750573665+747006654+742436677
419+741125618+746022486+753238013+757448603+757574284+755653080+754179279
409+753208741+750863564+747175840+745365077+748180753+754478779+760163237
399+761877792+761466777+765476962+775106414+784655100+789968959+791042755
390+788952365+784305516+779587904+780249812+789277444+801993404+811928265
380+816442987+814619468+806394195+796632750+794057829
##END=
