##TITLE=LSH-R205A
##JCAMP-DX=4.24
##DATA TYPE=INFRARED SPECTRUM
##DATE=16/6/2020
##SAMPLING PROCEDURE=Diamant-ATR
##ORIGIN=Angelika Moesle
##XUNITS=1/CM
##YUNITS=TRANSMITTANCE
##RESOLUTION=4
##FIRSTX=3997.453
##LASTX=373.96442
##DELTAX=-1.4165319
##MAXY=0.92665994
##MINY=0.58130085
##XFACTOR=1
##YFACTOR=8.6301932e-010
##NPOINTS=2559
##FIRSTY=0.837165
##XYDATA=(X++(Y..Y))
3997+970042009+970594393+971198161+971605439+971627540+971328418+971075225
3988+971186558+971560892+971793987+971613865+971142011+970745438+970604683
3978+970483750+970103408+969644055+969546880+969886059+970330909+970610899
3968+970692811+970682934+970743435+970910642+970978741+970778037+970429465
3958+970104513+969799728+969531686+969486379+969755526+970030337+969844758
3948+969293479+969049748+969320415+969491144+969148926+968779565+968905264
3938+969331949+969650823+969692055+969364133+968667748+968091882+968344040
3928+969426844+970561517+971027017+970926458+970929497+971255278+971472143
3918+971119772+970225929+969283465+968673826+968339965+968220413+968689504
3908+970082757+971850206+972664485+971760145+970064455+968811128+967979997
3898+967518364+968083387+969746824+971358461+971426767+970050089+969531133
3888+970941584+972420547+971881769+970239673+969747653+969888960+969175861
3878+968602896+969575956+971328349+972544450+972928591+972293605+970194643
3869+968015703+967788548+968994427+969673615+969065633+968149828+967932065
3859+968793378+970712356+972634373+971815259+966924058+963234523+963957982
3849+966762238+969574023+971487268+972197466+972068521+971809319+971352729
3839+969918037+967746142+966286448+966042716+966376509+966881514+967736818
3829+968983446+970164876+971083996+972114450+972818432+971528776+968633906
3819+967660570+968970185+969520842+968365864+967687989+968564081+970106032
3809+971084480+970767884+970001467+970494317+971762355+971469242+969307983
3799+967956653+968166956+968473744+968283676+968165091+968426158+968961207
3789+969706559+970445073+970658623+970184974+969743094+969971700+970370138
3779+970037519+969151067+968650206+968871422+969586592+970311294+970289539
3769+969239194+967959139+967111018+966696005+966995748+968160119+969238987
3759+969024678+968064878+968317933+970377044+972985570+973989433+971872376
3750+969023572+969061075+970887367+970926320+967865141+965303028+965866324
3740+968178283+970034688+969797932+967379820+964919854+964265737+965099768
3730+966551313+968085183+969197410+969440588+968885373+968201834+968149552
3720+968948568+970109762+971168946+972190698+973031843+972598873+970042423
3710+967082770+966079528+967074551+969033242+970845721+971342922+970199892
3700+968753596+968346111+968955681+970091183+971536926+973025696+973622144
3690+971932601+968300528+965716590+965677499+967062672+968536041+969623680
3680+970631826+971834045+972362463+970757525+968485761+968679006+970223167
3670+969890410+967406202+965975171+966759821+968326290+969409578+969795929
3660+969946353+970078544+969679140+968592536+968310474+970167293+973230061
3650+974433039+970800690+965148805+962944726+964374376+966996438+968949258
3640+969731284+969936201+970076127+969944489+969442246+969322763+970186769
3631+970890337+969108661+965591513+964396684+966165998+968972602+971167634
3621+971522422+969746686+967808231+967836755+969181939+970085244+970094775
3611+969797172+969187464+968049338+967230570+967598618+968610079+969062871
3601+968473882+967527619+967029106+966818181+966330926+965823572+966277607
3591+967996779+969987862+970564487+969153139+967470917+966944708+967208745
3581+967443429+967397086+967310271+967319871+967311514+967367457+967921015
3571+969183182+970556199+970707936+968852222+966455243+965475829+965783100
3561+966198251+966174009+966152737+966710854+967667891+968267930+968161017
3551+967921222+968117229+968325047+967794625+966686888+965918054+965879239
3541+966258683+966741519+967152042+967352055+967353782+967330024+967445570
3531+967784818+968269794+968570228+968362480+967733296+967082217+966690203
3521+966570996+966642755+966846912+967098862+967311928+967494399+967623482
3512+967457725+966815142+966058739+965779509+965991263+966167724+965975930
3502+965658714+965689655+966244525+967043126+967542744+967405028+966815833
3492+966204191+965770599+965452208+965238451+965308622+965758513+966322845
3482+966580113+966508700+966573137+967019575+967380994+966995886+965936563
3472+965009915+964793740+965165450+965779440+966447577+966982833+967183674
3462+967065435+966754019+966247357+965615410+965223188+965395989+966032287
3452+966748080+967219934+967293143+966999063+966553247+966139270+965744424
3442+965372093+965212828+965410286+965845535+966283478+966525621+966405240
3432+965925789+965436669+965358142+965752988+966362557+966887730+967064537
3422+966772874+966253089+965921023+965881311+965933939+965979245+966083603
3412+966261170+966469401+966721835+966993745+967072894+966689305+965885731
3403+965161513+965033328+965442194+965861282+966001899+966056460+966166274
3393+966150182+965961496+965876614+965985530+965998860+965753816+965432594
3383+965136511+964750851+964332523+964175606+964441369+965034364+965745667
3373+966293630+966444054+966305164+966255299+966378581+966272773+965661131
3363+964891951+964511194+964596973+964848440+965050456+965146802+965150877
3353+965258411+965690138+966236513+966354477+965896091+965360214+965297019
3343+965728884+966243903+966444952+966237826+965782824+965267666+964787248
3333+964388604+964098184+963874827+963640143+963422864+963408015+963734210
3323+964240321+964543931+964451177+964188591+964110961+964290117+964560645
3313+964840636+965134854+965327822+965287833+965103153+964978490+965028977
3303+965295499+965727641+966091753+966158193+965980281+965775365+965623421
3293+965428864+965056948+964455459+963786424+963407394+963575775+964191353
3284+964901551+965396404+965540750+965294325+964715213+964085545+963781865
3274+963837808+963864467+963608097+963367681+963632270+964431355+965245703
3264+965571691+965406833+965082847+964809763+964578740+964390606+964326928
3254+964377898+964396477+964326376+964351654+964663760+965132022+965368501
3244+965129536+964547523+964023525+963965026+964476109+965199568+965604981
3234+965477417+965015164+964530187+964222225+964165592+964323061+964591034
3224+964917782+965316841+965740556+966068409+966223391+966156605+965790145
3214+965155849+964504426+964132648+964184792+964582953+964986432+964995066
3204+964618453+964319193+964409392+964682338+964773919+964607817+964404765
3194+964463954+964926484+965591789+966042095+966061986+965803751+965457112
3184+965019584+964529013+964199089+964148533+964284799+964534193+964829931
3174+964893954+964485226+963860185+963585098+963912053+964568242+965085955
3165+965189070+964934772+964570936+964317052+964288942+964488886+964751403
3155+964807208+964531431+964094938+963819230+963888088+964209725+964541514
3145+964673567+964520725+964192527+963953354+963942787+964018621+964045626
3135+964125948+964329967+964467752+964402140+964332937+964478181+964709135
3125+964765216+964624254+964377001+964005568+963560788+963252895+963099846
3115+962825726+962284531+961633176+961036729+960533520+960142403+959870908
3105+959698866+959649761+959737543+959876433+959962143+959987973+960049717
3095+960290479+960759984+961283016+961612319+961727105+961839682+962088316
3085+962322931+962255385+961789264+961139291+960653762+960610251+961104413
3075+961959579+962779383+963175265+962870826+961630621+959314173+955988059
3065+951915696+947650571+944215818+942769937+943775873+946557959+949730679
3055+952036491+952839374+952045608+949806996+946418378+942429791+938716222
3046+936284020+935775285+937052025+939369165+941977068+944404643+946319753
3036+947600154+948523280+949464501+950415668+951125866+951548338+951821836
3026+952019708+952196101+952484517+952922943+953310469+953372904+953034553
3016+952488109+951957411+951416561+950704084+949942571+949581567+949922196
3006+950791728+951757536+952540391+953167573+953768440+954315161+954677408
2996+954876178+955053537+955206310+955225303+955193740+955334909+955631406
2986+955788115+955654543+955442098+955401074+955476009+955447762+955302103
2976+955263634+955489270+955878936+956220326+956433530+956586648+956685204
2966+956598113+956324614+956161827+956371509+956828445+957206923+957361076
2956+957328339+957157403+956921062+956762557+956792807+956986674+957205749
2946+957292287+957176810+956925689+956708064+956710413+957023002+957537400
2936+957960286+957988879+957530632+956806206+956196705+955913331+955863949
2927+955872927+955918027+956094074+956443890+956824923+956939157+956640311
2917+956219082+956172118+956695011+957565509+958385521+958791210+958637126
2907+958113680+957562402+957201259+957117414+957344293+957824642+958428273
2897+959033560+959508039+959722210+959659982+959398570+958998406+958537050
2887+958152633+957960425+957995233+958202084+958419156+958516055+958578766
2877+958734784+958841145+958679187+958378891+958283512+958450097+958600798
2867+958528693+958291800+958018301+957749568+957518062+957407557+957420542
2857+957412530+957270463+957062438+956938259+956987710+957200914+957450723
2847+957570413+957570897+957635749+957793770+957834657+957674287+957514816
2837+957527800+957645901+957758132+957874369+958028454+958181986+958276398
2827+958311967+958350920+958443329+958538224+958514880+958314177+958004350
2817+957732578+957638719+957765246+958008701+958203258+958264933+958228052
2808+958175908+958175010+958213342+958186337+958029973+957847158+957791905
2798+957853443+957885143+957818357+957729056+957708682+957777402+957903998
2788+958037640+958155396+958313417+958538570+958627595+958283512+957589130
2778+957082536+957166174+957661786+958086331+958148213+957866427+957436496
2768+957087302+956964158+957100977+957441952+957777402+957780924+957341462
2758+956782724+956553496+956776508+957239729+957683335+957946266+957961737
2748+957773189+957506528+957254163+957076735+957103187+957422613+957844809
2738+958031631+957927135+957795497+957789419+957737413+957437393+956981770
2728+956687414+956753164+957065339+957362665+957522344+957600249+957666276
2718+957748601+957900200+958188202+958578144+958905099+959034320+959032110
2708+959075207+959216860+959370668+959472539+959482623+959284198+958794457
2698+958137508+957533878+957054496+956623252+956252717+956114380+956291808
2689+956570625+956653434+956539683+956505496+956686861+956887427+956899099
2679+956834661+956934391+957156781+957241455+957166865+957243182+957665585
2669+958223701+958547134+958472474+958121070+957759721+957616756+957730852
2659+957936459+958008494+957816216+957404104+957028665+957017960+957422061
2649+957883900+958036604+957888942+957672353+957566960+957715519+958152633
2639+958592579+958689892+958550863+958551416+958702945+958672902+958356583
2629+958022860+957933006+958068995+958229503+958300087+958402028+958672556
2619+958956069+958940944+958575727+958087505+957635887+957216247+956883421
2609+956812146+957090824+957594931+958102699+958462874+958638162+958646933
2599+958511911+958263207+957963463+957732578+957723945+958032598+958613644
2589+959286201+959786026+959826429+959291243+958470402+957964499+958157468
2580+958810756+959249458+958988046+958199528+957506182+957250434+957146145
2570+956818707+956432425+956419441+956783207+957099664+957134059+957074317
2560+957149391+957356311+957660336+958149594+958802054+959325154+959464459
2550+959293108+959007178+958672625+958386626+958389044+958781818+959368043
2540+959894321+960208015+960199175+959918701+959665922+959644650+959682705
2530+959553691+959338967+959225424+959192963+959117682+959004346+958956622
2520+959020991+959172451+959392285+959661571+959897221+959989009+959924917
2510+959795281+959676903+959612189+959647343+959772420+959884859+959925400
2500+959975749+960136049+960371838+960566809+960684358+960776215+960867243
2490+960957373+961124373+961446286+961776349+961755767+961179003+960287647
2480+959582767+959320319+959350156+959526479+959994534+960763576+961280253
2470+960944803+959950954+959094614+958810894+958865594+958922987+958935488
2461+958967603+959022717+959049998+958913870+958503485+957991849+957737482
2451+957872574+958261480+958756609+959160640+959162091+958697972+958152840
2441+957914358+957962566+958032045+957954140+957802680+957817529+958105600
2431+958431450+958512394+958448025+958582910+959025963+959525029+959739200
2421+959514738+958992259+958480348+958145934+957911112+957733476+957774708
2411+958121761+958543542+958703774+958492020+958077697+957783963+957891290
2401+958382620+958908000+959155875+959152698+959074516+958963321+958811101
2391+958709299+958687682+958597759+958382344+958281164+958535186+959016778
2381+959356440+959359065+959179979+959143996+959410864+959799425+960041982
2371+960197655+960470877+960673169+960468046+960110426+960068365+959989009
2361+959132462+957729470+956741837+956420960+956191387+955779482+955588586
2351+956065827+957222946+958709161+959993291+960539943+960191716+959379785
2342+958632844+958128806+957806616+957519512+957120867+956635062+956288424
2332+956280067+956590032+957015198+957282204+957122111+956477525+955726164
2322+955428907+955723885+956252579+956670907+956910357+957117759+957552594
2312+958249808+958754053+958612815+958047999+957633401+957479938+957294152
2302+957108781+957393744+958357135+959501547+960075548+959826084+959143167
2292+958550035+958233440+958028523+957710823+957286831+957015888+957064441
2282+957266664+957443402+957696388+958014019+957946266+957191659+956205684
2272+955726026+955926108+956348027+956489818+956340223+956430698+957187654
2262+958241313+958838313+958911591+959125141+959904542+961018565+961958128
2252+962212910+961531029+960408788+959860824+960254772+960837752+960776215
2242+960180251+959739062+959783057+960108768+960436759+960634562+960589324
2232+960237644+959663574+958889698+957789488+956588789+956062719+956645146
2223+957739347+958437665+958519922+958331167+958205952+958417775+959125003
2213+959934448+959995501+959011460+957765108+957036815+956525249+955794746
2203+955737698+957588646+960753769+963144117+963508436+962187701+960169269
2193+958505557+957868982+957915739+957783756+957328478+957057396+957147803
2183+957378205+957588094+957529319+956842673+955836185+955733070+957470821
2173+960447740+962943966+963697260+962822342+961512519+961302906+963276308
2163+967243485+971637071+974587607+975281298+974214448+972255895+969951533
2153+967652627+965714933+964416161+963805762+963698020+963806591+963828346
2143+963525150+963001221+962744574+963068767+963762320+964505324+965126290
2133+965319741+964850029+964057712+963449385+962973388+962333567+961694575
2123+961403673+961305531+960913309+960100757+959277430+958933554+959217688
2113+959995501+961105932+962287155+963070010+963233142+963160416+963218500
2104+963079196+962194608+960670890+959278051+958747354+959139576+959784507
2094+960020779+959997297+960364862+961263056+962050469+962048535+961253318
2084+960266997+959631804+959338829+959076450+958801432+958769317+959109256
2074+959688852+960243376+960357541+959618474+958230539+957292425+957867808
2064+959663159+961212224+961590978+961296691+961264368+961692711+962096259
2054+961943694+961013454+959533938+958122452+957295395+956943646+956603431
2044+956190697+956070937+956508121+957497756+959072582+961001368+962241020
2034+961881259+960762402+960546987+961160494+960992044+959531383+958041507
2024+957625942+958161128+959186057+960561077+961927671+962426460+961732147
2014+960907922+961322659+962916685+964236246+964293224+963669082+963224923
2004+962748856+961927049+961401048+961721166+962425976+963070493+963949210
1994+965083607+965863285+966185267+966529074+966712718+966158332+964984568
1985+963580333+962060000+961128655+962023188+964419269+965896367+964977661
1975+963111587+962193848+962237083+962428877+962771165+963678268+964661619
1965+964543034+963064692+961309468+960365346+960249523+960504029+961053305
1955+961739813+961684837+959948537+956738522+953576508+952110253+952694061
1945+954258734+955630923+956603914+957496099+958292007+958803435+959055523
1935+959135846+959115334+959218448+959631320+960211054+960705216+960901637
1925+960382128+958980035+957763036+958225635+960249385+962105030+962489378
1915+961720199+960618539+959602589+959000064+959143996+959996744+961060280
1905+961766127+961937064+961900183+962049225+962431985+962872898+963151092
1895+963004053+962426322+961820550+961461618+961175412+960780359+960369973
1885+960010350+959712196+959648656+959949918+960441317+960883266+961223619
1875+961426395+961385716+961159113+960925603+960646372+960143163+959604108
1866+959322599+959138816+958768212+958219419+957620554+957018651+956584714
1856+956599218+957090272+957824642+958573862+959127282+959208088+958522132
1846+956787420+954070117+951327605+949550349+948739730+948463953+948338807
1836+948134857+947998798+948270156+949032774+950205571+951831782+953682799
1826+955021284+955436919+955537616+956086615+956976866+957686650+958070515
1816+958366045+958699768+958922504+958861450+958598449+958427168+958504590
1806+958756678+959051586+959224250+959035701+958407553+957720630+957527316
1796+957973133+958637402+958761581+957987705+957136200+957120384+957739968
1786+958288968+958391461+958246424+958156570+958121347+958095792+958236340
1776+958609362+958841076+958249532+956783829+955649778+955632097+956248711
1766+957005667+957842254+958606737+958967051+958945709+958806336+958387248
1756+957555978+956851513+956772502+957081638+957239867+957154295+957255268
1747+957735272+958366943+958885208+959134188+959030176+958765311+958834031
1737+959278949+959229084+957803232+956067415+955462542+955526772+955552465
1727+955532781+955689974+956127018+956900273+957931970+958831959+958947712
1717+958062986+957214451+957289525+958078941+959092404+959979133+960492978
1707+960463764+960136049+960186605+960687604+960709912+959520125+957882795
1697+956333385+954708833+953968039+954783976+956398376+957921265+959220934
1687+960446290+960980786+959866280+958284479+958105669+958952133+960063807
1677+961068361+961636630+961733597+961855083+962159937+962108760+961524537
1667+961184390+961368173+961469630+960961517+960241028+960213195+961140603
1657+962737461+964469341+965098732+963177890+961005719+960791616+960853775
1647+959354092+956649014+955110931+955106994+955588240+956145045+956890051
1638+957655225+957783341+957476277+958063056+959720691+961708941+963372032
1628+964565618+965576940+966466639+967083461+967724939+968666022+969115567
1618+967318904+962451807+956799921+952389967+948988089+946512100+945686563
1608+946861086+949458769+952733567+956190904+959379715+961982647+964061649
1598+965857760+967516016+969097887+970590939+971866298+972820020+973558051
1588+974395537+975678424+977521982+979713768+981950239+984119302+986315439
1578+988751647+991591402+994533996+996958049+997864668+994320032+982510911
1568+964833591+949543305+941350301+940259899+943730980+949072349+955229585
1558+961565216+967097481+972449002+977841478+982412907+985365792+986603096
1548+986901872+987753654+990469437+995208073+998903686+990086194+956244913
1538+915336115+888379465+874217221+869379891+872725688+880222859+887384097
1528+893062020+897655066+901753743+905842475+910090057+914408016+918535149
1519+922273098+925538503+928244825+930578816+933023449+935863620+938966790
1509+942017126+944645542+946467760+947611964+948273056+948547384+949050524
1499+951207225+956556535+964778891+972715524+975660121+967669825+945083278
1489+917445851+901973095+900404692+904184011+907928936+910462388+912319691
1479+914250271+916633713+919413037+922229725+924690451+926770213+928773036
1469+930662385+931718185+930473837+925836589+919539219+914744710+912753489
1459+913483923+916412704+919971844+922746333+924834037+926398573+927290067
1449+927389797+927000269+926977201+927968080+929811087+931968547+934069788
1439+935918527+937203624+937702896+937946351+938535892+939302240+939898412
1429+940393333+941048210+941747634+942209197+942543611+943128455+943960070
1419+944625583+945016423+945503609+946035481+945991831+944713088+942035705
1409+938611933+935380232+932661617+930265743+928458720+928028305+929366583
1400+932088237+935160259+937548121+938943515+939736523+940492027+941343947
1390+941915669+941809930+941288833+941240004+942160229+943845491+945809292
1380+947495865+948441023+948465127+947767292+947013652+946916477+947059580
1370+945724687+941576214+935655595+930785735+928961515+930146744+932760104
1360+935281400+937264194+938801172+940031362+941116446+942214653+943358788
1350+944389725+945089148+945450429+945744025+946239430+946938371+947612516
1340+948047282+948246950+948393783+948660858+949049212+949049695+947530052
1330+943825116+939251339+936564079+937318617+940469443+943904058+946535789
1320+948483498+950067993+951374777+952457236+953424012+954341544+955191184
1310+955891713+956345679+956455562+956179163+955715873+955503843+955778999
1300+956254927+956486917+956413432+956351550+956623459+957308932+958243661
1290+959136813+959712886+959849566+959691545+959586566+959800668+960251526
1281+960449743+959790585+958196766+956351688+954828937+953275867+951246108
1271+949596485+949976136+952843380+956871473+960408926+962866475+964601117
1261+966128357+967816934+969893864+972392852+975293799+978772961+983227324
1251+988686587+992914624+989861249+973351408+945417968+918417323+904785846
1241+906110241+914917165+924107402+931298683+936736190+941004906+944579861
1231+947744776+950587295+953158594+955466962+957447684+959084116+960458031
1221+961680141+962822204+963896445+964824198+965271327+964657682+962863505
1211+960946806+960510797+962235840+965449170+968957201+971860289+973744044
1201+974570686+974525448+973879343+972987642+972404869+972823750+974641961
1191+977589528+980996033+984383822+987627402+990711856+993607072+996288737
1181+998733164+1000945254+1003027088+1005204854+1007764412+1010873177
1173+1014446475+1018154864+1021122184+1021233448+1015521268+1002709526
1164+985859608+971627332+965979936+970343202+981397303+993156421+998252469
1154+989148910+962615906+925312452+892191521+875848750+877585672+889741570
1145+904354741+917635436+928818066+938280489+946599329+953739157+958797979
1135+960710188+959125141+953919969+942909035+921852353+890930735+860866701
1125+847011245+855547641+878996191+905302868+927325704+943802739+956003737
1115+965645039+974249326+982757128+991375574+999881235+1008155736+1016411657
1105+1024906545+1033612841+1042229076+1050409026+1057869869+1064191826
1096+1068775893+1071423786+1072806680+1073741823+1073450506+1068187043
1088+1052165287+1021195117+975811167+920983581+864674199+817267191+788430722
1078+780777050+787847536+800149783+811869534+821625277+829814965+836936007
1068+843200501+848550641+852924267+856463792+859433597+862008695+864212222
1058+866142250+868169592+870695170+873771958+877083291+880157731+882620114
1048+884395091+885631773+886502272+887238300+888117155+889164046+890121705
1038+890881768+891706752+892951515+894674348+896502643+897896587+898639177
1028+899052601+899725573+901064403+903048233+905341061+907582091+909500171
1018+910866765+911506931+911252356+909935144+907856003+906215013+906397622
1009+908655434+911925742+914967721+917260757+918857821+919906715+920553097
999+921031926+921588178+922350106+923354245+924618001+926135917+927791895
989+929203727+929781181+929281701+928337787+928082591+929141085+931207793
979+933589646+935815205+937551229+938286498+937523189+935055142+930624468
969+923738455+914551603+904570155+895859577+890057820+888462965+891464748
959+896020706+894205188+876933212+841686107+797067401+758300938+736919304
949+734428673+744744673+760564068+777154577+792554470+806416488+818878966
939+829976509+839696683+848121746+855327185+861350918+866272024+870085116
929+872456265+872646332+869624797+862386206+850668596+835934837+821690406
919+812174665+810008157+814815443+824001467+834687864+845004140+854111567
909+861720762+867872957+872882812+877118307+880821102+884148044+887150035
899+889678790+891545692+892796602+893715653+894618682+895702522+897010895
890+898488200+900033742+901535152+902949125+904356260+905871966+907503702
880+909015954+909918223+909859655+908948063+907333939+905042492+902963352
870+903172620+907139521+914154133+922274065+929936302+935379403+934875918
860+923957461+902791656+879523159+864984924+863233360+869125179+874701921
850+875481668+871407716+865157242+860347193+859579256+863114568+869303919
840+876149736+882473281+887934409+892462119+896069397+898990581+901523963
830+903783778+905759459+907409220+908687549+909693208+910678838+911785609
820+912940656+914030368+915017794+915936638+916856932+917761549+918473197
810+918840486+918978202+919159637+919446050+919608768+919511524+919492807
800+920293066+922439545+925613093+928773934+930485232+928455612+920409441
790+908126256+899269259+901162130+912944800+927069058+937724376+944692576
781+950136920+955186419+959742515+963503740+966429136+968173932+966750980
771+958048897+937852215+905569460+866319817+828262171+796469158+769454562
761+742565181+714626492+690270770+675736334+673566442+681689206+696142490
751+713442921+731108085+747489810+761707375+773654074+783958402+793490926
741+802500833+810486088+817053917+822497916+827436842+832265884+837005556
731+841448661+845390975+848801831+851869157+854889449+857975216+860897366
721+863384682+865454499+867245913+868759823+869991326+871133872+872490935
711+874216047+876143727+877941427+879463625+880815922+882105785+883378796
701+884679778+885918118+886861825+887437691+887852221+888401842+889338989
691+890783557+892563990+894261890+895475229+895927675+895432823+894064364
681+892477728+891815392+892904689+895438141+898204480+900183338+901192588
671+901579008+901699872+901875989+902472782+903540254+904835020+906115421
662+907122669+907681407+907851445+907893437+908138964+908673253+908941157
652+907963745+905382432+902308890+900700567+901629150+904432439+907558470
642+909858619+911168442+912037145+912984374+914007369+914878213+915597734
632+916272640+916949272+917743315+918848636+920469873+922409157+922995382
622+919633079+912381366+905839298+904935372+909401960+914786632+918052728
612+919630178+921109210+923137519+925279854+926927681+928102827+929327423
602+930910260+932734273+934634673+936668299+939055332+941992815+945477019
592+949153707+952263854+953967970+954080477+953169092+950767555+942852885
582+923313083+891306796+856402116+832283564+825135242+830249869+839343967
572+848441863+857513238+866229065+873065420+877392220+880332466+883316568
562+886673830+889814157+892285105+894227012+895915589+897259599+897934573
552+898001290+898060272+898438957+898662521+898366922+898121464+898403388
543+898526117+897764465+896861645+897211598+898915783+900722737+901663406
533+901741864+901238102+900464710+900155228+901048380+902907893+904851044
523+906661382+908669592+910758471+912337371+912765852+911284333+907546660
513+902871979+899936084+900423339+903473537+906905666+909423439+911271556
503+913207110+915265600+916535986+916157094+914249719+911987901+910845769
493+911293312+912244202+912338062+911523783+910581871+909812484+909193038
483+909218108+910432966+912422183+914060618+914653474+914780900+916001006
473+919333267+923713730+926845977+927810197+927429924+926822702+926424817
463+926037983+925465846+924881762+924548384+924447894+924490852+924930936
453+926034944+927395668+927947430+927215960+926307061+926854265+928911788
443+931051291+932125394+929724686+917609812+891072388+858281589+839670507
433+846691957+869487495+891203957+904827423+913397868+920631900+926789896
424+931012753+933251019+933361178+931063723+928559348+928935063+931948932
414+934608497+929426393+903780808+850197156+780492777+723506004+702275899
404+716112224+748690854+786538058+823986756+854757673+870505309+873778795
394+874464337+877567715+883124912+889782802+896110836+900083193+899177195
384+893355271+886973711+884136510+885608843+889934469+893962907+893835551
374+889631065
##END=
