##TITLE=NiW-X13893
##JCAMP-DX=4.24
##DATA TYPE=INFRARED SPECTRUM
##DATE=28/11/2019
##SAMPLING PROCEDURE=Diamant-ATR
##ORIGIN=Marie
##XUNITS=1/CM
##YUNITS=TRANSMITTANCE
##RESOLUTION=4
##FIRSTX=3997.453
##LASTX=373.96442
##DELTAX=-1.4165319
##MAXY=0.96375567
##MINY=0.29923889
##XFACTOR=1
##YFACTOR=8.9756741e-010
##NPOINTS=2559
##FIRSTY=0.96295911
##XYDATA=(X++(Y..Y))
3997+1072854362+1073249881+1073616115+1073429445+1072783439+1072340904
3989+1072422518+1072634754+1072473053+1071940337+1071474028+1071447731
3980+1071842918+1072355447+1072654610+1072509046+1071961986+1071466059
3972+1071511947+1072033705+1072489721+1072522327+1072256235+1071956541
3963+1071726175+1071608170+1071733613+1072180133+1072762189+1073117067
3955+1073044152+1072707138+1072452534+1072451471+1072560179+1072559050
3946+1072442307+1072347345+1072329349+1072332536+1072292559+1072227215
3938+1072255836+1072497225+1072933253+1073419086+1073741823+1073621295
3929+1072909413+1071850422+1070925242+1070493796+1070621298+1071067485
3921+1071387434+1071197045+1070537691+1069922963+1069755418+1069899920
3912+1070091172+1070398237+1071042317+1071927720+1072604871+1072700563
3904+1072284259+1071822864+1071726574+1071980049+1072191621+1072050042
3895+1071691444+1071461145+1071496806+1071651268+1071770336+1071841258
3887+1071820539+1071664018+1071508361+1071480337+1071468052+1071363394
3878+1071267569+1071310070+1071540900+1071989080+1072504862+1072689739
3870+1072329482+1071807524+1071613483+1071716081+1071821004+1071801082
3861+1071784281+1071938544+1072301126+1072784966+1073237264+1073445715
3853+1073172583+1072452666+1071629952+1070988594+1070683454+1070688701
3844+1070788577+1070870788+1071120080+1071665612+1072295348+1072787755
3836+1073219799+1073599314+1073604759+1072936175+1071734941+1070536895
3827+1069894939+1070058433+1070756303+1071371562+1071373023+1070731068
3819+1069984190+1069588538+1069757278+1070443858+1071146908+1071396332
3810+1071141064+1070667583+1070517105+1071116560+1072127206+1072792338
3802+1072749771+1072188367+1071468251+1070777951+1070329307+1070351686
3793+1070715263+1070992446+1070880218+1070469226+1070196626+1070387147
3785+1070861823+1071137279+1070937195+1070380971+1069884314+1069772684
3776+1069776204+1069388255+1068591372+1067803189+1067403287+1067569570
3768+1068287959+1069257765+1069982862+1070153860+1069870369+1069416544
3759+1069035103+1068895516+1069017771+1069249597+1069419997+1069530366
3751+1069905896+1070866472+1072096726+1072948859+1072965527+1072286384
3742+1071765355+1071783617+1072071292+1072417404+1072670282+1072541187
3734+1071974537+1071418844+1071197510+1071228057+1071288687+1071153682
3725+1070755041+1070378381+1070359256+1070666720+1071045571+1071287757
3717+1071259069+1070936664+1070448773+1069962010+1069566424+1069264140
3708+1069089822+1069217589+1069819634+1070773768+1071599604+1071842586
3700+1071522306+1070916343+1070234810+1069739149+1069645117+1069824415
3691+1069912338+1069683101+1069197468+1068623978+1068077782+1067640625
3683+1067421018+1067558878+1068112048+1068837343+1069163401+1068710838
3674+1068091329+1068069149+1068242935+1067937730+1067360189+1067230961
3666+1067541945+1067736782+1067469561+1066930072+1066626725+1066779328
3657+1067083007+1067181953+1067251481+1067740036+1068809253+1070151004
3649+1070826960+1070217876+1069136440+1068378406+1067795752+1066983928
3640+1066033380+1065512418+1065752678+1066453005+1067025100+1067161035
3632+1067031076+1066917521+1066696651+1065940676+1064813950+1063909754
3623+1063505668+1063597509+1064107647+1064899615+1065616676+1065901097
3615+1065800557+1065600739+1065410018+1065108598+1064679343+1064333364
3606+1064258656+1064407208+1064586839+1064651320+1064644613+1064705109
3598+1064709426+1064284820+1063424652+1062807865+1063070504+1064072318
3589+1065227798+1066030524+1066238311+1065982512+1065638458+1065447472
3581+1065326810+1065024792+1064521362+1064172261+1064321410+1064903135
3572+1065491234+1065681822+1065381663+1064797216+1064202741+1063696057
3564+1063304522+1063116391+1063114731+1063120243+1063017445+1062910464
3555+1062898842+1062841135+1062546355+1062171488+1062109398+1062407432
3547+1062656524+1062528093+1062169363+1061887200+1061806117+1062009322
3538+1062571722+1063296620+1063713456+1063573735+1063171443+1062972753
3530+1063065258+1063162146+1063113669+1063102313+1063219654+1063232072
3521+1062954691+1062550206+1062313067+1062350919+1062536593+1062716489
3513+1062928261+1063300139+1063737495+1063923899+1063694065+1063148001
3504+1062434658+1061723109+1061258659+1061125845+1061128900+1061111302
3496+1061210647+1061602779+1062073272+1062127460+1061599459+1060906968
3488+1060583832+1060773424+1061270612+1061725367+1061763949+1061373012
3479+1061113029+1061430719+1061995045+1062181449+1061918611+1061578408
3471+1061338347+1061164561+1061116150+1061209120+1061211377+1060943426
3462+1060621684+1060582106+1060752772+1060764526+1060580844+1060610860
3454+1061044829+1061472954+1061454759+1061134677+1060976297+1061147361
3445+1061467974+1061814684+1062210203+1062572187+1062672727+1062445748
3437+1062149374+1062072807+1062139015+1061972732+1061358269+1060518687
3428+1059958346+1060059550+1060708677+1061278714+1061157256+1060365420
3420+1059570995+1059441435+1060061675+1060954648+1061531525+1061539560
3411+1061157920+1060745600+1060534094+1060478046+1060365022+1060122172
3403+1059952702+1060073828+1060422663+1060739158+1060842089+1060766252
3394+1060713591+1060848530+1061085868+1061240198+1061359598+1061589232
3386+1061770324+1061640100+1061382043+1061426536+1061777562+1062048967
3377+1062048768+1061855458+1061503435+1061038985+1060736834+1060865066
3369+1061319156+1061742433+1061922396+1061887333+1061722644+1061495864
3360+1061312781+1061247569+1061217620+1061074579+1060803307+1060524199
3352+1060333146+1060232872+1060192165+1060217333+1060341647+1060537879
3343+1060679326+1060650638+1060480171+1060299877+1060172043+1060023491
3335+1059822212+1059775130+1060148137+1060836179+1061380117+1061525216
3326+1061502904+1061624295+1061864223+1061996373+1061904997+1061610682
3318+1061192385+1060846140+1060850722+1061262710+1061730347+1061806649
3309+1061407145+1060867323+1060612653+1060797463+1061181760+1061370422
3301+1061188600+1060759346+1060292771+1059949315+1059779313+1059658718
3292+1059435658+1059182979+1059106744+1059236636+1059413876+1059548483
3284+1059725125+1060044874+1060413100+1060582305+1060463238+1060270591
3275+1060224173+1060274841+1060261958+1060134391+1059875138+1059443826
3267+1058938137+1058591958+1058467445+1058394531+1058323542+1058420097
3258+1058683666+1058854332+1058838992+1058843707+1058974196+1059072810
3250+1059039873+1059001224+1059066767+1059151436+1059130717+1059040802
3241+1058976786+1058852937+1058474750+1057833061+1057162750+1056743058
3233+1056756871+1057208902+1057855041+1058328721+1058423218+1058207529
3224+1057905178+1057685239+1057512249+1057241043+1056884239+1056638999
3216+1056595967+1056594108+1056434997+1056140349+1055906464+1055813362
3207+1055748615+1055708041+1055924062+1056512493+1057211758+1057640016
3199+1057655024+1057420873+1057217934+1057132468+1056939490+1056443032
3190+1055824850+1055444273+1055405491+1055499656+1055473492+1055266368
3182+1055028898+1054945690+1055065288+1055341873+1055720990+1056078790
3173+1056209612+1056020684+1055642231+1055224532+1054716852+1054017388
3165+1053286912+1052861444+1052786072+1052685465+1052231508+1051528126
3156+1050872292+1050334994+1049741914+1048960239+1048043426+1047073952
3148+1045932418+1044297547+1041987517+1039299699+1036789851+1034545897
3139+1031945736+1028494172+1024677171+1021516470+1019391915+1017751466
3131+1015950976+1014008243+1012494299+1011902083+1012197594+1012990292
3122+1014066947+1015541246+1017492878+1019760207+1022129671+1024491299
3114+1026791367+1029012345+1031171896+1033232635+1035116996+1036897032
3105+1038833656+1041084318+1043453516+1045556356+1047203844+1048508938
3097+1049612288+1050438987+1050800440+1050697775+1050429093+1050279810
3088+1050135574+1049612222+1048574349+1047241231+1045774436+1044116256
3080+1042245840+1040284181+1038348886+1036509282+1034780247+1033072461
3071+1031360625+1029920127+1029146221+1029145889+1029702844+1030586188
3063+1031685753+1032865471+1033893449+1034652546+1035366885+1036442079
3054+1038015390+1039792770+1041350078+1042455553+1043100563+1043418187
3046+1043613689+1043845183+1044135049+1044434810+1044708805+1044918584
3037+1044988909+1044831458+1044398685+1043782495+1043239752+1042942382
3029+1042662809+1041925825+1040549078+1038852051+1037273825+1035931277
3020+1034589061+1032925436+1030753400+1028011859+1024633808+1020550648
3012+1015870292+1010893562+1005805733+1000406522+994257046+987100046+979099678
3002+970680614+962132589+953359378+944045814+934047263+923543887+912863471
2992+902292227+892035553+882159323+872511932+862835455+853046949+843389796
2982+834317488+826331663+819991600+815948550+814763387+816710370+821831004
2972+829950240+840456737+852333407+864589327+876490036+887483029+897295043
2962+905991223+913650326+920199969+925702642+930401858+934332613+937171706
2952+938497652+938045488+935895831+932579605+928816726+925050460+921318858
2942+917552659+913910176+910850413+908892871+908312541+909136451+911360285
2932+914964916+919767727+925455608+931684374+937993159+943819831+948817745
2922+953033254+956652096+959726801+962211347+964088537+965379154+966148611
2912+966600642+967110780+968003886+969252601+970553246+971790937+973223001
2902+975080402+977208211+979268418+981120771+982858772+984570209+986193193
2893+987587074+988660076+989364653+989615206+989347719+988638029+987581562
2883+986085415+984036697+981685761+979562334+977969898+976903337+976499185
2873+977138351+978963344+981707476+985117734+989123662+993529360+998012355
2863+1002455373+1006819035+1010764201+1013889441+1016232542+1018160333
2854+1019939705+1021647491+1023233951+1024529947+1025455792+1026247030
2846+1027237820+1028452469+1029555487+1030175461+1030303361+1030400249
2837+1030939937+1031851106+1032671032+1033181767+1033535848+1033837203
2829+1033983364+1033914567+1033775112+1033810839+1034153167+1034675257
2820+1035107699+1035303002+1035263224+1034978405+1034457642+1033883223
2812+1033537309+1033608365+1034119365+1034888091+1035538613+1035760147
2803+1035591008+1035293837+1035058226+1034994475+1035252466+1035887581
2795+1036682206+1037278606+1037455647+1037267848+1037015369+1037018025
2786+1037280930+1037497018+1037518069+1037583148+1037859268+1038044543
2778+1037778915+1037237168+1036951818+1037160335+1037653672+1038200201
2769+1038793015+1039457615+1040062183+1040413077+1040433663+1040224880
2761+1040027054+1040072675+1040384057+1040754674+1040975012+1041005293
2752+1040919097+1040786616+1040650481+1040538785+1040439573+1040258083
2744+1039886802+1039389548+1039009966+1038896477+1038941169+1038962153
2735+1038884324+1038728932+1038591337+1038571349+1038630849+1038663455
2727+1038713991+1038913676+1039268687+1039699269+1040166840+1040637864
2718+1041074423+1041477513+1041813133+1041983732+1041954912+1041802906
2710+1041632905+1041525458+1041479571+1041378898+1041143486+1040870222
2701+1040686275+1040571989+1040442429+1040278537+1040069687+1039766208
2693+1039372481+1038995954+1038749120+1038665115+1038691678+1038654025
2684+1038306850+1037623723+1036958060+1036670983+1036700534+1036735996
2676+1036664342+1036610819+1036694491+1036952814+1037380474+1037893467
2667+1038335272+1038591071+1038663853+1038643533+1038633705+1038710272
2659+1038892758+1039092842+1039110174+1038790026+1038228490+1037738606
2650+1037546691+1037583082+1037606722+1037493233+1037337907+1037312009
2642+1037477561+1037730704+1037888420+1037857342+1037745579+1037789673
2633+1038157899+1038794542+1039420759+1039725434+1039639968+1039431517
2625+1039458345+1039818802+1040268576+1040528359+1040647161+1040930386
2616+1041483356+1042027229+1042271672+1042242852+1042111499+1041928947
2608+1041703894+1041539205+1041525990+1041648710+1041862606+1042095561
2599+1042151742+1041884786+1041506665+1041433219+1041751839+1042106386
2591+1042163562+1041960623+1041760605+1041766250+1041998275+1042272536
2582+1042269946+1041805430+1041116193+1040748830+1041030661+1041728929
2574+1042340404+1042629805+1042751396+1042920468+1043112383+1043100430
2565+1042734728+1042133148+1041558595+1041195748+1041146010+1041491857
2557+1042173922+1042920268+1043475164+1043838476+1044190897+1044660128
2548+1045174981+1045515117+1045572227+1045504160+1045493003+1045496457
2540+1045445921+1045456280+1045583118+1045642485+1045510800+1045347506
2531+1045368026+1045584645+1045831214+1045915816+1045769123+1045477265
2523+1045131816+1044745461+1044402470+1044290574+1044405989+1044433548
2514+1044139698+1043780702+1043826722+1044266336+1044515693+1044190167
2506+1043590911+1043152427+1042868338+1042660086+1042835201+1043633611
2497+1044632437+1045111695+1044900986+1044477443+1044233199+1044011400
2489+1043524704+1042927175+1042669051+1042915885+1043366921+1043633611
2480+1043689459+1043916637+1044646913+1045677415+1046400586+1046420375
2472+1045913293+1045413714+1045323068+1045610743+1046001614+1046382856
2463+1046798563+1047113995+1047070167+1046708050+1046436047+1046602131
2455+1047125417+1047570675+1047591328+1047273637+1046959134+1046827914
2446+1046844582+1046944060+1047014518+1046863907+1046449727+1046016489
2438+1045844827+1045951742+1046118556+1046125462+1045880886+1045405546
2429+1044825614+1044355919+1044148862+1044160882+1044258101+1044378563
2421+1044515162+1044654019+1044787430+1044861341+1044705086+1044168186
2412+1043351382+1042595539+1042226848+1042317028+1042650324+1042933616
2404+1043078715+1043225474+1043449531+1043563153+1043344011+1042850209
2395+1042324599+1041882528+1041497700+1041201658+1041058087+1041005625
2387+1040887355+1040598153+1040167239+1039806981+1039815149+1040293877
2378+1041042216+1041800250+1042431381+1042864951+1043125532+1043361675
2370+1043610302+1043787011+1044049185+1044660460+1045409995+1045768127
2361+1045600317+1045211106+1044819771+1044327164+1043527294+1042490616
2353+1041654354+1041346890+1041451348+1041691077+1041912411+1042025502
2344+1041930009+1041630315+1041243561+1040819155+1040405440+1040265786
2336+1040721603+1041738425+1042906921+1043861719+1044449419+1044521006
2327+1044041084+1043448668+1043417722+1044085244+1044780391+1044782516
2319+1044172436+1043650146+1043711174+1044229413+1044706680+1044738223
2310+1044247011+1043440301+1042673102+1042290731+1042428725+1042874846
2302+1043175736+1042996304+1042363447+1041531833+1040773401+1040386913
2293+1040602536+1041274573+1041934658+1042315368+1042549784+1042815412
2285+1043144989+1043576368+1044027271+1044095736+1043554454+1042974589
2276+1043219963+1044319926+1045403022+1045716927+1045280369+1044606339
2268+1044134385+1043925536+1043782894+1043600673+1043478020+1043486188
2259+1043479547+1043206814+1042612605+1042011025+1041764988+1041782719
2251+1041620619+1041020833+1040007331+1038618365+1036849684+1034596565
2242+1031323171+1025954109+1017130296+1003336327+982779083+953596981+914926267
2232+868406460+818829811+773194278+738953965+722355899+726763987+751259158
2223+790582453+836909083+882636922+922517171+954212972+977797306+994834255
2213+1007226375+1016461048+1023621767+1029393786+1033779495+1036436833
2204+1037482874+1037626910+1037746708+1038494449+1039748344+1040467863
2196+1039957061+1039154600+1039607694+1041229417+1042297438+1041860348
2187+1040836155+1040266583+1039868607+1039146034+1038571614+1038672885
2179+1039121397+1039476873+1039765012+1040010585+1040073406+1040056273
2170+1040340893+1041186983+1042380447+1043458695+1044494310+1046187154
2162+1048725491+1051181549+1052455034+1052262985+1050913531+1048695475
2153+1045892042+1043133235+1041402074+1041209827+1041879009+1042206394
2145+1041709273+1040803948+1040152629+1040075730+1040197587+1039750469
2136+1038616505+1037721473+1038003968+1039391407+1041014922+1041988314
2128+1041796199+1040326615+1037975081+1035732853+1034716695+1035264884
2119+1036636252+1037723333+1037900706+1037251778+1036324605+1035710740
2111+1035627864+1035804639+1035815663+1035549703+1035289123+1035243966
2102+1035222317+1035025089+1034802294+1034619941+1034209280+1033630013
2094+1033547005+1034338575+1035489140+1036186611+1036127310+1035626669
2085+1035219993+1035238122+1035625540+1036060505+1036266167+1036270683
2077+1036337687+1036614006+1037048373+1037703876+1038744206+1040025394
2068+1041187049+1042211707+1043380534+1044624534+1045431179+1045430581
2060+1044711262+1043580950+1042269614+1040864444+1039400638+1037992214
2051+1036922864+1036577881+1037233516+1039039251+1042161835+1046293605
2043+1049695828+1049832825+1046148240+1041543123+1039876443+1042268352
2034+1046279792+1048574349+1047964933+1045769057+1044012329+1043672924
2026+1044027005+1043563685+1041989310+1040954094+1042099347+1044958694
2017+1047583359+1048738639+1048679537+1048362843+1048728413+1050092941
2009+1051590549+1051656557+1049529744+1046016688+1042600187+1040177997
2000+1038752573+1037993277+1037759193+1038120048+1039250492+1041234862
1992+1043618537+1045441073+1045973391+1044962678+1042553038+1039831087
1983+1038760143+1040386581+1043144259+1043888813+1041333210+1037697567
1975+1035759682+1035895351+1037101632+1038601298+1039508416+1039012224
1966+1037696172+1036924591+1036933224+1037046780+1037035291+1037183578
1958+1037694047+1038458855+1038975501+1038675939+1037638996+1036592158
1949+1036006715+1035597383+1034977940+1034467271+1034752754+1035915605
1941+1037427424+1038870976+1039811364+1039610948+1038377507+1037347005
1932+1037387513+1037868963+1037796646+1037301583+1037178929+1037460494
1924+1037330005+1036376602+1035199008+1034637140+1034964659+1035648517
1915+1035790627+1035076753+1033977720+1033049086+1032458065+1032191242
1907+1032208707+1032385349+1032675016+1033098692+1033448324+1033388027
1898+1032836982+1031994346+1031151576+1030530937+1030178782+1030093714
1890+1030300771+1030622048+1030770135+1030784213+1030920480+1031229206
1881+1031515884+1031587936+1031474778+1031420922+1031497689+1031427895
1873+1031115650+1030952555+1031288507+1031870762+1032096811+1031731308
1864+1031012719+1030308541+1029939053+1030152219+1030883093+1031498618
1856+1031348738+1030602391+1029937127+1029622159+1029445119+1029180487
1847+1028772018+1028364280+1028219181+1028389515+1028680377+1028913930
1839+1028913532+1028561642+1027925397+1027086811+1026131880+1025406452
1830+1025350537+1025930004+1026606623+1026919798+1026868731+1026876169
1822+1027155742+1027402443+1027368974+1027137679+1026751191+1026208248
1813+1025706080+1025458448+1025518281+1025761197+1025845003+1025560649
1805+1025155766+1024897576+1024694769+1024484924+1024379735+1024296062
1796+1024104545+1023875508+1023666392+1023369687+1022806756+1021943134
1788+1021057731+1020469831+1020029886+1019215007+1017692098+1015338307
1779+1012123749+1008120610+1003084578+996071017+985442995+969774625+949384528
1769+924876673+895767951+863183759+829228198+792830724+752136725+711136524
1759+675566015+645131944+618200571+596278334+580229386+568544566+560149608
1749+555540208+555093323+558381459+565191152+575664976+590290094+610158101
1740+634692983+659992740+684535790+713266392+749733394+785161062+811979079
1730+833850316+853875906+871529110+886661311+899729320+910333170+918349475
1720+924864786+931227893+937571609+942579550+945863968+948366112+950737103
1710+953048594+955364201+957827232+960312443+962566823+964682347+967013892
1700+969586362+971825070+973623169+975455401+977193867+978374315+979178038
1690+980064968+981087899+982104257+983298518+984718894+985707095+986037403
1680+986135287+986315448+986874262+987997601+989332446+990313275+990881253
1670+991325980+991862813+992397853+992759970+993034496+993437785+993966649
1660+994428310+994762868+994999143+995190993+995533984+996204229+996857672
1650+997208433+997341048+997310567+997280020+997436607+997684836+997875889
1640+997969788+998015808+998164028+998531590+998945040+999212128+999400259
1630+999573182+999800028+1000210290+1000777537+1001310652+1001702651+1001952939
1621+1002124202+1002387970+1002923210+1003652822+1004249089+1004614061
1612+1004888521+1005155809+1005369041+1005496675+1005674446+1006028727
1604+1006506192+1007039639+1007638098+1008225931+1008662291+1008897637
1595+1008972345+1008976727+1008996384+1009016970+1009004021+1009014779
1587+1009073017+1009111666+1009074810+1008920082+1008649009+1008366249
1578+1008096969+1007690825+1007158042+1006714179+1006370855+1006010200
1570+1005442022+1004422146+1002951897+1001188928+999266183+997219523+994081865
1560+986422961+971654870+953323916+930770217+899836036+859090373+808828405
1550+752469689+699487895+658946832+634166576+627292535+642390934+685587941
1540+752909037+813572711+851334913+876823398+900034460+921319788+936497610
1530+946014844+953322920+960258321+966663862+972226500+977464740+982576144
1520+986708776+989416849+991187057+992482256+993472516+994262293+994913478
1510+995367701+995550187+995508019+995200090+994499232+993553731+992519710
1500+991332089+989787532+987796587+985570430+983377542+981062930+978023222
1490+973697877+968231927+962195277+955692716+948329987+939297191+927820158
1480+913978774+898143922+879882431+858418601+833064457+803786729+774890310
1470+753163309+739625737+731519981+727450236+727359126+730229629+734355554
1460+739277897+746279838+757555061+771685846+783548703+792248668+799263624
1451+804974283+809203737+812218808+814570674+816673780+818731994+820616688
1441+821988654+822592093+821976036+819243393+813922410+806016340+794574303
1431+777968600+756054133+730608547+702040642+668840592+631703080+593610172
1421+553814094+508538718+461435327+422090683+392151974+368359023+349992774
1411+338196855+333388765+334717500+340825571+350396395+361856761+374111086
1401+388187218+406263601+429075192+456521285+489481473+526357907+561299842
1391+589969615+611161442+622631835+621375882+609587466+595071588+584707268
1381+580365189+578827936+575203582+567081822+555234636+542102644+530139479
1371+520557930+514430469+514126856+521106119+532893605+543718655+546980096
1361+539270657+523708804+506815227+494299989+490284797+496881091+513588828
1351+538163687+567805192+599386840+629942700+657535354+681439504+702024107
1341+720526788+738070953+754521130+768822581+780368943+789247807+795652418
1332+799760613+802042088+803365975+804726121+806902274+810282782+814824879
1322+820186371+825964632+831849543+837761680+843961360+850782275+858069367
1312+864994740+870511956+873898043+874944549+873938750+871559990+868689154
1302+866181763+864672069+864486197+865662794+867982585+871008082+874168850
1292+876812773+878252341+877913467+875510070+871048989+864637671+856318085
1282+846065063+833775409+819118349+801434199+779853161+753513605+721825308
1272+684894653+643979320+601475535+560305133+523294026+492919456+471115025
1262+459045311+457088599+464925274+481608473+505674855+535131782+567373547
1252+599448067+628638337+652892783+670944561+682248804+686835261+685145870
1242+677877771+665815095+649717140+630334899+608432651+584753421+560149608
1232+535925311+513862922+495502584+481190210+469865547+459803644+449563837
1222+438451112+426464339+414030515+401722466+390071447+379529954+370514789
1213+363418517+358547972+356061433+356059009+358788132+364633763+373792632
1203+386042874+400874119+417673829+435675570+453850633+471022720+486117832
1193+498320659+507213071+513104489+517311066+521794592+528088669+536320963
1183+545191062+552826225+557698132+558959066+556270517+549653803+539599171
1173+527139715+513669612+500632449+489102755+479225164+469913227+459310473
1163+445893662+429588583+412284347+397404592+388688424+388851254+398784361
1153+417496523+442617678+471161809+500323623+528147705+553783215+577094584
1143+597935185+615749227+629675745+638710068+641755752+638050183+628187633
1133+614958853+602913443+596492961+597886642+606243017+618896183+633423682
1123+648656157+664110696+679032188+692264953+702876904+710669219+716088153
1113+719702214+721609951+721036594+716283721+705147488+685938702+659033293
1103+628163594+600007943+581503070+576526274+584550216+602016685+624741050
1094+649440953+673979887+696993388+717591206+735344087+750310669+762842044
1084+773336190+782219238+789979279+796971591+803236681+808665841+813304029
1074+817389646+821180814+824827879+828362319+831750597+834965088+837981952
1064+840714329+843018913+844804196+846104973+847038521+847667594+847877041
1054+847433177+846190439+844095767+840874967+835817022+827918123+816010973
1044+798626981+774120720+741610505+702331969+660265141+621214779+590590253
1034+571127328+562028524+560111956+562036958+565978870+571954492+581117512
1024+594685698+612994205+634995998+658291661+679545580+695064202+701451082
1014+696479797+680160441+655379322+627420235+602532201+586331248+582467165
1004+591680189+611718529+638458253+667573815+695689223+720770103+742110018
994+759920806+774615186+786468348+795895202+803593684+810169890+815816201
984+820429885+823856413+825995976+826797906+826176072+823990090+820280403
975+815582383+810942999+807599812+806582458+808402538+812920529+819460079
965+827110815+834985674+842305106+848433464+853014144+856066004+857874064
955+858786495+859070118+858817573+857977327+856546392+854663624+852452076
945+849927552+847165292+844392141+841819672+839522459+837553229+836054559
935+835140269+834690030+834338937+833720158+832723590+831539821+830499159
925+829797836+829251839+828358866+826700553+824075025+819968557+813095047
915+801999853+786574532+769321164+755155183+749259382+754123685+768160836
905+787042701+806248365+822770063+835554515+845074604+852264477+857547077
895+860835944+862181945+861963864+860372689+856960372+850919737+841897766
885+830524726+818109430+805717442+793379444+780262559+765975585+751822289
875+740509811+734590635+735278477+742287059+754075739+768248825+782364337
866+794762699+804709917+812026029+816858789+819642632+820911335+821065996
856+820349998+818822042+816208599+811947071+805464499+796393253+784956064
846+772676836+762456087+757195003+758034718+763895390+772473896+781598865
836+789979014+797182831+803296381+808594919+813271224+817421122+821267409
826+825058843+828677087+831727421+833980340+835291942+835269630+833495636
816+829937224+824948474+819206405+813674247+809126174+805619891+802852451
806+801032703+800869077+802544124+805250137+808136778+811300733+815412580
796+820744122+826985173+833675931+840361841+846500227+851557509+855276692
786+857825388+859701183+861514024+863790784+866754257+870116038+873259939
776+875812354+877931795+880033174+882413197+885032018+887424791+888979508
766+889511627+889403782+889151768+889045716+889204163+889517603+889609776
756+889139615+888034937+886299991+883881918+880795990+876972017+871919118
747+864980065+855991363+845302380+833173364+819651331+805174699+790918671
737+778315510+768282294+760904956+755760615+752419286+750532269+749276315
727+746485766+738532879+722087682+697302445+670097675+650692391+647776996
717+663048452+691285119+724392731+755181281+779376891+795854627+805419740
707+809187799+807780505+801664166+791884824+780349087+769451520+761368542
697+757553002+758557274+763875999+772106268+781696018+791524434+800827373
687+809071654+816115630+822154804+827296223+831446652+834700788+837372337
677+839456716+840647258+841170810+841914368+843485488+845922089+849051579
667+852101448+854167432+855530566+856929028+858710791+860699810+862455010
657+863545477+863665540+862710676+860717540+857691711+853481117+847735395
647+839970904+829634874+816291210+800431123+784648600+773603942+771661674
637+779757867+794578752+810834358+824498236+834136529+839625256+840709415
628+837149343+829541174+819733543+810563550+804781172+803761627+807187292
618+813702537+821595658+829401321+836413820+842468533+847302223+850507351
608+851978064+852018705+851127325+849868649+848708654+847744891+846707682
598+845284981+843368678+841128376+838969024+837137987+835254223+832725184
588+829788406+827535885+826678307+826741792+826685944+825807912+823949981
578+821485954+819285296+818194497+818410120+819575295+821057629+821623349
568+819486575+813582938+804623456+794662491+786144149+781252354+781182626
558+785521452+792482885+799817457+805626067+808907031+809646538+808133524
548+804307957+798161270+790422412+782131116+773702556+765060631+756348979
538+747625109+737967026+725857600+711215283+697100436+688799975+690470705
528+702615394+722337172+744703140+764760340+780016920+790657161+797855865
518+802965409+807523643+812557018+817975885+823487191+829607979+836968583
509+844828434+851098106+854241940+854686534+854198643+854590842+856903993
499+861004551+865514706+868335803+868189907+866060172+864565553+865547777
489+868411308+870961664+871572275+870386580+868616571+867304903+867260012
479+869229772+872939924+876523239+877914330+876637127+874196409+872717196
469+873002878+874266136+875367693+875699927+874856161+872551577+869541553
459+867272031+865530445+862245961+857222148+852979014+851270631+851002680
449+850273399+848945793+847911440+847689707+848825929+851659576+855135578
439+858100379+861179732+865255719+869012356+870041995+867821415+864236108
429+861875344+862241512+865357455+870338966+875400764+878128426+876946317
419+872397314+867129788+863232833+860781623+858901976+856060825+851433793
409+846657944+844486240+846210693+850982359+856401425+860087073+862165675
399+865988320+874206635+883014511+886199982+882828107+875129492+865880874
390+858736756+856507212+857319567+854320168+843578192+830664114+822718399
380+821126161+823997993+828786592+831852664+830959093
##END=
