##TITLE=X9680
##JCAMP-DX=4.24
##DATA TYPE=INFRARED SPECTRUM
##DATE=19/11/2018
##SAMPLING PROCEDURE=Instrument type and / or accessory
##ORIGIN=Default
##XUNITS=1/CM
##YUNITS=TRANSMITTANCE
##RESOLUTION=4
##FIRSTX=3996.5625
##LASTX=399.65625
##DELTAX=-2.0390625
##MAXY=1.1321075
##MINY=0.8786968
##XFACTOR=1
##YFACTOR=1.0543573e-009
##NPOINTS=1765
##FIRSTY=0.97774935
##XYDATA=(X++(Y..Y))
3997+927341591+927680273+927743815+927970563+928134788+927910018+927768010
3982+928283014+928943361+928814808+928326148+928313259+928554706+928416542
3968+927700737+926951522+927151362+927997246+928405575+928742730+929254851
3954+929470237+929692859+930300745+930709582+930420309+930031371+929411388
3939+928404275+927871520+928309980+929690372+930923216+930972455+930885453
3925+931068955+930416465+930198535+931527370+932076011+930685217+928932394
3911+927785196+928030657+931044363+936071504+939592188+939370922+935598616
3897+931172860+930171683+932408926+933504907+933065373+934603601+935951035
3882+935785397+935390523+933138073+932227120+934600549+938110943+940696535
3868+939639165+938385292+939088207+937349517+934178256+934727010+941114191
3854+949961295+947737336+937720139+932310900+932599325+936303058+940718809
3840+944363353+944901365+941635075+938748904+937114232+935949226+935710775
3825+935857136+938416497+943499718+944393258+942530933+939610391+934300365
3811+931524657+933946137+937770905+938584566+940628584+942520305+939665114
3797+936747567+933706725+930398601+929206347+929427838+930239295+931048377
3782+931513237+932795943+932722564+930219961+929333204+931955259+935789524
3768+936798559+935872343+934757198+934532993+936682669+937952485+937850728
3754+941518733+949066397+951849794+948639018+948213447+947045218+941356034
3740+939161868+943025360+948582599+948190269+941158625+934565612+932442902
3725+933182167+934295277+934611629+933426102+931994379+933008671+937859829
3711+942253306+939718027+934508571+932665354+934059992+934343725+932210217
3697+930506916+930844806+934453623+940455936+942279480+936815688+931729697
3683+930554064+932641780+937605606+944207608+945948559+943829976+943860842
3668+940064623+933185277+929758040+929359491+930294922+932884245+935387753
3654+936264673+940499126+948825572+950057738+940972014+933067069+930653616
3640+930957191+930880930+930841697+932060408+935845943+941772504+941188248
3625+934358932+931446982+934060501+938529617+939476976+938742742+939261929
3611+939253336+938214679+935993604+932804140+931128030+931893979+933060850
3597+933346053+933374319+933340060+933960327+935771886+936087164+933534756
3583+931361337+930441905+929881506+929666685+929771099+930112777+932017274
3568+935954823+938024732+935704387+932704305+930914510+930070604+930413808
3554+931510411+931600918+930686065+930844919+931676445+931417360+930575602
3540+929987672+929568433+929226246+929147611+930043695+931843552+932695599
3526+931934568+930779060+929528804+928287141+928249717+929479113+930353206
3511+930521049+930305607+929697834+930020291+931393164+931529801+930571080
3497+930371070+930372427+929748543+929262483+929019962+928732668+929123641
3483+929988746+929918816+929040935+928773823+929089948+928988587+928353283
3468+927763714+927935740+928694000+928899493+928185836+927623911+927790340
3454+927760152+927273527+927083015+927333620+927859139+928533563+928683994
3440+928070398+927505986+927567040+927885709+928000073+928322247+928847088
3426+929122397+929819377+930934805+931170259+930529924+929868221+929462153
3411+929381143+929294593+929140092+929232295+929296346+929116970+928882081
3397+928784451+928954442+929330265+929529709+929406130+929246711+928924649
3383+928599705+928893670+929546555+929558257+928686199+928017315+928267638
3369+928953876+929246428+929070219+928753415+928224504+927967511+928284314
3354+928668278+928930303+928872753+928248982+927793393+928055700+928319590
3340+928200761+928241124+928789821+929340779+929154168+928404501+928106579
3326+928578110+928978355+928709150+928185158+928141120+928667939+929324611
3311+929610945+929317036+929164005+929569903+929320485+928511572+928667600
3297+928916283+928331914+928122294+928442829+928633454+929045119+929534683
3283+929539206+929496920+929679687+929675278+929455765+928908764+927922059
3269+927327232+927777564+928621639+928832559+928431014+928088093+928215063
3254+928467703+928292003+928282901+928758729+929186448+929761432+930377685
3240+930131771+929300698+928809438+928812377+928965635+928959812+928933299
3226+928329314+927186525+927175897+928090015+928481045+928424739+928306984
3212+928069494+927754216+927483712+927279915+927317791+927889723+928481045
3197+928516095+928256105+927908831+927758287+928207318+929018718+929245693
3183+928938217+929550908+930779003+930916432+930006723+929287470+929048963
3169+928715256+928239485+928141572+928364759+928253787+927927486+927871463
3154+928221903+928490768+927900294+927551720+928157570+928407045+928033596
3140+927366748+926332726+925496113+925454505+925856785+926287953+927106758
3126+928103017+928401674+928051799+927649633+927424862+927187090+926865424
3112+926900305+927240626+927190425+926819577+927004153+927719506+928097421
3097+927917310+927619106+927525602+927281950+926693398+926211748+925754859
3083+925318038+925193611+924696924+923626043+922546061+921218413+919519747
3069+917989320+917374538+918153093+919689399+920907941+921665579+922232423
3055+922422539+921954456+920616746+918575498+916590443+915305137+914472368
3040+913366042+912351863+912017251+911819447+911627069+911678004+911809780
3026+912248862+912815027+912981796+912697893+911456174+909751629+909357207
3012+910344251+911491393+912190465+912705016+913426192+914120006+914316454
2997+914084900+913928024+914133630+914539810+914798782+914973635+915110837
2983+915193996+915402824+915406329+914697082+912594949+908377230+903834848
2969+902325281+903348053+903889401+903586109+903173031+902221150+901058009
2955+900496649+900084590+899599152+899105121+898327866+897366996+895993784
2940+893611423+890062531+885973816+881876736+877460759+872904867+869750509
2926+869074785+869822248+870870629+872497612+874962904+878226877+881881823
2912+885694889+889785864+893262509+895570304+896966864+897434608+897115091
2898+896275142+895718926+896403073+898343751+900859527+903176988+904955703
2883+906276115+907289333+908017405+908371520+908419855+908260944+907737969
2869+906652390+904998158+902773748+899641494+895348643+890792977+887863842
2855+887459301+889115681+892306445+896124259+899822000+903477907+906798411
2840+909427250+911483422+912778790+913680189+915187042+916801362+917563467
2826+917948731+918535021+919167837+919811677+920526691+920955710+921145996
2812+921570549+921994763+922137110+922318407+922639112+923037095+923442371
2798+923506478+923309409+923148972+922956594+922979885+923311896+923555887
2783+923789533+924100118+924260329+924239469+924037990+923957036+924314713
2769+924812814+925109944+925076704+924845150+924724115+924660800+924775503
2755+925355575+925974032+926216892+926305760+926294906+925934629+925497978
2741+925522061+925779337+925902350+925959786+925863682+925487124+925125717
2726+925242624+925749431+926233626+926450199+926422498+926259687+926011795
2712+925903876+925999867+926316219+926616459+926644725+926729239+926879953
2698+926946039+927031741+927088725+927006245+926963111+927106815+927251423
2683+927274997+926999857+926316558+925789569+926050689+926631948+926965486
2669+927293313+927524528+927286755+926814489+926700069+927129880+927689940
2655+927935627+927917650+927841614+927905213+928371543+928915943+928986721
2641+928552331+928147790+928286180+928566577+928461315+928256953+928511685
2626+929220310+929583188+928877276+927728834+927469862+928021442+928257801
2612+928042472+928131057+928670257+929255247+929675787+929792129+929513314
2598+928901924+928549787+928801128+928782529+928326939+928222243+928406027
2583+928817239+929390471+929493302+929348977+929284813+929063435+929100802
2569+929541806+929761319+929527843+929043027+928741995+928794061+929083334
2555+929773586+930465987+930487695+929982810+929674769+930045617+930506012
2541+930326354+929931875+930026227+930110855+929745321+929572560+929633783
2526+929904231+930441339+930431955+929892247+929778844+930248510+930980313
2512+931633763+931530197+930919541+930581595+930208485+929921813+930478933
2498+931255622+931424652+931495995+931812799+931808842+931209266+931022542
2484+931756776+931844966+930505729+929491493+929893264+930618962+930983874
2469+931062906+931150756+931861982+932787406+933194774+933121791+932603961
2455+931905568+931642921+931320295+930330989+929756966+930202719+930789970
2441+930906652+930839662+931314528+932186191+932432161+931764917+931057931
2426+930755995+930551237+930989923+932007607+932350755+931944970+931628393
2412+931538564+931277217+930809248+930345970+930157889+930470623+931197225
2398+931738008+931819866+931976289+932232943+932196028+931633141+930311882
2384+928386976+926387166+924271748+921608199+919033631+917337905+915939367
2369+914518724+913534846+913017072+912445592+911228181+910133671+910101730
2355+911345315+913678041+916367538+918382555+918532364+916589877+914626982
2341+914516576+915744558+917127777+917519089+916702262+915773220+915593562
2327+916117159+916811651+917153668+917735889+919230248+920481352+920572481
2312+920129951+920353364+921701590+923357404+924761822+925792226+926636923
2298+927958805+929416475+929865790+929661258+930200571+931239907+931660163
2284+931826989+932202529+931686620+930434555+930039059+930124479+930498606
2269+931551679+931919983+931846436+932223954+932250694+932503900+933100196
2255+932871412+932654500+933108054+933121622+932446859+932036665+932703230
2241+933709382+933251023+932447820+933908317+935938937+935967260+934811638
2227+933915214+934473804+935805805+934705528+931441329+930805291+933258768
2212+934206692+933363295+933993228+935401999+935797721+936439187+936832987
2198+936114016+936146635+936499336+935469894+934908477+935967260+936155567
2184+934887334+934252313+935258069+935008934+931541390+928827980+930623824
2170+934842957+935264909+932972208+932362061+929755101+926550373+928724697
2155+932414749+932263414+929506022+928943531+931437598+933049883+932014900
2141+930601098+930690248+931069576+931647105+933721706+934952119+934194255
2127+933936527+934458428+934495400+934280296+933969202+933936979+934819948
2112+935237661+934024208+932719738+932702722+933657599+934673757+934833233
2098+934852454+935254395+934576353+933503041+933199296+932940494+933715149
2084+936238499+938554604+939199009+937967861+936495831+936991332+937841682
2070+937065049+934921875+932737828+932995952+935114479+937214011+938796899
2055+938527808+937423291+937811608+938947500+939734591+940134214+939243952
2041+937010157+935618911+936340369+937055496+935650343+932827883+932131469
2027+936212212+939990567+937413794+931712795+929513540+931581697+933367196
2013+932189696+931083201+933140617+936249918+937335723+937462524+937355792
1998+936033854+936627324+941033860+944963494+945007023+942134307+938717755
1984+936597758+936700589+938122871+939029866+939421179+940317264+941213348
1970+941569894+941132451+939430281+937891035+937762764+937919244+937380101
1955+937694870+939699033+940484032+938675639+937658520+939390200+941076937
1941+940609137+939519092+938390210+936703416+935574025+935304312+934899036
1927+935470459+937759768+939179789+938660318+937943327+936876742+935875113
1913+936451963+936492440+934284480+932294054+932110891+933030662+934204883
1898+935293797+935778500+935529930+936613983+939161359+939381098+937305931
1884+935993490+935627730+935750913+936317926+937209714+938562801+941003389
1870+943944453+943893800+940784159+938789267+938391114+938039883+938033947
1856+938667159+938936702+938471785+938373929+940457462+944640076+945752790
1841+942685774+941131999+941539480+941482609+942241830+945698237+948027796
1827+947027185+945518070+943321586+941050593+940071464+939570649+939383585
1813+940467977+941689854+941197689+939910914+939717123+940780598+941456604
1798+940515181+939604342+941212104+943101621+940070503+935372772+933560873
1784+933891471+934926624+934954381+932959715+932183987+934821361+935901513
1770+929979305+921631716+915385073+912209685+909398023+905026368+900718141
1756+896085252+892676219+892350879+891906426+887766155+882319944+878947883
1741+877830420+876526685+876960906+883898706+892053239+892019264+888941732
1727+887034408+887739020+890730114+896569899+907384193+918051618+919507367
1713+917742672+919467060+925578310+934299969+941249868+946707102+954279415
1699+958458919+956542267+950520394+945290417+944856083+947759045+954700463
1684+962122854+957370005+949192689+947274341+950250285+952631854+954390217
1670+956811358+953822299+949473991+949901484+950130551+947216623+947189148
1656+954992167+968010068+967345934+962475386+964376096+960763605+951632260
1641+947827448+950978979+959279194+963143251+955245090+948921111+948909465
1627+950989494+952975002+953433361+950735780+950479012+953073706+950456852
1613+945984457+945304493+946338063+946364520+945607108+944260691+941653730
1599+938534422+935786358+933047113+930621958+929550286+930271574+932817085
1584+936391304+940003682+944340684+951179441+956851722+954718779+953273828
1570+956008607+955337124+952557119+953382935+960238990+975295200+980670576
1556+968809879+960550254+957400984+956476238+956728030+960637087+969425962
1542+979736785+978058245+964364563+957878225+956336152+951701568+948216669
1527+948319161+948575476+947511605+936753447+910410789+876040625+849485409
1513+848868534+868998524+896897161+920078168+916902724+906266956+906025736
1499+913999254+921337921+923747586+927481281+935156312+939725998+937468347
1484+934550009+933304954+931915630+930591883+931381745+934170794+933975025
1470+928506428+925627323+927522493+927833474+925673905+927648672+931095524
1456+924273614+915210390+913031205+915132093+917431296+916752067+914002250
1442+911328356+910886899+913398774+915321362+915819632+916750654+914277560
1427+906975412+899567720+894804356+895337337+901533272+905215523+903142787
1413+900504903+901117198+906469510+914358513+920757623+923828031+926366362
1399+929137378+929641754+926584292+921490726+919089711+919898962+919034988
1385+914371515+908411601+902513080+898425383+898201574+899985942+900234229
1370+899913694+899670551+899547877+902563280+907110184+908860293+909258899
1356+910052095+911404052+913749610+917037778+920672260+924690422+929525977
1342+934961221+939691966+942134702+942970637+943746535+944710175+945439208
1327+945642327+945168139+944397159+944758905+946424330+947724899+948237699
1313+948344487+948199257+948664457+949894700+950778291+950873152+950532378
1299+949869600+948735348+946917117+944455669+942057537+940318055+938521363
1285+936417365+935394084+936275301+938374494+940526261+942101518+943064819
1270+943077086+941713484+939466291+936520084+931929141+925673453+919687421
1256+915896855+914493850+914553152+915448671+916783498+917643685+917310261
1242+915558965+911701013+904380606+892929142+878962242+866655792+861115230
1228+864819076+875533875+887756771+894560478+892689278+888971977+891232116
1213+896153825+897642871+895955851+894597506+896378595+901400705+907879694
1199+914288075+919905407+924728073+928744878+931320295+932124798+931751236
1185+930535860+928367699+926096480+925139228+926041757+928801128+932987868
1170+937235436+940199451+941565145+941030355+938452056+936021587+936414652
1156+939502359+943708772+947916316+951175370+953063417+954044921+954429789
1142+953874761+951965119+948963510+946333371+945885300+947823152+950468045
1128+951873537+951239138+948263760+943093367+938602826+936342122+931935303
1113+923904010+919225161+922666360+930190734+935799869+938521024+941375990
1099+945448197+948050240+946293516+939016751+928653184+922634024+925947858
1085+935055516+944178268+950929570+955090758+957782008+960188677+962207764
1071+963903829+965327299+966180475+966753707+966834774+965038082+959429456
1056+948797872+936726481+931457497+935604213+943248151+949225930+952679228
1042+954415656+955509093+956657253+958172077+960139720+962379056+964568303
1028+966009184+966306993+966632729+968043309+969822928+971468341+972876999
1013+972217499+964488481+950017374+942782330+949721148+959757114+965831675
999+969772954+972346052+973839056+974925709+975697480+976467329+977379299
985+978001939+978216082+977208347+971044353+952683976+924646667+908752770
971+917868625+935170162+943576488+944878187+946116685+948497462+950130664
956+953050754+959404808+966397557+970870800+971908610+968911297+963122109
942+959201407+960536573+965539066+970775149+974811514+977626908+979306353
928+980309678+980745651+980340318+979183000+976617025+970787925+959622003
914+942009258+920917438+904582820+899970508+906942002+919911117+932247867
899+941705966+950025628+957198261+962003685+964125660+963598332+962655496
885+964457614+968412009+972480485+976429453+979800553+982161884+984332702
871+986760514+988685533+989755905+990692748+991616025+991830506+991272877
856+990404097+988890178+984618979+974621794+957874381+936874029+917246041
842+906078536+905879658+908227138+901191085+887032825+881898670+893504013
828+912457521+925358288+922985821+899676148+861705704+833395686+834110134
814+857078299+884260170+905776091+919642139+926637997+928778571+928061466
799+926303442+923524399+918689014+915664509+920186257+930994672+942413856
785+951792132+958932316+963914797+967599083+970569712+973020137+975762265
771+978797454+980604660+980767133+981159124+982797639+984714291+986577238
756+987985783+988552457+989590832+991633550+993532677+994227678+993313786
742+989599199+980319627+965753096+953091909+949106083+951407377+952856624
728+949901032+944515593+941779174+944355212+948682886+946445360+932531148
714+916328135+913326696+925365185+943992166+961093637+972837200+978353680
699+978361368+978299522+981434999+984922102+987116212+987225996+984678903
685+982268729+980654748+974714054+961714582+951355028+955764390+969041773
671+977654043+982615494+991425060+998590910+1002347331+1004152954+1003793526
657+1002514891+1000483253+995379003+985825479+971635449+955518138+945758500
642+948887192+961418694+974265418+982895892+988343629+992110903+996320709
628+1000804580+1002178979+1000033600+997484697+997879402+1001578612+1006607675
614+1011594226+1015452517+1017211559+1016841954+1016051188+1016585639
602+1018141845+1019113625+1018926505+1018105891+1015970574+1008949898+989587779
587+955380540+923839563+921164821+946156031+974087230+991290402+999788591
573+1005284720+1011054575+1015988212+1018645543+1019886753+1020148269
561+1016002797+1003610250+988200377+982768130+991650283+1005099522+1014056523
546+1019152519+1021522556+1021057639+1021810528+1023403140+1022882596
534+1022846416+1024743282+1025534839+1024324155+1022194040+1015988325
522+1000908598+968705070+918132741+878840925+879636948+909914158+944430343
508+970674861+985885290+992990990+995678508+988939925+970798101+954488921
493+956705078+975930391+995753130+1010560939+1021845239+1027079060+1030078068
479+1033984750+1037343301+1042186714+1045495855+1042258170+1037389770
467+1036595725+1038971867+1041416186+1045308848+1052235116+1055731943
455+1052676742+1051688907+1056138293+1058946111+1055759191+1051725991
442+1052147266+1052372488+1046813723+1040820228+1040363000+1042696291
430+1045046880+1047054096+1048116101+1049702721+1056315916+1065210393
418+1061420845+1048984768+1044568961+1050006409+1058820272+1064966967
406+1069548864+1073741823+1071488016+1054400282
##END=
