##TITLE=PH-738
##JCAMP-DX=4.24
##DATA TYPE=INFRARED SPECTRUM
##DATE=8/5/2018
##SAMPLING PROCEDURE=Diamant-ATR
##ORIGIN=Lara
##XUNITS=1/CM
##YUNITS=TRANSMITTANCE
##RESOLUTION=4
##FIRSTX=3997.453
##LASTX=373.96442
##DELTAX=-1.4165319
##MAXY=1.0083786
##MINY=0.14825104
##XFACTOR=1
##YFACTOR=9.3912578e-010
##NPOINTS=2559
##FIRSTY=0.99769133
##XYDATA=(X++(Y..Y))
3997+1062361780+1062069763+1062030349+1062175120+1062233067+1062045010
3989+1061683114+1061355745+1061244168+1061418262+1061839246+1062350927
3980+1062718725+1062846043+1062912621+1063125684+1063351186+1063191881
3972+1062507503+1061692444+1061307192+1061479635+1061818175+1061902334
3963+1061705138+1061511877+1061531997+1061713008+1061977670+1062447081
3955+1063194166+1063917196+1064178177+1063880130+1063297365+1062752808
3946+1062435657+1062348452+1062333600+1062266641+1062166615+1062001598
3938+1061718847+1061535995+1061760926+1062255027+1062495888+1062291902
3929+1061969673+1061795834+1061771970+1061899414+1062222023+1062664206
3921+1063053647+1063263727+1063304347+1063367942+1063668464+1064122389
3912+1064336023+1063974381+1063143899+1062331760+1061967262+1062151954
3904+1062659763+1063045904+1062970948+1062539999+1062231353+1062375807
3895+1062817482+1063129809+1062985038+1062439973+1061889830+1061590768
3887+1061538851+1061709073+1062104861+1062631520+1063011631+1062866924
3878+1062156207+1061259527+1060452910+1059820893+1059447891+1059420853
3870+1059711728+1060125795+1060536624+1061077056+1061905507+1062869843
3861+1063626384+1064060824+1064278330+1064418722+1064565016+1064555305
3853+1063999451+1063122891+1062494111+1062078014+1061731223+1061539359
3844+1061592038+1061775524+1061943588+1061999630+1061733699+1061122436
3836+1060660705+1060669146+1060883732+1060982616+1060954499+1060989724
3827+1061240550+1061610570+1061707550+1061168006+1060133474+1059407779
3819+1059502600+1059978739+1060367355+1060721127+1061220431+1061741632
3810+1062075221+1062169408+1062036759+1061626183+1061026663+1060595459
3802+1060706529+1061363742+1062096546+1062511184+1062433118+1061890084
3793+1061271586+1061033327+1061248928+1061620535+1061871869+1061972022
3785+1061967071+1061877327+1061828457+1062015244+1062460600+1062938579
3776+1063260554+1063467460+1063624798+1063622449+1063257444+1062535239
3768+1061756547+1061210213+1061044307+1061294054+1061808274+1062359876
3759+1062815451+1063108230+1063156720+1062947084+1062634820+1062456475
3751+1062470120+1062411285+1062167631+1062009468+1062145925+1062402336
3742+1062501093+1062515944+1062555929+1062477737+1062088422+1061649032
3734+1061863047+1062756806+1063508651+1063586019+1063117623+1062520768
3725+1062175437+1062207172+1062464853+1062768992+1063073894+1063324022
3717+1063357470+1063148215+1062922395+1062834491+1062738972+1062587346
3708+1062552375+1062425820+1061789424+1060706085+1059839426+1059833968
3700+1060518663+1061138747+1061210720+1060770061+1060194785+1059919079
3691+1060198085+1060978109+1061757245+1061920041+1061490425+1060959957
3683+1060745816+1060971318+1061410709+1061607143+1061121548+1059978485
3674+1059171677+1059489526+1060378335+1060872816+1060548239+1059899086
3666+1059459632+1059271512+1059266752+1059431579+1059674916+1059833904
3657+1059819307+1059670601+1059541379+1059655876+1060223409+1061257623
3649+1062237382+1062397386+1061752231+1060741754+1059556675+1058330913
3640+1057430299+1057264203+1057855854+1058880358+1060032496+1061068361
3632+1061683368+1061727542+1061534472+1061624470+1061842674+1061742838
3623+1061263018+1060551603+1059745303+1058991744+1058564476+1058759260
3615+1059602563+1060609740+1060920988+1060083906+1058455946+1056669569
3606+1055135542+1054021611+1053394482+1053225402+1053437894+1054034813
3598+1054960497+1055789011+1055963675+1055551386+1055243502+1055416008
3589+1055806972+1056004168+1055988492+1056134849+1056639168+1057347600
3581+1057958101+1058163738+1057851030+1057340619+1057175157+1057436265
3572+1057622100+1057466666+1057372987+1057796828+1058490663+1058822475
3564+1058790487+1058802926+1058967373+1059105543+1059144322+1059228608
3555+1059380868+1059358146+1059047469+1058733238+1058732096+1059002407
3547+1059249108+1059255836+1059124520+1059106622+1059229623+1059345135
3538+1059433293+1059595010+1059830921+1060068737+1060347616+1060789355
3530+1061386718+1061818809+1061596798+1060602822+1059324889+1058407202
3521+1058115629+1058220479+1058249674+1057969589+1057734185+1058054255
3513+1058802419+1059284968+1059097482+1058519350+1058013826+1057697818
3504+1057426935+1057145771+1057023404+1057285592+1057935379+1058646858
3496+1058963184+1058750311+1058398888+1058347732+1058547911+1058614553
3488+1058364615+1057982092+1057728536+1057695152+1057793591+1057891142
3479+1057972826+1058111440+1058234822+1058105918+1057676302+1057258681
3471+1057113212+1057065547+1056800567+1056371015+1056130787+1056283936
3462+1056754616+1057382000+1058007352+1058404536+1058343036+1057810474
3454+1057076591+1056494651+1056307039+1056609338+1057309329+1058058000
3445+1058427448+1058275823+1057855473+1057548794+1057481264+1057413099
3437+1057087317+1056606101+1056331537+1056496555+1056997446+1057477202
3428+1057604837+1057358263+1056985197+1056704223+1056606482+1056767374
3420+1057183852+1057627495+1057778867+1057528231+1057114481+1056935501
3411+1057130602+1057439692+1057584463+1057592016+1057584654+1057492181
3403+1057178648+1056686452+1056242047+1056088962+1056292695+1056665063
3394+1056959873+1057093918+1057084524+1056899768+1056538824+1056154017
3386+1055896780+1055708279+1055462213+1055252958+1055311920+1055652745
3377+1056021368+1056216850+1056316749+1056528035+1056897039+1057257348
3369+1057481581+1057633905+1057756780+1057690646+1057322911+1056863782
3360+1056652623+1056758298+1056905798+1056769024+1056279620+1055652110
3352+1055161310+1054971540+1055130718+1055569792+1056093151+1056493000
3343+1056686071+1056715520+1056681755+1056689181+1056799171+1056994590
3335+1057181948+1057270423+1057295556+1057369941+1057472315+1057467745
3326+1057396217+1057482597+1057816059+1058245612+1058570633+1058680115
3318+1058613474+1058531790+1058487109+1058305716+1057860804+1057270930
3309+1056673694+1056071698+1055503975+1055145062+1055190569+1055708152
3301+1056481322+1057017692+1056970155+1056514453+1056085915+1055876280
3292+1055823665+1055894432+1056087375+1056300755+1056422614+1056455300
3284+1056447176+1056425343+1056445399+1056534889+1056594677+1056580142
3275+1056698637+1057104390+1057450863+1057182710+1056270925+1055280757
3267+1054707005+1054579878+1054750290+1055202755+1055898621+1056524735
3258+1056691910+1056389357+1055989253+1055722179+1055417341+1054911626
3250+1054395376+1054158449+1054243242+1054519837+1054891888+1055313253
3241+1055755309+1056242491+1056810151+1057367148+1057687790+1057631747
3233+1057342713+1057129206+1057158338+1057332558+1057401865+1057164875
3224+1056654971+1056123488+1055769336+1055597337+1055583501+1055727002
3216+1055905919+1055951236+1055841816+1055608888+1055255243+1054970334
3207+1055125958+1055850639+1056853881+1057747958+1058295879+1058356427
3199+1057875084+1057031465+1056213486+1055691524+1055414866+1055231633
3190+1055182445+1055400268+1055834073+1056245919+1056434292+1056402876
3182+1056348610+1056457649+1056682263+1056789080+1056631044+1056296693
3173+1055989951+1055790217+1055543516+1055109330+1054672097+1054548969
3165+1054710813+1054826642+1054741658+1054631731+1054731249+1055103998
3156+1055615044+1056045486+1056277335+1056337567+1056289394+1056198191
3148+1056163981+1056244713+1056395005+1056499157+1056412396+1056075380
3139+1055696411+1055625009+1055924706+1056271496+1056337313+1056089025
3131+1055718561+1055449329+1055406742+1055574679+1055847846+1056053673
3122+1055934734+1055361870+1054612818+1054156545+1054124874+1054270978
3114+1054392773+1054486643+1054588573+1054735438+1054907437+1054869102
3105+1054423746+1053903307+1053891755+1054387506+1054798653+1054839399
3097+1054821692+1054955737+1054928191+1054435551+1053732069+1053328284
3088+1053333171+1053440369+1053509296+1053724643+1054101518+1054292176
3080+1054057852+1053588695+1053213280+1053048390+1052969879+1052779602
3071+1052445378+1052187824+1052197027+1052343321+1052361981+1052240629
3063+1052229840+1052454263+1052642828+1052385337+1051684521+1051055741
3054+1050941943+1051225392+1051469300+1051429950+1051181535+1050895167
3046+1050647006+1050411983+1050159443+1049939081+1049894907+1050126249
3037+1050461234+1050522989+1050172137+1049676894+1049294688+1048993976
3029+1048753114+1048720111+1048869705+1048879606+1048538338+1048027165
3020+1047649275+1047454681+1047282174+1047089612+1047026398+1047143243
3012+1047262563+1047242507+1047134738+1046986413+1046717180+1046269349
3003+1045693057+1045063706+1044447112+1043931624+1043559002+1043206563
2995+1042634460+1041710680+1040532456+1039300538+1038162933+1037196820
2986+1036426696+1035796838+1035152572+1034325137+1033304060+1032305832
2978+1031547386+1031011651+1030589270+1030331780+1030364910+1030668796
2969+1031114850+1031647793+1032368031+1033432900+1034801275+1036145151
2961+1037215226+1038138625+1039115274+1040063680+1040842562+1041566290
2952+1042445705+1043496739+1044524353+1045242242+1045417542+1045097281
2944+1044648497+1044412078+1044392212+1044418488+1044434673+1044452063
2935+1044441083+1044500933+1044927757+1045883462+1047129280+1048254571
2927+1049068043+1049644335+1050081123+1050399988+1050683627+1051057328
2918+1051426903+1051494053+1051199687+1050904306+1050973106+1051393646
2910+1051901328+1052294577+1052535059+1052655013+1052698553+1052758467
2901+1052947602+1053234351+1053406985+1053318447+1053054927+1052781823
2893+1052566031+1052447028+1052528521+1052860270+1053306324+1053652417
2884+1053805185+1053791666+1053669934+1053565465+1053667776+1054017359
2876+1054413464+1054651533+1054751369+1054882304+1055131988+1055383703
2867+1055429590+1055191965+1054775106+1054310392+1053868145+1053511263
2859+1053323270+1053354116+1053565529+1053842060+1054091617+1054308932
2850+1054479915+1054539575+1054525232+1054607296+1054836861+1054992167
2842+1054818582+1054386046+1054065722+1054082668+1054240069+1054245591
2833+1054113640+1054026943+1054020596+1054035828+1054093330+1054263552
2825+1054593523+1055026186+1055310968+1055203199+1054824865+1054568644
2816+1054608756+1054764761+1054827531+1054780183+1054712590+1054707322
2808+1054804301+1054966463+1055081784+1055076517+1054996927+1054931492
2799+1054912705+1054973889+1055221097+1055708914+1056266673+1056582046
2791+1056489510+1056114857+1055735317+1055554623+1055571378+1055612379
2782+1055537232+1055412390+1055373929+1055365551+1055244961+1055101396
2774+1055195900+1055581470+1056021051+1056276003+1056322525+1056299994
2765+1056350324+1056479418+1056532541+1056355973+1056010515+1055758356
2757+1055772953+1055920454+1055929085+1055731001+1055527078+1055539581
2748+1055786091+1056071318+1056167155+1056032983+1055841499+1055762925
2740+1055796183+1055851337+1055890750+1055911314+1055867838+1055707899
2731+1055450218+1055160422+1054883827+1054667400+1054594602+1054720016
2723+1055023267+1055444950+1055867331+1056094420+1056018829+1055803228
2714+1055717673+1055819920+1055943239+1055938161+1055776190+1055505625
2706+1055241915+1055107553+1055072074+1054991723+1054872085+1054890999
2697+1055106664+1055385797+1055632308+1055832867+1055924198+1055855081
2689+1055703963+1055551449+1055359902+1055108949+1054894236+1054803222
2680+1054816297+1054864660+1054872593+1054763682+1054526945+1054257205
2672+1054065849+1054003650+1054084191+1054270914+1054436249+1054476361
2663+1054442342+1054412576+1054321372+1054115862+1053960111+1054048395
2655+1054305505+1054492736+1054548207+1054617641+1054773710+1054952309
2646+1055180287+1055562175+1055976877+1056150653+1056102100+1056108700
2638+1056194700+1056104004+1055770859+1055405726+1055158264+1055004417
2629+1054899313+1054855520+1054908707+1055039070+1055086735+1054826325
2621+1054206812+1053500981+1053153049+1053413522+1054087682+1054707449
2612+1054962401+1054907501+1054815345+1054884398+1055031772+1054990771
2604+1054652930+1054220457+1054011076+1054204908+1054682950+1055072899
2595+1055167720+1055256893+1055693935+1056267879+1056440956+1056100259
2587+1055691397+1055672610+1056064590+1056467423+1056425788+1055837628
2578+1055002068+1054282720+1053843012+1053680152+1053711379+1053776624
2570+1053759488+1053781067+1054091363+1054690186+1055272126+1055628055
2561+1055867077+1056182704+1056635042+1057174395+1057688742+1058078246
2553+1058407329+1058803307+1059200238+1059490541+1059829461+1060342475
2544+1060703102+1060529516+1060019422+1059702081+1059735782+1059818735
2536+1059591646+1058931703+1058061935+1057446357+1057403516+1057830276
2527+1058374452+1058767702+1058959629+1059025827+1058961660+1058640067
2519+1058076469+1057587700+1057437852+1057433473+1057123938+1056404716
2510+1055703329+1055447488+1055547768+1055636433+1055635037+1055729605
2502+1055929656+1056033871+1055960692+1055819158+1055717038+1055657886
2493+1055602986+1055573981+1055647985+1055816048+1055897732+1055686764
2485+1055217924+1054830323+1054836797+1055144237+1055419245+1055596893
2476+1055841118+1056047136+1055885800+1055332865+1054712336+1054293763
2468+1054184915+1054482644+1055214243+1056134976+1056735893+1056570495
2459+1055662836+1054566613+1053919681+1053933644+1054301443+1054537227
2451+1054409973+1054093330+1053888391+1053843773+1053781067+1053649624
2442+1053580126+1053522180+1053175072+1052507958+1052020712+1052172465
2434+1052759038+1053152541+1053050484+1052759165+1052756499+1053144480
2425+1053654701+1054052139+1054270851+1054252445+1053972043+1053536904
2417+1053070096+1052675768+1052552322+1052798769+1053142830+1053199254
2408+1052952553+1052783346+1053117760+1054037669+1055083054+1055608507
2400+1055492424+1055238551+1055288437+1055577027+1055820682+1055860984
2391+1055635735+1055162199+1054676857+1054530499+1054826325+1055326010
2383+1055735444+1055933845+1055968372+1055987984+1056132311+1056404843
2374+1056783558+1057422746+1058445283+1059574954+1060345522+1060666480
2366+1060795511+1060733630+1060080542+1058758562+1057452196+1056763248
2357+1056350324+1055632308+1054791100+1054305695+1054114656+1053903624
2349+1053675265+1053681358+1054054805+1054562741+1054853045+1055045100
2340+1055610792+1056581221+1057344681+1057384919+1056877681+1056382375
2332+1056183529+1056131295+1056032158+1055978146+1056178515+1056568528
2323+1056805391+1056764771+1056801773+1057208224+1057716795+1057893109
2315+1057715145+1057488563+1057444770+1057615436+1057908532+1058207404
2306+1058523476+1058989396+1059591456+1060073116+1060229692+1060155434
2298+1060093108+1060126112+1060091522+1059819180+1059425296+1059217247
2289+1059263325+1059307181+1059208108+1059177072+1059443702+1059948782
2281+1060466302+1060760731+1060579021+1059846725+1058922501+1058272840
2272+1057893046+1057498147+1057243258+1057621402+1058528998+1059127884
2264+1058933607+1058470163+1058492440+1059032745+1059603515+1059991559
2255+1060325783+1060453227+1059875920+1058620709+1057624004+1057668242
2247+1058290928+1058389685+1057630668+1056667919+1056277716+1056728975
2238+1057664941+1058350715+1058384861+1058133844+1058151298+1058479429
2230+1058864046+1059361828+1060330480+1061728685+1062632916+1061995378
2221+1060084096+1058458992+1058141841+1058569935+1058759324+1058680560
2213+1058976322+1059834285+1060715732+1061158613+1061393699+1061942192
2204+1062954129+1064189792+1065293187+1065931296+1066071815+1066138965
2196+1066481820+1066785198+1066382048+1065111668+1063718540+1063248050
2187+1063924622+1064838754+1065079807+1064869727+1064933195+1064999710
2179+1063948740+1061637544+1059517706+1058697633+1058369058+1057258998
2170+1055700663+1054939298+1055145189+1055408582+1055289389+1055228460
2162+1055590927+1056321446+1057397994+1058821840+1060428538+1062122822
2153+1063681856+1064374484+1063644156+1061909569+1059851548+1057560536
2145+1055290214+1053985561+1054030243+1054378747+1053719883+1051927477
2136+1049991316+1048806999+1048236927+1047449159+1046037626+1044433276
2128+1043374499+1043270602+1043828297+1044216596+1044000550+1043713928
2119+1043949966+1044370189+1044344865+1044032221+1044032157+1044379328
2111+1044579698+1044408587+1044148050+1044143544+1044490525+1045070434
2102+1045599124+1045812568+1045867531+1046170465+1046553940+1046280138
2094+1045215141+1044264007+1044357686+1045546065+1047080028+1048051155
2085+1048150483+1047948845+1048149214+1048673969+1048941678+1048792528
2077+1048569818+1048506159+1048623829+1049046782+1049821602+1050620540
2068+1051204701+1051981806+1053479085+1055427686+1056983610+1057595126
2060+1057193309+1056101973+1055200470+1055382814+1056390817+1057061803
2051+1057151801+1057791941+1059537698+1061256862+1062108034+1062969298
2043+1064445696+1065297630+1064361347+1062450445+1061009907+1060410259
2034+1060589493+1061809226+1063771854+1065265896+1065465186+1064647969
2026+1063443088+1062278256+1061472463+1061201962+1061610316+1063185661
2017+1066226678+1069745864+1072049887+1072716938+1072937681+1073603081
2009+1073741823+1071585427+1067278727+1063317612+1061571220+1061272158
2000+1060815060+1060190405+1060432790+1061641733+1062877967+1063527818
1992+1063844398+1064210356+1064339767+1063578212+1061935274+1060418066
1983+1060121542+1061168704+1062485543+1062643262+1061384750+1060093807
1975+1060016375+1060860693+1061700187+1062048057+1061722274+1060661847
1966+1059209504+1058110869+1058164627+1059740860+1062301295+1064632927
1958+1065753332+1065327714+1063589636+1061343559+1059612971+1058876423
1949+1058737300+1058380990+1057348298+1055929593+1054801826+1054254920
1941+1053861291+1053006881+1051639078+1050452476+1050185211+1050606957
1932+1050641548+1049630435+1047969091+1046464323+1045516742+1044983419
1924+1044496872+1043802085+1042935490+1042175394+1041812039+1041832222
1915+1041949892+1042065467+1042250160+1042298650+1041768500+1040519128
1907+1038842424+1037165847+1035906892+1035328760+1035343548+1035674090
1898+1036170348+1036811822+1037565888+1038384628+1039302188+1040490440
1890+1042077844+1043817825+1045204479+1045968636+1046151171+1045848427
1881+1045114989+1044105844+1043142142+1042439993+1041905147+1041403367
1873+1040992029+1040641050+1040030486+1038981102+1037796595+1036660323
1864+1035237492+1033232468+1030865357+1028532582+1026130691+1023153460
1856+1019406486+1015112544+1010326088+1004658312+997688676+989434126+980076053
1846+969304671+957091227+945444173+936895448+931949242+929990803+930307319
1836+931808152+933175512+933533472+932328845+928884552+922728134+913377996
1826+899070798+877475862+847853719+810395472+764528256+710561479+651880156
1816+593724540+539575673+489511399+442513846+399462684+362320413+331457529
1806+305970214+285317813+269959106+261665110+263355332+277629177+304943520
1796+344159203+395960539+463884390+545248717+623493612+685792751+734845818
1786+776913381+813317675+842550695+864986839+882802814+897484854+909483141
1776+919266641+927651745+935373099+942434954+948173370+952506219+956036385
1766+959133571+961985008+965168828+969370233+974396473+979518358+984650399
1756+989766509+994272943+997913544+1001106186+1004117436+1006611166+1008217483
1747+1009027211+1009313198+1009350327+1009470600+1009942930+1010677004
1738+1011358018+1012015612+1013016887+1014374980+1015420999+1015950324
1730+1016445567+1017187257+1018045664+1018760951+1019222365+1019542308
1721+1019942412+1020584901+1021349947+1021656372+1021205620+1020521750
1713+1020020478+1019753086+1019747882+1020044469+1020577983+1021180868
1704+1021666526+1021941407+1022057110+1022142919+1022224031+1022262810
1696+1022340686+1022575645+1023019288+1023652701+1024338285+1024887348
1687+1025292149+1025672450+1026004453+1026071094+1025754134+1025118880
1679+1024224994+1022896223+1020736590+1017684403+1014016384+1009319037
1670+1002509087+993505993+983508605+971840925+954826300+928687737+895496014
1660+863118652+837048063+818789271+809096912+811483000+830575447+854847346
1650+872097882+887902485+909462958+935345934+956698358+971374750+982433200
1640+991335189+998248783+1003742592+1008701682+1012924477+1015654245+1017247488
1630+1018318387+1019109519+1019705549+1020146716+1020396400+1020449841
1622+1020349180+1020086929+1019759052+1019706882+1020241411+1021162271
1613+1022124767+1023064224+1023958301+1024758825+1025477032+1026137609
1605+1026699874+1027077954+1027243289+1027287907+1027301616+1027228882
1596+1026909256+1026185147+1025040116+1023751267+1022795309+1022547973
1588+1023092784+1024194021+1025382845+1026234588+1026638754+1026709013
1579+1026541330+1026239348+1026083407+1026301547+1026642499+1026839631
1571+1026991447+1027312977+1027727234+1027936806+1027868832+1027646058
1562+1027348138+1026931025+1026326681+1025753372+1025487060+1025314997
1554+1025060426+1024777612+1024618307+1024653278+1024821722+1025023043
1545+1025167814+1025165530+1024978298+1024656197+1024316388+1024078002
1537+1023888485+1023617286+1023231209+1022860808+1022634861+1022521507
1528+1022498531+1022619248+1022882705+1023192366+1023468199+1023694780
1520+1023933738+1024270691+1024679426+1025003178+1025108472+1025003622
1511+1024763141+1024425427+1023923710+1023122551+1022219208+1021647359
1503+1021463999+1021635364+1022189505+1023108207+1024236609+1025278186
1494+1026035679+1026585504+1027085951+1027558726+1027805681+1027657546
1486+1027269501+1026928169+1026788285+1026823637+1026925503+1027038921
1477+1027202415+1027456161+1027678237+1027571991+1027042412+1026357590
1469+1025640018+1024774375+1023709378+1022616836+1021733041+1021057295
1460+1020367522+1019231441+1016933320+1013426574+1009920589+1006963922
1452+1004349856+1001910201+999542202+997056596+994270849+991086140+987309908
1442+982761711+977521902+971445137+963651175+954050020+945190808+939266557
1432+936314079+936387956+939822475+945962455+953699167+962328117+970843521
1422+978086325+984031837+989384938+993910349+996767054+998003288+997939820
1412+996437971+993195380+988309786+982365987+976051280+970158509+965608472
1402+962458544+959418353+954852004+947874816+938263188+925743509+910860211
1392+895772228+882708817+873530233+870917691+876893097+889122408+902145199
1383+911409909+913824431+907544377+892720168+871138687+845566007+821159048
1373+805157947+801853791+810726458+828531770+850254341+871254961+889356923
1363+903619375+913380090+919558023+924380593+929596729+935810522+942676133
1353+949401924+955386724+960493631+964859420+968635906+971938856+974927892
1343+977760352+980400820+982484673+983475856+983120941+981561019+978773178
1333+974050634+966052051+953202719+933993490+907282825+872995386+832996125
1323+791355830+753742149+726676125+716413821+726156510+753640663+792231501
1313+833752159+871077630+900373357+921313301+935208018+943432675+947017868
1303+946640168+942632912+935136235+924390430+911009615+896022737+880572857
1293+865452315+850820224+836231545+820899209+804054869+785204109+764151762
1283+740900306+715585687+688452958+659945634+630977277+603104826+578292622
1273+558538709+545746816+541615415+547241873+562816785+587739677+620776855
1264+660006881+702810930+746057353+786617102+822227979+851983914+875964557
1254+894645540+908691502+918979447+926523470+932211048+936511084+939396603
1244+940527988+939523032+936150521+930430384+922730800+913843535+904875602
1234+896968984+891113724+888141189+888615805+892406698+898244823+903860555
1224+906813350+905360182+898694178+886691892+869679933+848335824+823575156
1214+796386131+767649433+738022847+707938401+677660695+647383686+617336623
1204+587780424+558913299+530867167+503813138+478051164+454016922+432226789
1194+413264293+397896891+387161685+382227983+384167667+393804206+411528501
1184+436997252+468874833+504756244+541294393+574602326+600917077+617209497
1174+621568113+613517867+594171801+565892201+531596448+494118145+455758395
1164+417971509+381245590+345340410+309846504+274740199+240694082+209191233
1154+182595429+164189581+157860688+167000747+192892355+233651172+284593513
1145+339900231+394527871+445227017+490463898+529875349+563785691+592914178
1135+618128072+640061103+658772615+673865739+685026690+692461548+696874684
1125+699009437+699070113+696569211+690826924+681527750+668641225+651899641
1115+630602053+604068909+572319057+536368497+498019505+459506035+423265394
1105+391774365+367453501+352693997+349678336+359712567+382482268+415895368
1095+456649965+501141824+546210578+589427615+628980821+663480497+691841463
1085+713025950+725588279+727591908+717712634+697686379+674509053+659275410
1075+661560520+683364013+718279088+756478454+790541850+817705488+838543692
1065+854652625+867320248+877363904+885326437+891577740+896431028+900215511
1055+903117913+905054455+905910134+905826039+905027354+903455056+900849051
1045+897139079+892400351+886396575+878426108+867565362+852762796+832770749
1035+806360035+772799752+732177614+685379510+633866605+579411250+523844693
1026+468825169+415732192+365799011+320358809+280962052+249312163+227061822
1016+215453992+214923953+224887480+243784667+269408106+299517273+332387244
1006+366894123+402286448+437999700+473558058+508480147+542222108+574200953
996+603888659+630890707+654876681+675362002+691522599+702162729+705735102
986+700324372+683884769+655256348+615927502+571442053+530896045+503998085
976+497124127+510800926+540138510+577721726+616923382+653669389+686292500
966+714568482+738968777+760179286+778700012+794738115+808429734+820033185
956+829902367+838362554+845650293+851989816+857631506+862687829+867098934
946+870944474+874570350+878230753+881844126+885201405+888219128+891002845
936+893773359+896635078+899428442+901970090+904315114+906606634+908842810
926+910950146+912937463+914854393+916666094+918277996+919708062+921131464
916+922651655+924157756+925514072+926739897+927907205+929008632+929959831
907+930650111+931061131+931365080+931781115+932373908+933095351+933865982
897+934504409+934806391+934777132+934555311+934066161+932926018+930613871
887+926524105+919866923+909486188+893451829+868582060+830568593+775310301
877+701454106+613136741+521018771+440290903+386312290+369644995+392211407
867+446359195+517879854+591691653+656944984+709052141+748636320+778916756
857+803133310+823228746+839991656+853749536+864737218+873169353+879375910
847+883953429+887630397+890858962+893542081+895274193+895907669+895749379
837+895162108+894227728+892927772+891368295+889647036+887670382+885232123
827+882336068+879726255+879110042+882214146+889180862+898195191+906922452
817+914048601+919406017+923191960+925539776+926744594+927495042+928531097
807+930017460+931483893+932523693+933330818+934302644+935337874+935920449
798+935841748+935455100+935209795+935258094+935547954+936007337+936548467
788+937052468+937417728+937567893+937417283+936935433+936303035+935883891
778+935910167+936262162+936604573+936524032+935344411+932033147+925766802
768+916945989+907691814+900977574+898722611+900359774+903035150+902891458
758+895955333+878377492+847541074+805151156+760196232+727274884+718989678
748+737756724+774528690+815555629+850573523+876013300+893008885+904117728
738+911562741+916928471+921297560+925365810+929413496+933231110+936366313
728+938676176+940542649+942475256+944608423+946669871+948435494+950056663
718+951731018+953252478+954210214+954333786+953226393+949445718+938612200
708+911124112+853245598+754790707+620001845+473122761+352806082+295510746
698+314456963+390619878+487255834+574504775+641235202+689528110+724793594
688+751234963+771655674+788058973+801836210+813732631+824059736+833080094
679+841037486+848010676+854032795+859123391+863162127+866090107+868194777
669+870130685+872424363+874744190+876659915+878255188+879746120+881122873
659+882269744+883358287+884715809+886301309+887727821+888791485+889609082
649+890201876+890249794+889354638+887296300+883766134+877662078+866388598
639+845927078+813171952+770926741+731120233+709519585+714321400+740431339
629+774926318+806731832+831067770+847700951+858117737+864358503+868629534
619+872530291+876334323+879455182+881745433+883795203+885983206+887994514
609+889409665+890258680+890767631+890889617+890354580+888902427+886013290
599+880683673+872312722+862070411+853132942+849316788+852673813+861614582
589+872035874+880769355+887030940+891119118+893462365+894800720+895910525
579+896959337+897634385+897703121+897260748+896763665+896868705+897933828
569+899512918+900479729+899983979+898353417+896891553+896843444+898456680
560+900755626+902278926+902173061+900580073+898315082+896413130+895347625
550+894361012+892236540+888748390+884487514+879525124+873008968+863227944
540+846650996+817257339+769973131+708939168+652025689+621138116+624594469
530+651844741+686869363+721623737+754766462+784648571+809020686+827651593
520+841646907+852011713+859501661+864795355+868470991+870959833+872675951
510+874253644+876280755+878658275+880806611+882546465+884075732+885267919
500+885707437+885258907+884163763+882916168+882225443+882700566+884301044
490+886208899+887540018+888120245+888407756+888802147+889062621+888385923
480+886195000+883065064+880791125+880912857+883093117+885414721+886364396
470+886159077+885695378+885454706+885911741+887472742+889605147+891189441
460+891949727+892414505+892511802+891797594+890872671+890635173+890853440
450+890512933+889204092+887635157+886959157+887698308+889252391+890682711
441+891682716+892363603+892702968+892701127+892594183+892575968+892386325
431+891186395+888168036+883277683+876202055+865175213+848779911+826574093
421+793722433+741372953+677264082+626524220+599233582+594723784+613245017
411+650598860+695873790+738450305+772669833+797278811+813507636+823640084
401+830061545+834906519+840305443+847191745+853808815+858049508+859093560
391+856495171+850713280+844598688+842340361+846150676+853553610+858873580
381+858044685+850944494+840310838+828629829+816496862+806307991
##END=
