##TITLE=X9248
##JCAMP-DX=4.24
##DATA TYPE=INFRARED SPECTRUM
##DATE=5/11/2018
##SAMPLING PROCEDURE=ATR platinum Diamond 1 Refl
##ORIGIN=ComPlat
##XUNITS=1/CM
##YUNITS=TRANSMITTANCE
##RESOLUTION=4
##FIRSTX=3997.453
##LASTX=373.96442
##DELTAX=-1.4165319
##MAXY=1.0951002
##MINY=0.83876061
##XFACTOR=1
##YFACTOR=1.0198915e-009
##NPOINTS=2559
##FIRSTY=1.0152609
##XYDATA=(X++(Y..Y))
3997+995459742+995056959+994564642+994303756+994445420+994937269+995646406
3988+996360218+996785794+996822730+996740677+996836756+997008576+996879302
3978+996260867+995310831+994316263+993532437+993194758+993408890+993992610
3968+994633487+995116336+995232519+994841190+994256886+994025922+994155313
3958+994228833+994199145+994239587+994021715+993002951+991454234+990593031
3948+991235661+992539739+992975717+992323503+991866251+992516362+993667438
3938+994346653+994184417+993132926+991325895+989541540+988990080+989902712
3928+991102179+991431909+990922761+990476147+990483744+990381821+989754386
3918+989131977+989519916+991201297+993395449+995138427+995929383+995604678
3908+994016805+991067815+987144711+983453739+981288340+980865336+981847632
3898+984076031+986824565+988700207+988804935+987690210+987197075+988209176
3888+989276914+988723934+986536562+984335046+983249659+983312543+984931741
3878+987861796+990024155+989578826+986760746+983550051+981577395+981329951
3869+982553145+983863535+983837937+982818590+982785161+984600841+986833915
3859+988004161+987664495+985418330+980592061+975643998+976126088+981202547
3849+986702187+990435938+991663808+990307716+986904397+982694458+979186527
3839+977662356+978660957+981264730+983975978+986120103+987766769+989074587
3829+989877933+989885180+989113276+987600209+984817545+980665347+977388204
3819+977141929+978841251+981440407+985156509+989174991+991880979+992499530
3809+991120997+988582037+986382976+984991468+983196710+980746816+979872287
3799+981796553+984775349+987495948+989972258+992169800+993717582+994571889
3789+994981101+994918685+994211418+993196161+992412101+991698172+990756903
3779+990342782+991485910+993639503+995297039+995546236+994222755+991840186
3769+989670229+988748597+988951274+989771101+990635577+990550485+988826091
3759+986281637+984854948+984992754+984966923+982955812+978529988+973845325
3750+972415012+973813298+975061155+975195338+975673804+977745402+980118679
3740+981049897+979680013+976391064+973628446+974426824+978548222+983093501
3730+985991764+986745083+985840048+984516918+984123135+985034949+986736901
3720+988612894+990144078+990782150+989979155+987423246+983705741+981216807
3710+982360286+986083518+989855140+992373062+993212875+992535414+991551716
3700+991716289+992975133+994258171+994730150+993780115+990856371+986182636
3690+981853827+981070001+984126992+988254293+991521910+993186459+992865729
3680+990683382+987018593+981938217+976690113+974767191+976304804+977673694
3670+977943171+979946158+984972182+990417821+993958013+995215337+994989516
3660+994030013+992396088+990210819+988472633+987715457+986445976+982658926
3650+976143854+970679046+971258383+976413564+981859788+985801944+988323606
3640+990006038+991033918+991109309+990165001+988783662+987594598+986240377
3631+983608961+980230129+979715955+983033423+986716330+988257449+987098191
3621+983880951+980494462+979007694+979143280+979307561+979322814+980035633
3611+981228729+981879541+982327442+983952367+986523354+988243189+988030927
3601+986523354+985155457+984548828+984413125+984637777+985481214+986613238
3591+986771265+984840688+981548759+979956093+981716838+984949390+987635508
3581+989153367+989534994+989142848+988710960+988905456+989707048+990243079
3571+989137003+985282627+979253502+974656911+975160390+979411179+983751443
3561+986480457+987920822+988976989+989879686+990081195+989231563+987968044
3551+987305427+987182698+986571861+985171120+984241422+985131262+987409454
3541+989510098+990430094+990319872+989995518+990036428+990282352+990242962
3531+989703308+988828546+987971083+987408168+987193451+987342713+987976576
3521+989049340+990216196+991169037+991803952+992020539+991689522+990887462
3512+989972726+989395902+989379421+989641593+989548787+988706752+987526689
3502+987038697+987733340+988951742+989806517+990260612+990854033+991571235
3492+991771108+991252024+990607992+990426705+990648200+990811020+990588823
3482+990123156+990006038+990684902+991871745+992868417+993349045+993496553
3472+993458449+993100199+992392114+991708575+991535469+991909265+992326542
3462+992342672+992166060+992382529+993101134+993733127+993773803+993476216
3452+993339110+993203525+992527933+991450143+990817098+991026438+991632950
3442+992192709+992705831+993246889+993710101+993945038+993905882+993686607
3432+993475397+993441150+993649555+994040533+994380900+994307730+993594269
3422+992445997+991487663+991293986+991837030+992507362+992740195+992538453
3412+992331685+992394451+992617233+992880924+993250980+993609931+993528463
3403+992848781+992026734+991587015+991562937+991667314+991722250+991725873
3393+991652821+991379311+990845150+990192468+989654333+989370655+989341901
3383+989489293+989698632+989830010+989743165+989418227+989065470+988930819
3373+988942742+988741233+988081538+987078554+986119402+985595994+985568292
3363+985661215+985433525+984886974+984534217+984893286+985869386+986759811
3353+986986332+986628433+986104674+985656072+985315004+985105664+985070599
3343+985153704+985152886+984887909+984421774+984008705+983841093+983958211
3333+984270292+984566945+984666647+984623049+984623049+984704284+984768921
3323+984818012+984977442+985301796+985714398+986144415+986540068+986756655
3313+986655667+986345690+986117765+986144883+986384378+986656602+986755837
3303+986647602+986536094+986595939+986787629+987034723+987325998+987597871
3293+987773431+987943965+988298475+988849468+989348213+989540137+989464162
3284+989371590+989351486+989266511+989085574+988978158+989003054+989002119
3274+988938651+989088263+989667190+990431146+990917151+991034620+991096685
3264+991290596+991495144+991613314+991695717+991743055+991696185+991595664
3254+991553469+991631314+991825809+992090085+992355412+992587077+992746858
3244+992733650+992548739+992426244+992543830+992730494+992747559+992670766
3234+992686195+992746390+992727572+992693909+992778416+993001665+993306967
3224+993600347+993749140+993695023+993527995+993387267+993368214+993508008
3214+993742244+993929493+994026741+994195755+994617591+995210077+995617886
3204+995554418+995099388+994578434+994221937+994053039+994023702+994121417
3194+994392121+994898931+995575691+996120606+996216217+995886136+995506262
3184+995427014+995652952+995884266+995832252+995572418+995557691+996093956
3174+996845405+997184136+996989056+996750612+996885847+997292020+997600244
3165+997594750+997335384+997007407+996691585+996340932+996006527+995920733
3155+996244035+996875795+997553139+997986780+997989702+997680777+997411593
3145+997314111+997147083+996735534+996292309+996146671+996372141+996754002
3135+996990692+996945692+996755054+996611636+996514623+996385115+996285062
3125+996330764+996516726+996767794+997020731+997169291+997082446+996772586
3115+996446830+996331582+996484583+996746872+996830911+996517311+995864746
3105+995196168+994818632+994762527+994824826+994839671+994838969+994902554
3095+994942996+994814424+994602045+994532733+994575863+994445303+994055728
3085+993658555+993454124+993366812+993292707+993315967+993555112+993912778
3075+994108443+993963857+993587022+993203875+992872859+992485504+992034799
3065+991715354+991700626+991955317+992313801+992608233+992710857+992654285
3055+992681870+992933171+993160394+993050991+992704078+992475686+992469608
3046+992460842+992243086+991889862+991682276+991793549+992041461+992041578
3036+991579184+990739253+989792257+989087094+988912118+989295849+989985817
3026+990645629+991065711+991260206+991389013+991554638+991682159+991627691
3016+991367039+991032866+990784955+990715058+990883138+991289778+991763510
3006+992063786+992163021+992232801+992355997+992486089+992571297+992481180
2996+992032461+991339103+990850527+990796293+990888164+990734227+990263183
2986+989647788+989089899+988748129+988631479+988513309+988128409+987472337
2976+986748941+986058739+985305303+984421307+983527493+982783524+982135284
2966+981320834+980168823+978830673+977657447+976859069+976326252+975789286
2956+975158987+974651534+974492630+974580644+974590579+974320576+973800792
2946+973162954+972514655+971833278+970984815+969943026+968849749+967745660
2936+966492952+965061061+963569676+962023765+960393989+958943513+958048647
2927+957678475+957400874+956966474+956626867+956777764+957486668+958523606
2917+959709339+960998047+962292131+963435376+964402243+965323116+966330308
2907+967500086+968872950+970386309+971813116+972873490+973446223+973666608
2897+973814000+974093645+974504084+974887231+975108318+975185286+975230053
2887+975305209+975396379+975459263+975420691+975248637+975076058+975047772
2877+975015979+974676430+974043619+973465918+973164064+973075992+973108661
2867+973204156+973202636+972974011+972657546+972496947+972460246+972211399
2857+971477074+970372166+969367955+968948633+969290811+970319685+971950163
2847+974052969+976296388+978344493+980157777+981829748+983283555+984405411
2837+985319212+986269247+987347505+988443412+989356980+989951219+990300470
2827+990637096+991073542+991476559+991680055+991715938+991741887+991835511
2817+991952395+992057708+992178216+992329698+992499530+992714013+993028783
2808+993432968+993824648+994099326+994240873+994327016+994421576+994476511
2798+994397848+994227665+994172028+994396446+994835346+995244207+995421404
2788+995335728+995054387+994655227+994291016+994232691+994659552+995404339
2778+996087060+996518830+996802275+997034290+997137499+997045628+996870652
2768+996804145+996952705+997300669+997741791+998110327+998273731+998278406
2758+998330420+998530643+998725723+998746996+998645189+998535201+998414109
2748+998297575+998308679+998488447+998718476+998890997+998971180+998942777
2738+998864815+998872646+998976556+999008349+998872062+998694514+998642384
2728+998728878+998843542+998865750+998742320+998548526+998455603+998556591
2718+998765931+998950374+999082337+999181922+999198636+999072986+998881646
2708+998806373+998931322+999152701+999316222+999366015+999329664+999265377
2698+999262806+999378521+999546835+999664537+999745304+999871422+1000025242
2689+1000108581+1000075269+999923786+999627368+999238026+998992453+999114713
2679+999505691+999815201+999825954+999607147+999322417+999074856+998929569
2669+998924776+999045986+999230312+999385301+999435795+999413119+999435444
2659+999556185+999708836+999806084+999803513+999695511+999542977+999450171
2649+999444327+999464431+999494354+999581199+999704745+999794980+999898306
2639+1000145750+1000512766+1000805678+1000925602+1000942667+1000874757
2630+1000621703+1000212257+999918877+999974164+1000284141+1000556715+1000645313
2621+1000666352+1000811873+1001126760+1001467127+1001652856+1001668168
2612+1001675531+1001806208+1002002573+1002095146+1001964352+1001626557
2604+1001256150+1001090642+1001217696+1001507919+1001792416+1001967158
2595+1001936534+1001720765+1001605050+1001828650+1002165160+1002220212
2587+1002061483+1002091990+1002398694+1002672554+1002675944+1002451877
2578+1002203030+1002163874+1002425110+1002772257+1002842972+1002483552
2570+1001898780+1001508971+1001669921+1002414357+1003402146+1004158621
2561+1004404195+1004209816+1003814280+1003294262+1002564904+1001806208
2553+1001573959+1002195549+1003252768+1004020113+1004298648+1004452001
2544+1004696289+1004813524+1004657483+1004481923+1004515352+1004558015
2536+1004315597+1003918658+1003784825+1004043607+1004373688+1004441832
2527+1004255401+1004017542+1003895514+1004035659+1004509508+1005120462
2519+1005514362+1005542297+1005298593+1004907382+1004534170+1004398351
2510+1004487650+1004488001+1004224544+1003934320+1003960502+1004374273
2502+1004942915+1005350256+1005485725+1005508635+1005548492+1005538908
2493+1005491453+1005616051+1005964016+1006295616+1006421618+1006345175
2485+1006080432+1005702662+1005498816+1005736091+1006321798+1006892895
2476+1007159391+1007061208+1006662049+1006018951+1005263061+1004786056
2468+1005068682+1006119589+1007229171+1007539733+1006869051+1005851456
2459+1005294970+1005503842+1006189018+1006854791+1007212457+1007310055
2451+1007366861+1007496018+1007579006+1007420160+1006993766+1006494904
2442+1006174057+1006192875+1006570294+1007094287+1007334484+1007018546
2434+1006412851+1006041276+1006016263+1005970795+1005678584+1005399114
2425+1005489699+1005926028+1006392864+1006699218+1006869168+1006911947
2417+1006808271+1006721426+1006858999+1007105625+1007151560+1006971558
2408+1006803712+1006699452+1006480410+1006124615+1005853794+1005825975
2400+1005979211+1006182356+1006389474+1006607581+1006768881+1006731595
2391+1006483216+1006254707+1006278902+1006518281+1006790154+1007061442
2383+1007465044+1008132219+1009158814+1010624426+1012509419+1014683817
2374+1017042425+1019511255+1021912409+1024095690+1026230699+1028588255
2366+1030962292+1032771310+1033796034+1034293961+1034327507+1033555486
2357+1031773001+1029194417+1026112178+1022785768+1019795284+1017947928
2349+1017713692+1018958626+1020954191+1022656494+1023497360+1023777882
2340+1023986170+1024190367+1024214094+1024065534+1023882961+1023504490
2332+1022567312+1021175453+1019941155+1019197654+1018731169+1018322191
2323+1018070306+1018076617+1018056630+1017559287+1016562031+1015509137
2315+1014650856+1013712392+1012443964+1011135795+1010261500+1009916107
2306+1009832535+1009691105+1009326426+1008857019+1008572055+1008537574
2298+1008491638+1008288961+1008162258+1008296675+1008432846+1008226895
2289+1007809969+1007626110+1007802138+1008051335+1008207142+1008475976
2281+1009028371+1009630442+1009891445+1009731547+1009468440+1009487142
2272+1009869587+1010344488+1010608880+1010605140+1010427827+1010162499
2264+1009935744+1009892497+1009987640+1010028900+1009980393+1009986004
2255+1010098447+1010229357+1010391242+1010731726+1011167587+1011178341
2247+1010337943+1009043098+1008226428+1008288026+1008872681+1009707819
2238+1010856441+1011980400+1012245260+1011454071+1010654933+1010944104
2230+1012005531+1012598485+1012323807+1011993725+1012293884+1013115113
2221+1014147318+1015030847+1015095834+1014125695+1013103775+1013122944
2213+1013894147+1014202955+1013474065+1012190675+1011078288+1010504035
2204+1010514438+1010903662+1011255017+1011348173+1011509824+1012163324
2196+1013237608+1014447243+1015691360+1016676460+1016730578+1015591657
2187+1013925706+1012702979+1012467691+1013401012+1015536254+1018408101
2179+1020854372+1021970383+1022173061+1022558428+1023263241+1023345527
2170+1022158100+1020104326+1018425166+1018658935+1021312091+1024574799
2162+1025517003+1023350086+1020696695+1020384497+1021850343+1022443064
2153+1020974880+1018717961+1017452338+1017336155+1017123075+1016067143
2145+1014831910+1014433919+1014927521+1015522813+1015660152+1015570618
2136+1015804387+1016466419+1017070244+1017066737+1016306405+1014974742
2128+1013398908+1012072622+1011551786+1011989751+1012912670+1013742899
2119+1014380269+1014935352+1015150536+1014667103+1013806016+1013466818
2111+1014018395+1014702635+1014466529+1013248478+1012070518+1011792684
2102+1012168000+1012382950+1012089687+1011550968+1011207912+1011425200
2094+1012237312+1013184542+1013781354+1014083499+1014433100+1014881118
2085+1015227329+1015355551+1015252459+1014987249+1014795442+1014847572
2077+1014954755+1014887313+1014876910+1015348421+1016260937+1017058555
2068+1017129621+1016157611+1014432048+1012909864+1012482886+1013174607
2060+1014391606+1015679554+1016884982+1017870317+1018332126+1017854654
2051+1016287470+1014335268+1013517779+1014830273+1017430130+1019352526
2043+1019571801+1018851326+1018439309+1018660805+1019226759+1019949104
2034+1020577941+1020873191+1021110933+1021706693+1022682092+1024165938
2026+1026441675+1028836166+1029629811+1027840078+1024422265+1021325416
2017+1019752270+1019470345+1019705867+1020125014+1020566486+1020798852
2009+1021150323+1022303153+1023838194+1024277095+1023057057+1021244766
2000+1020136352+1020026481+1020384264+1020722994+1021082063+1021741056
1992+1022535051+1022882315+1022806457+1023211110+1024559370+1025924929
1983+1026042398+1024872270+1023391696+1022321971+1021762563+1021662744
1975+1021991189+1022526051+1022766365+1022291815+1021357676+1020759229
1966+1020800722+1020993932+1021015906+1021043608+1021150090+1021166220
1958+1021032504+1020800372+1020511901+1020230093+1019942558+1019563385
1949+1019108939+1018540648+1017491027+1015690308+1013686911+1012589601
1941+1012833071+1013799704+1014758623+1015416097+1015671723+1015436552
1932+1014871884+1014541101+1014939677+1015757516+1015887608+1014635778
1924+1012895254+1012341924+1013098983+1013592936+1013024645+1012532211
1915+1013191088+1014347658+1014759441+1014144864+1013354492+1013341869
1907+1014226566+1015421591+1016241651+1016212547+1015273849+1013898004
1898+1012766097+1012276819+1012374885+1012583640+1012333157+1011659202
1890+1011410823+1012209377+1013503052+1014404230+1014657752+1014410191
1881+1013875562+1013471376+1013652313+1014286644+1014615440+1014000278
1873+1012378859+1010067472+1007865255+1007296964+1009194347+1012245962
1864+1014548933+1015332992+1014977664+1014333982+1014068071+1014322060
1856+1014795325+1015140601+1015187355+1014803039+1013839913+1012275767
1847+1010208902+1007995231+1006729842+1007456862+1009386154+1010899455
1839+1011432681+1011519643+1011792567+1012019557+1011276290+1009158697
1830+1006818674+1006014510+1006608983+1007196093+1007513551+1008255883
1822+1009392816+1010211123+1010446645+1010427593+1010350332+1009917159
1813+1008818681+1007379484+1006511268+1006710439+1007443888+1007790216
1805+1007083767+1005143605+1002620658+1000866458+1000571092+1000954940
1796+1000778912+999328729+996946042+995521691+996663066+999116350+1000729119
1786+1000747821+999638355+998086833+996426141+994881398+993533723+991831537
1776+988849702+983986614+977447231+970810892+965819407+961618936+955992594
1766+948103723+938034551+925200832+909766788+894846918+883214477+874335538
1756+867400326+862416087+858443074+854173349+849973346+848108457+849735078
1747+853354224+857270841+861034223+864845878+868919471+873169383+876704841
1737+878285584+877698883+876783212+877680941+879469388+880506151+880203421
1727+878206628+874329343+869079485+863467111+857738261+850985506+843163609
1717+838056993+839638262+845586328+852126472+857776775+862123760+865217804
1707+868000643+871742752+876281018+880536658+884735142+890353594+898007118
1697+908041284+921060089+934341417+944235964+950693178+955372932+958999910
1687+960951293+960769713+960633660+964324749+970628903+976295336+980140361
1677+982069244+982691069+983034709+983091281+982131661+981269990+983309036
1667+987830938+991409701+992420984+991990850+992500466+994323743+995493054
1657+994375173+990257807+983275023+977721792+978802621+981421705+981260054
1647+979786670+981371562+986524406+991383402+993957545+994073027+991872797
1638+988020992+985351472+987593780+992844222+996829859+998237263+997748453
1628+996782404+996121891+995613678+995684978+997106525+998908763+999276248
1618+998073508+997816830+1000297582+1003436042+1005034669+1004929122+1004274220
1608+1004238921+1004947006+1005785650+1006375565+1006885648+1007570240
1599+1008289195+1008685082+1008692095+1008624068+1008755096+1009055254
1591+1009417128+1009846444+1010316903+1010693154+1010898286+1010988404
1582+1010923065+1010286046+1008376975+1004929122+1001576647+1001279644
1574+1003165806+1003685123+1001630531+999034531+998660267+999928111+1000742327
1564+1000215880+997688842+991482170+981062169+974399940+977297677+982255792
1554+985227808+986009531+985100405+983394946+981317445+977879410+971768992
1544+963142289+953646317+945744706+943943169+948459227+952734678+953498868
1534+951637895+950096892+950209043+949980768+947841961+944571071+941818738
1524+939719087+937969037+937998609+940570765+944215801+948789717+955149157
1514+962020843+966862657+968192041+965873758+961597897+961616365+971421144
1504+982975331+989615060+991501923+989994583+987069905+985946764+988702895
1494+993093420+995463015+994412809+991760588+991844160+996191554+1001577232
1485+1005191761+1006647204+1006861219+1006622542+1005694831+1003292859
1476+999147324+994152859+990844449+991810264+995540860+998258185+998217860
1466+996032826+993908337+993125329+992037253+988318580+981032481+972781210
1456+970271997+974064073+978990279+982682653+984835545+985916257+987065580
1446+989105094+991496663+993110602+993321578+992027435+989149744+984900065
1436+981071169+979736351+979893151+979535719+978461903+977766500+977645583
1426+976919498+975032168+972881146+971149856+969184213+967017821+966992399
1417+970082060+973987397+976792328+978334090+979244151+979796079+979630804
1407+978710399+978103887+978821264+980068711+980345084+979482829+978590885
1397+978538112+979463718+981172625+982700069+982556886+979869716+975095051
1387+970011286+965889187+961910971+956726452+950140315+942864677+935463272
1377+928017276+920835964+915018165+911392239+909223276+907424485+906033329
1367+905512083+905739774+906885941+910288618+916792352+925031525+933095722
1357+940230690+946589838+952528845+958137596+963284946+967978143+972424771
1347+976759600+980795089+983934133+985457252+985297355+984696102+985502019
1337+988145825+991271661+993522385+994524317+994557746+994074780+993498540
1327+993084069+992789287+992354594+991550664+990404964+989313966+988837896
1317+989152549+989866244+990605187+991424779+992467037+993623957+994743241
1307+995832953+996917640+997901455+998622397+998940907+998798775+998238315
1298+997346371+996183139+994747215+993000964+990986931+988924157+987123087
1288+985825204+985116067+984870961+984759336+984423528+983692533+982603172
1278+981272561+979765397+978002197+975813305+973171720+970320036+967540995
1268+964845293+961982972+958681225+954789504+950329726+945530574+940699513
1258+935947699+931144456+926143679+920898614+915398390+909663521+903787046
1248+897887078+892062910+886426983+881100333+876133218+871477659+867082459
1238+863000976+859355531+856208363+853537206+851315178+849508848+848016060
1228+846709177+845536886+844517889+843637458+842783794+841807050+840670701
1218+839575086+838909664+839056880+840248515+842572350+846002729+850364032
1208+855365101+860827630+866873411+873777181+881644838+890306197+899472906
1198+908860350+918151307+926953629+934883584+941668133+947146441+951203085
1188+953738773+954728198+954316415+952843089+950725087+948283082+945702628
1179+943183362+941061445+939688230+939152549+939175634+939356804+939481228
1169+939511267+939344415+938732876+937435461+935367310+932613925+929321061
1159+925519225+921093693+916013084+910550380+905201872+900413123+896455421
1149+893555171+891980915+891875194+893079511+895279799+898223062+901642629
1139+905119177+908222104+910749493+912736642+914290853+915485819+916384309
1129+917085030+917698497+918299750+918954653+919737543+920668293+921691615
1119+922756781+923872325+925071266+926349278+927627233+928771588+929648279
1109+930144686+930225103+930029906+929768553+929407731+928657626+927379906
1099+925818974+924323791+923018485+921848006+920793359+919901824+919144823
1089+918336218+917186369+915427903+912960534+909876016+906280364+902157329
1079+897503230+892487200+887367317+882330014+877439984+872668826+867994215
1069+863485286+859200075+855052611+850920167+846824308+842898048+839232908
1060+835833036+832704511+829943354+827653006+825775961+824180549+822951920
1050+822401804+822714411+823703837+824944447+826077172+827014117+827900450
1040+828881752+829925412+830872876+831637767+832323410+833120093+834127051
1030+835413597+837276615+840225723+844541733+849906781+855550830+860720155
1020+864996425+868330257+870988439+873462529+876205978+879378686+882918760
1010+886753850+890777884+894781930+898601767+902190465+905409634+907950348
1000+909581994+910345131+910440743+910029252+909183828+908012004+906804823
990+905985815+905832872+906285623+907104924+908186688+909616299+911479084
980+913811043+916751442+920496707+925002830+929900223+934750804+939264174
970+943317428+946939030+950208517+953079136+955418400+957278088+958954442
960+960712206+962580192+964451685+966261638+967989831+969563444+970889496
950+972024267+973177156+974431499+975558848+976229413+976318362+975932586
941+975281423+974614189+974102704+973683498+973182240+972655501+972403498
931+972593435+973084583+973674615+974312920+974980388+975535880+975795656
921+975684148+975249163+974593384+973821480+972981842+972076281+971182876
911+970455680+969877980+969184155+968191398+967076848+966227041+965980999
901+966570564+968100579+970479875+973404963+976421630+979084137+981196002
891+982913616+984590322+986567419+989066990+992146423+995759550+999852838
881+1004280064+1008653991+1012525666+1015721048+1018308048+1020283159
873+1021543873+1022187905+1022581455+1023048407+1023641361+1024202640
864+1024446694+1024045196+1022896925+1021255285+1019363630+1017087426
856+1014089577+1010233799+1005675428+1000639820+995140765+988926378+981816190
846+974057353+966225638+958927442+952803582+948582481+946709936+946924887
836+948435791+950459877+952352058+953350308+952611658+949616323+944437531
826+937743392+930667159+924522085+920529785+919755661+922909082+929861534
816+939548203+950566007+961753002+972258270+981491135+989193692+995459625
806+1000657118+1005248567+1009456518+1013087412+1015873582+1018004967
798+1020099884+1022539961+1025048765+1027127669+1028728282+1030257129
789+1032053991+1034087310+1036091758+1037855893+1039346051+1040563284
781+1041396435+1041720204+1041533891+1040928781+1040031460+1038970618
772+1037736788+1036129044+1033944945+1031109215+1027494218+1022737144
764+1016457419+1008797057+1000716729+993655282+988822351+986638719+986609030
754+987679106+988862442+989671749+990046831+990011882+989511734+988593375
744+987636326+987194971+987556611+988652986+990433367+993073082+996723144
734+1001270644+1006385033+1011590007+1016322535+1020232080+1023459957
725+1026360440+1028949895+1030930499+1032228733+1033115066+1033731397
717+1033862775+1033277535+1032014367+1030208271+1027723311+1024197730
708+1019544918+1014063162+1007872385+1000774587+993000730+985653033+980214115
698+977922950+979408432+984231837+990678590+996562545+1000567118+1002727256
688+1003641057+1003488407+1002025366+999275546+995805486+992292528+989064769
679+986210571+983922795+982414988+981682825+981731683+982831797+985021391
669+986956527+986618381+985044417+984498100+985284614+986488756+987264634
659+987603365+987988148+988584258+989081133+989133029+988688635+987984524
649+987448142+987478065+988068097+988769052+989223147+989633878+990505718
639+991974136+993641607+995083725+996153450+996764989+996916471+997070407
629+997937806+999695745+1001784117+1003475666+1004394494+1004662743+1004790614
619+1005166631+1005425647+1004615989+1002268251+998948972+995468391+991862979
609+987580455+982587392+977795429+974223854+972136067+971233721+971345871
599+972448733+974176516+975977060+977836864+980259057+983407920+986786577
589+989831880+992313334+994225210+995768433+997230422+998673008+1000130905
579+1002008184+1004612249+1007359263+1009109255+1009456401+1009177749
571+1009229529+1009719391+1010033926+1009880574+1009810911+1010530685
562+1012139948+1014291086+1016717253+1019245577+1021507522+1022987627
554+1023345410+1022688521+1021689043+1021214259+1021505184+1022041800
545+1022535870+1023411567+1024927907+1026553767+1027500179+1027404451
537+1026546053+1025645693+1025149636+1024689463+1023733700+1022474505
528+1021516989+1021285909+1022109125+1023953676+1025835630+1026534130
520+1026014346+1025501341+1025806058+1026352609+1026395389+1025853981
511+1024578656+1022134372+1018731052+1015423227+1012948085+1011171561
503+1010023407+1010059875+1011534604+1013599131+1014903676+1014596505
494+1012837162+1010583166+1008794836+1007658955+1006529385+1004700380
486+1002219978+1000063113+999439769+1000637716+1002645437+1004195440+1005071137
476+1005959808+1007230808+1008695017+1010387618+1012662420+1015574125
467+1018666065+1021223610+1022992186+1024463408+1025628978+1025335365
459+1023572516+1023242084+1026259102+1030344207+1033703462+1037553630
450+1042063493+1044087228+1041228823+1035329205+1030225219+1028156718
442+1029582823+1033661150+1037987271+1039983771+1039039346+1036713466
433+1034643445+1033306523+1032718127+1032840739+1033622695+1035304893
425+1038140740+1041426942+1043183479+1041009314+1035063527+1031621402
416+1034707381+1039861861+1042441965+1041984246+1041544995+1044566103
408+1051696278+1059697124+1063333277+1059576149+1049993040+1039592443
399+1034692420+1038821708+1046511642+1050551396+1052484195+1055796111
391+1059915230+1062160928+1061351387+1058768712+1056790095+1057031227
382+1059574162+1063873984+1069008711+1073072310+1073741823+1070610610
374+1067705100
##END=
