##TITLE=VLL-163-X19766
##JCAMP-DX=5.0
##DATA TYPE=LINK
##BLOCKS=1


$$ === CHEMSPECTRA SPECTRUM ORIG ===
##TITLE=VLL-163-X19766
##JCAMP-DX=5.00
##DATA TYPE=INFRARED SPECTRUM
##DATA CLASS=XYDATA
##$CSCATEGORY=SPECTRUM
##ORIGIN=Angelika Moesle
##OWNER=
##XUNITS=1/CM
##YUNITS=TRANSMITTANCE
##XFACTOR=1.0
##YFACTOR=7.4107931e-10
##FIRSTX=3997.453
##LASTX=373.96442
##MAXX=3997.453
##MAXY=0.7957278493069821
##MINX=373.96442
##MINY=0.1476137936058905
##NPOINTS=2559
##XYDATA= (X++(Y..Y))
2559G97814157G97278014G97053613G97120453G97049997G96648010G96264200G96214495
2551G96359429G96517634G96751523G96975278G96871121G96479510G96340769G96793829
2543G97515523G97943649G97952094G97911718G98134749G98455422G98474564G98056089
2535G97379999G96707608G96301436G96288973G96396829G96136559G95378350G94440140
2527G93576327G92757313G91985753G91500200G91505508G91909988G92441708G92876831
2519G93164206G93391580G93627882G93816167G93829355G93658683G93515763G93590080
2511G93742092G93702923G93441688G93141766G92964499G92941094G93044688G93278094
2503G93670107G94205929G94782608G95269606G95592775G95760149G95805028G95683178
2495G95323738G94834244G94488076G94358262G94290460G94329388G94538103G94657219
2487G94494751G94212283G94021182G93898286G93763646G93731636G93870618G93917348
2479G93569249G93108546G93167101G93913407G94816389G95408591G95712695G95839208
2471G95895672G96123449G96587447G96937798G96873615G96369483G95453632G94432418
2463G93969788G94349254G95215480G96105674G96804687G97121177G96601763G95397008
2455G94539309G94658506G95741811G97222357G98173436G97995446G97051525G96221412
2447G95880870G95782669G95862455G96338756G96962570G97104608G96662085G96212886
2439G96146532G96332485G96622594G97032302G97288711G96965704G96549806G96960800
2431G98111023G98923120G98805049G98316279G98070888G98096385G98001317G97578177
2423G97197907G97179247G97294663G97250347G97234743G97383857G97400669G97123027
2415G96764633G96428920G95991220G95499477G95220467G95294301G95617547G95987845
2407G96241278G96399563G96757796G97628044G98884352H00066988H00805974H00897825
2399H00201061G98840277G97487533G96890103G97188014G97916943G98456789G98386655
2391G97604555G96474765G95571944G95090251G94795638G94295769G93509248G93173214
2383G93762521G94509711G94514453G94072255G94425740G95589879G96640530G96981390
2375G96461573G95438833G94738292G94756871G95069018G95329929G95645215G96099397
2367G96459725G96534038G96549806G96749029G96948495G96891869G96740343G96887770
2359G97454557G98107564G98386896G98266654G98031636G97778527G97556944G97476836
2351G97489705G97362626G97092946G97039139G97392948G97903354G98224911G98419872
2343G98911859G99758621H00117417G99439075G98541479G98270756G98594887G99051968
2335G99486287H00241279H01438794H02075953H00835975G98486789G96700852G96070767
2327G96222618G96458679G96624203G96908920G97222438G97207156G96780716G96350099
2319G96369563G96831308G97284047G97414664G97299730G97154957G97112410G97101874
2311G97021605G96868467G96654927G96369000G95949801G95393712G94881537G94584993
2303G94461775G94518234G95034916G96130285G97229432G97549544G97304234G97029085
2295G96893400G97210373G98248236G99400147G99696610G99476394G99677790H00155380
2287H00028382G99129019G98196439G97785766G97710725G97532815G97143938G96771788
2279G96741791G97160909G97710162G97907211G97625631G97265789G97242786G97460509
2271G97488820G97040586G96315193G95718727G95284730G94963334G95071752G95944493
2263G97214234G97985231G97870378G97323457G96890666G96714442G96817395G97202649
2255G97453592G97023294G96177015G95468913G94851453G94068234G93354100G93179085
2247G93617667G94465153G95546528G96513612G96841523G96405354G95702641G95365642
2239G95516045G95757897G95781382G95595268G95203657G94517191G93829036G93901503
2231G95065720G96623479G97495737G97194526G96066746G94873089G94299707G94571964
2223G95299851G95862535G95947469G95602426G95005638G94384804G94003568G93957560
2215G93956115G93529517G92621706G91766984G91473658G91577814G91435615G90870678
2207G90548719G91192235G92667953G94033565G94488076G94012013G93092784G92280446
2199G92006906G92351948G92935786G93320641G93423350G93425200G93480133G93559517
2191G93364717G92556480G91371191G90645877G90846627G91486205G91793523G91601780
2183G91339418G91384944G91640707G91715027G91456205G91175747G91266874G91753070
2175G92308597G92600958G92517874G92165673G91773097G91538404G91451376G91334435
2167G91129741G90957703G90811482G90499576G90050217G89784638G89778687G89692064
2159G89357236G89105089G89251954G89633913G89884130G89912200G89905443G89981771
2151G90068957G90160485G90460085G91085023G91764893G92058300G91839371G91376821
2143G90886683G90212359G89156886G88036020G87559234G88099399G89341793G90603491
2135G91243630G90970488G90081742G89258549G88935624G89025786G89265225G89511419
2127G89668981G89621926G89339059G88948493G88679939G88702781G88982434G89331579
2119G89602787G89782708G89904639G89912039G89670268G89207154G88807015G88670448
2111G88688062G88774280G89064228G89519623G89799679G89745630G89577047G89525414
2103G89638900G89835470G89880591G89597961G89267557G89364072G89813110G90053192
2095G89883325G89693512G89803218G90016999G89954747G89588873G89306967G89408952
2087G89672600G89669785G89390534G89153347G89049349G88996831G89153267G89692225
2079G90335902G90623599G90503196G90269307G90066222G89761394G89263214G88767044
2071G88623075G89014202G89838204G90827085G91634755G91888916G91426928G90515823
2063G89640830G89103079G88977686G89275359G89868768G90410541G90627861G90601883
2055G90566896G90594563G90654483G90788881G91028561G91288590G91497787G91690094
2047G91856821G91862937G91655429G91434650G91456446G91721542G92027656G92259856
2039G92431493G92523344G92532834G92569027G92644709G92539349G92173314G91918192
2031G92207416G92976966G93736944G94102577G94128958G94165071G94417056G94714163
2023G94736521G94336707G93612279G92886644G92637955G93104849G93924667G94446413
2015G94401051G94086330G93973568G94218074G94509306G94487915G94267940G94260058
2007G94554749G94859901G94959955G94926738G94941376G95088964G95315695G95562614
1999G95856503G96152400G96233637G95961785G95499879G95141163G95022530G95080600
1991G95227705G95487412G95913042G96473237G97153107G97974534G98706603G98890063
1983G98444564G97891370G97743859G97999705G98322874G98418424G98173999G97693754
1975G97234743G97000610G97007771G97129619G97188738G97065517G96863883G96917529
1967G97474825G98344751G98990680G99028000G98564886G98056894G97903756G98142789
1959G98435395G98355770G97739841G96757233G95660336G94546307G93434127G92475488
1951G91895269G91696367G91618431G91465535G91317383G91370708G91707225G92217309
1943G92650824G92800502G92726187G92703264G92857850G92950907G92568464G91328644
1935G88790771G84485701G78434989G71575076G65399939G61096237G58992844G58665898
1927G59459657G60893635G62706033G64792455G67208799G69959247G72663207G74779384
1919G76268459G77666807G79395639G81306162G82943063G83940389G84120551G83583523
1911G82862392G82688906G83378830G84559455G85526941G85751340G85150210G84057333
1903G82800220G81242783G79069658G76670523G75292769G75991299G78672253G82341447
1895G86019894G89170961G91417277G92187631G90441345G84193179G70858688G49729697
1887G24508368G01881456F86812910F79937072F79385888F83564763F91505167G01884756
1879G13046201G23710108G33089553G40692879G46514930G51101825G55001128G58307504
1871G60913903G62918046G64532427G65816001G66765552G67539284G68334732G69106212
1863G69611711G69687074G69276960G68273444G66592789G64477011G62582330G61651442
1855G62048844G63576281G65703799G67942557G70031794G71886338G73418440G74439492
1847G74857562G74910327G74946440G75036923G75070944G75059282G75078666G75128934
1839G75191347G75194645G74928021G74216461G73073555G71552797G69652248G67394913
1831G64831062G62058817G59326788G56906259G54866811G53181249G51910463G51100458
1823G50722841G50788954G51190056G51360325G50466995G48141375G44910522G41868517
1815G39976413G39521343G39976493G40329579G39738985G38000582G35421931G32354913
1807G28953871G25292156G21563686G18116316G15286806G13225237G11917212G11337717
1799G11528737G12572307G14508731G17185988G20201210G23141951G25898273G28606737
1791G31289704G33720686G35713488G37388352G38993001G40571431G42014494G43353648
1783G44762612G46287717G47812660G49318381G50986167G52945028G55028956G56883339
1775G58281204G59282632G60122958G60994494G61909299G62693969G63072872G62800136
1767G61860237G60612856G59599202G59075204G58819358G58454851G57806992G56876500
1759G55640623G54022703G52006415G49701708G47294533G44955000G42812918G41031005
1751G39896225G39804696G41063016G43641100G47148312G51029117G54749062G57964473
1743G60690872G63183865G65523720G67462715G68762617G69519137G70077800G70723810
1735G71508879G72328939G73071306G73642034G73990213G74237132G74616598G75176790
1727G75749528G76263553G76831064G77532247G78330994G79139873G79847492G80375834
1719G80704871G80795756G80666104G80559776G80735916G81112568G81445144G81738953
1711G82158151G82651828G82950302G82870516G82485741G82039196G81747157G81643966
1703G81592571G81442329G81190584G80989350G80978251G81145544G81406618G81745548
1695G82184049G82671613G83113413G83493362G83894142G84369239G84822781G85098976
1687G85180287G85182301G85147958G85011147G84788679G84646640G84711547G84943747
1679G85243830G85582920G85974451G86390754G86760730G87000809G87034512G86871642
1671G86687941G86694697G86875905G86973305G86800060G86437243G86054881G85669382
1663G85189861G84619777G84113956G83865509G83946019G84220042G84465754G84632726
1655G84881575G85288387G85648631G85729463G85618470G85666808G86106436G86818881
1647G87499475G87998701G88446291G89016858G89641072G90026651G89947830G89475950
1639G88915034G88483208G88055082G87317785G86232389G85233776G84876588G85330452
1631G86275579G87252315G88040203G88695784G89320801G89887427G90279923G90413275
1623G90280486G89951530G89584771G89387716G89451982G89631420G89696568G89602385
1615G89489703G89474583G89581473G89766300G89853164G89601581G88993132G88278435
1607G87657516G87121376G86644992G86312818G86233514G86474401G87020196G87706259
1599G88314065G88797849G89291683G89840698G90229735G90163542G89652251G89143856
1591G89101309G89455119G89715469G89608739G89261203G88807741G88257202G87750575
1583G87520145G87551111G87570736G87388804G87089848G86917243G87049472G87471727
1575G88032321G88591788G89137744G89809411G90720838G91660415G92156826G91984707
1567G91380923G90633572G89726649G88516345G87074244G85769356G85081925G85296028
1559G86330030G87858271G89507639G90906871G91765215G92069802G92069560
1552G91973447G91824894G91737949G92013179G92825517G93944694G94927301
1545G95501404G95670470G95607654G95593579G95916664G96655487G97613483
1538G98541401G99328404G99967497H00498975H01006804H01534264H02004291
1531H02288451H02268746H01876571H01232975H00653078H00339885H00205890
1524H00054361G99764171G99366206G99099341G99220226G99684385H00218035
1517H00599673H00649539H00285837G99828836G99796343H00209026H00568868
1510H00592193H00477178H00474444H00691604H01271742H02265126H03278940
1503H03648594H03062987H01826142H00539428G99723634G99651650H00321705
1496H01534344H02940171H04010447H04265730H03721946H02899715H02316601
1489H02136681H02204483H02175126H01714667H00768494G99633714G98763950
1482G98446012G98508908G98416574G97823568G96931041G96140741G95526179
1475G94843333G93990458G93299649G93290561G94161290G95571863G96916242
1468G97769358G98114723G98196841G98192659G98114803G97991585G97940750
1461G98031156G98219683G98413759G98542768G98619093G98712314G98823226
1454G98894245G98932530G98971776G99029849G99254328G99885056H00844178
1447H01578821H01546006H00802355H00006505G99799640H00166238H00504122
1440H00359912G99944092G99826742H00294684H01072035H01567883H01369383
1433H00560423G99582883G98876149G98669606G98914272G99258913G99321648
1426G99180735G99324382G99933877H00592675H00953804H01277613H01936089
1419H02700813H02941780H02423248H01603674H01175789H01551636H02741588
1412H04381388H05810620H06476737H06374190H05838207H05063349H04233397
1405H03847497H04391039H05715955H06901083H06892638H05575525H03975540
1398H03031620H02699768H02552340H02456787H02439578H02493546H02752047
1391H03486288H04597904H05552683H05997699H05979602H05615418H05091178
1384H04919220H05512950H06374350H06421402H05305281H03646664H02091637
1377H00919699H00339885H00380422H00650581H00787154H00793749H00666349
1370H00274091G99826262G99838568H00384524H00881417H00822382H00329027
1363G99770444G99234703G98781322G98860465G99834788H01276648H02395985
1356H02921753H02953603H02437969H01561449H01143135H01840375H03329772
1349H04816029H05919280H06648615H06973389H06887973H06623280H06454780
1342H06439174H06501104H06627703H06926901H07579265H08604902H09552764
1335H09735339H09006245H07895675H06768214H05393268H03666128H02213249
1328H01857349H02807141H04646644H06794756H08733023H10057057H10654246
1321H10836580H11060412H11358406H11250148H10470464H09513353H09055066
1314H09174021H09654990H10605103H12061119H13351286H13641478H12999007
1307H12463427H13023538H14574541H15945221H16273212H16198654H16976729
1300H18530547H19346665H18442718H16645598H15593905H15899858H16560664
1293H16110262H14210836H11934201H10665747H10985616H12427556H14103385
1286H15530928H16721928H17611238H17947755H17754402H17359332H17030213
1279H16937399H17091824H17116998H16602089H15619156H14496122H13513834
1272H13137266H13832257H15266396H16395867H16677934H16581820H16767773
1265H17471773H18717304H20260422H21361183H21617110H21719657H22185988
1258H22340895H21525983H20106965H18858860H18203842H18233923H18830707
1251H19515165H19574763H18717382H17571747H17085470H17260484H17175631
1244H16494635H15926561H15904202H16011655H15992433H16263239H17105014
1237H18056254H18410305H17929417H16944316H16043261H15651891H15627122
1230H15405780H14905830H14904543H15972245H17506438H18456310H18441351
1223H17648316H16376082H15177360H14777626H15404815H16453777H16982198
1216H16633694H16087420H16230022H16946327H17346785H17096650H16790857
1209H17025869H17727699H18415131H18685052H18378294H17587511H16681231
1202H16099404H15917875H15931467H16320183H17471290H18887249H19383180
1195H18707411H17724563H16876997H15899617H14969852H14684086H15106984
1188H15949886H17189707H18708454H20166081H21779577H24110424H26525401
1181H27370956H26340252H25254293H25977676H28232195H30009929H30184622
1174H29980411H30993904H32645199H33270219H32596542H31253128H29373892
1167H27184762H25470970H24608766H24284635H24162623H24083641H24168655
1160H24903862H26281053H27323101H27311275H26687949H26271244H26535133
1153H27898732H30557573H33830894H36508308H37757382H37215206H34778273
1146H31225621H28605549H28820698H31469482H33820113H33614940H31160393
1139H28267584H25907059H23558035H20775653H18461860H18034055H19904122
1132H23159909H26306311H28160131H28567024H28308604H28020425H27631950
1125H26895537H25493651H22582586H17408073H10675798H04601684H01154797
1118H00758520H02728963H06211561H10537861H15047949H18954410H21688451
1111H23363717H24396271H24555843H23158059H20436002H17586224H15460311
1104H14351748H14508750H15873558H17680404H19046100H19810901H20478710
1097H21443302H22383600H22596017H22085528H21703893H21733649H21345499
1090H20069485H18768377H18359634H18793632H19626077H20724664H22165719
1083H23795060H25187858H25981858H26215667H26389234H27074815H28325812
1076H29479657H29755450H29209736H28762709H29101075H29921778H30378132
1069H30165238H29748292H29568290H29452150H28938286H28023240H27177282
1062H26629638H26092208H25209252H23812674H21722955H18837305H15748165
1055H13767431H13727940H15434252H18102421H20632733H21936897H21560565
1048H19919404H17652980H14806418H10807625H05037692G97483592G89390051
1041G83165933G81133640G83896632G89347745G94709578G99132880H02826685
1034H05840459H08208787H10135234H11730714H12989112H14014430H15105939
1027H16506619H18089150H19402242H20167287H20644636H21288073H22332450
1020H23678438H24920350H25653867H25862340H25875209H26008561H26368805
1013H26933980H27639108H28374636H29027643H29517379H29790758H29859847
1006H29843520H29915341H30222826H30792669H31362271H31526588H31302512
999H31069346H31040553H31074976H30950954H30674438H30306955H29732930
992H28845388H27768198H26750037H25928292H25130190H24081229H22934143
985H22074593H21620568H21462042H21533624H21720301H21647512H20940617
978H19471730H17330136H14994705H13186167H12466725H13022815H14266737
971H15016662H14563924H12958390H10667675H08216910H05767912H03185079
964H00641013G98674268G97792683G98132337G98994863G99709074H00404068
957H01208765H01964079H02654807H03523446H04702864H06155177H08032968
950H10607758H13470405H15596398H16867828H17842633H18851943H19994123
943H21261048H22509958H23528919H24355734H25385634H26938406H28552707
936H29272149H29214401H29115070H29201451H29442016H29989500H30897951
929H31834553H32420321H32531153H32054608H31085271H30110305H29366815
922H28799545H28110184H26703874H24310211H21553329H19054223H16880133
915H15092266H13931829H13548341H14051508H15257545H16148547H15599133
908H13587668H10909690H08411067H06601001H05511583H04756672H04143152
901H03751222H03906934H05253083H07980447H11694441H15967661H20142032
894H23639268H26712882H30141029H33684029H36339731H38168698H39631550
887H40810486H41553413H41864354H41995049H42057465H41781753H40924696
880H39444069H37239654H34627628H32668365H31684227H30795162H28643914
873H24173883H18217515H14013381H14752371H20823190H29736790H38371297
866H45129953H50142159H54152535H57680254H60910300H63738124H65450629
859H64674806H60435286H53630387H47195222H44327427H46218888H51544528
852H58391331H66349027H76178638H86814232H95580568I02751985I10839494
845I21012057I31264326I39561113I45338686I46804594I39765725I13043021
838H44083080G46201335F92081364F86988887G00834025G18598813G34229966
831G45924416G54052301G59890679G65219536G71287219G78073619G85237556
824G91533980G94103944G91988568G83615534G64793340G36744595G12027319
817G00612603G03314230G17041778G35246434G51663947G65888307G79642717
810G91430387G99893502H06496282H12354043H17206838H20888016H23617552
803H25553973H26796448H27312404H26972908H26218804H25668827H25751910
796H26943071H29862502H35189831H42731947H51099913H59293830H65444516
789H61761971H36488526G92001919G47231637G17041134G04414988G04963437
782G12460352G22383745G32518667G41941386G50733377G59728774G68505081
775G75181937G79468187G82620702G85890965G89768713G92766321G91390333
768G82147776G64289690G46655196G46062675G59562524G72354840G80766319
761G87126926G93382006G99500845H04084844H06381827H07322051H08371496
754H10227728H12895736H16389189H20438978H24075113H26862883H29268047
747H31685836H34015238H35898093H37203625H38075641H38728488H39505035
740H41049281H43942894H47640319H50750367H52888344H54551301H56247158
733H58251947H60484509H62665915H64700785H66594176H68121288H69061592
726H69529129H69684519H69352425H68143489H65883501H62763881H59175921
719H55569944H52654455H51595681H53299178H56993546H60551265H62382163
712H62505139H62405166H63758151H67174233H72233652H78044603H83669521
705H88702559H93346719H97791897I01873936I05416373I08521757I11291347
698I13536617I15139256I16457415I18193888I21166723I26190431I33970297
691I44027363I51266743I43994950I12014247H61367303H15528998G96216503
684H06577676H33673332H61624275H82353212H96448242I07225957I16672805
677I25187877I32885705I40306453I47953289I55793072I63222509I69116062
670I72286995I72698151I72351500I74171378I79410556I86791331I94331758
663A001213388A007791234A014523667A021265670A027221717A031266195A032031160
656A027756734A017604600A004643947I96332600I99513510A014570236A035588477
649A055392876A068999860A073741823A068979029A056479398A040028264A023991105
642A011587507A002536775I90496879I63685059I11601805H34395509G45970503
635F66341911F09495139E77416955E63591525E59814193E60274370E62323151
628E65435653E69750656E75384662E82556240E91640873F02844784F15901711
621F30130375F44791508F59358136F73261422F85119225F92579545F94330737
614F93038958F94795217G04102681G20155526G38836646G57025536G73969784
607G89962465H05322172H20362648H35471977H50980556H66977342H83307749
600H99734913I15801834I30167429I40038703I41857697I33718070I17761016
593H99783815H85862593H78986835H78622570H83049329H91849041I06381846
586I28282560I57447188I90645674A021246930A040458242A039856951A014258973
579I64357450H98245198H29802580G73425598G37391891G19031202G05493468
572F82340386F44646172F00227970E62138646E39005591E31707739E35757204
565E44778258E53343036E59028356E62768489E67176549E74232228E84163141
558E95972726F08509314F20986866F33029778F44657753F56134562F67672818
551F79317201F91061599G02950045G15018332G27194556G39483139G52424488
544G67121855G84455379H03791518H21548986H31379804H28704558H16412355
537H02201105G87222717G61569725G16106383F56430341F00293359E62170576
530E43495609E36249473E31967325E26972975E22189269E20411133E23623246
523E31625862E42471701E54076674E65393427E76292068E86841484E96962572
516F06560628F15646749F24187800F32006473F38979149F45143789F50499791
509F54964393F58576563F61457749F63628581F65153806F66333586F67500176
502F68740359F69997633F71386530F73268500F75959109F79395218F83067626
495F86144782F87840719F88149166F88188013F89352954F92158014F96163323
488G00689252G05232310G09502316G13421324G17025129G20335607G23400937
481G26359938G29342744G32317674G35049060G37219608G38589001G38962921
474G38098867G35905715G32812312G29769345G27771637G27291795G28020647
467G29036874G29200387G27557132G23640939G17257892G07688630F93824111
460F76229834F58446548F44634509F36460056F33912250F38069410F50407941
453F69424493F89744566G04770567G10163527G06453471F99381710F96440322
446G01514861G12223165G21492023G20688693G01932371F60208920E96478507
439E19547401D42710960C76771470C26809303B94977495B82916005B89780844
432C10252688C36844050C64088461C90032688D14426472D36441158D53844334
425D63023352D59888209D43509866D20583957D03754844D02465320D16019623
418D36574671D56853282D73619735D86344330D95691365E03312785E11334744
411E21081031E32298172E43701347E54147451E63252394E71204861E78372136
404E85055547E91343284E97112171F02248400F06825482F10973232F14692413
397F17984755F21035969F24027705F26922524F29670157F32391087F35141053
390F37799208F40361812F43003922F45725616F48258382F50445380F52494001
383F54749928F57312854F59945754F62314645F64246280F65793100F67141139
376F68419606F69572724F70515559F71390149F72486082F73945958F75721600
369F77677887F79334252F79402698F76140075F68966446F59891505F52690088
362F50131665F52066075F56166171F60195247F63528527F66877612F70998940
355F75892349F80974934F85549440F89122685F91650825F93535530F95247633
348F97022471F98910714G00885741G02816934G04495337G05802156G06836480
341G07807180G08812552G09821460G10871628G12155122G13851619G15930564
334G18142938G20212711G22039507G23681073G25144890G26309426G27126673
327G27816517G28684190G29788327G31022598G32423680G34016747G35492066
320G36525102G37300443G38304927G39743650G41399449G42917881G44128104
313G45158084G46262462G47632337G49347577G51251424G52947762G54224742
306G55313996G56560817G58135466G60098428G62491930G65394068G68652670
299G71190864G71215797G68081057G63700303G61149964G61314281G61490261
292G58972656G56146846G59127644G69835707G81986193G85888552G74156461
285G42668871F90774707F22487480E44545817D62215317C79222962C02151224
278B41698998B06984054A99187579B11990931B37225147B68732100C02136244
271C33959728C62096342C86124618D06694022D24888705D41726744D57619333
264D72385909D85863764D98272589E10024909E21347695E32112018E42092757
257E51314161E59936566E67999303E75577934E82947610E90284028E97417723
250F04071375F10133508F15666575F20869439F26033094F31318761F36563167
243F41435989F45740938F49465950F52627473F55108764F56632179F57055399
236F56817247F56838079F57786021F59691677F62397004F65992405F70508924
229F75281490F78972239F80760750F81580407F83446131F87317686F92325709
222F97156386G01287728G04793650G07850052G10612806G13045638G14846615
215G15896703G16731319G18168676G20381613G22851362G25369610G28406709
208G31783300G34394203G36398908G39057104G43625259G50619650G59785558
201G70475283G79414138G77033827G51605716G03532757F52530435F23085554
194F23031063F41117890F62597837F80241015F93240193G02935809G10658651
187G17020223G22112778G26163288G29806745G33907283G39065147G45069448
180G51065390G56425534G61319027G66493218G72659747G80024595G88189480
173G96471869H04653799H13602631H24806622H39172697H56271209H74231521
166H89657498H96522800H84002902H38192103G53603665F46868519E53055259
159E00526304D91244377E08470206E35454548E62637349E85370066F02322475
152F14915766F25179214F34080509F41891260F48999057F55774881F62101185
145F67480873F71605017F74762639F77556036F80071228F81793867F82722104
138F83932810F86365159F89698399F92920807F95169053F95909648F95363451
131F94804949F95531067F97541483F99762704G01364217G02455323G03691927
124G05569554G08137346G11137850G14042558G16061262G16714912G16452471
117G16290807G17039445G19083963G22166263G25137571G26472379G23932978
110G12900623F89289656F59008027F38645004F38921280F54659324F73608717
103F88154873F97722931G04251636G08941883G12233136G14412293G15944880
96G17285881G18599694G20262577G23028227G26867047G30465784G32705743
89G33520015G32585182G28751188G21745215G13824678G08887352G09428240
82G14613611G21641541G28154643G33320630G37398245G40588562G42590774
75G43257454G43294693G44178372G47171235G51843224G55691853G56706475
68G55785879G55370621G56871999G59661374G61966484G62741985G62875096
61G64284379G67232043G69229027G68595886G67061854G67184670G69090769
54G70870028G71137536G69131064G62883541G48132126G17988031F64545076
47E84155299D85414927C94932252C45944529C51428172C96462705D55681907
40E10015860E52718501E86126345F14388631F38668771F58059602F73264358
33F86152021F95987504G01931486G07061119G14222402G22766509G30580155
26G38108438G47276678G56801221G62824426G64312130G64193494G65323210
19G68543848G74773838G85240693G98367352H12033853H27139239H45152795
12H65208697H86706137I10887510I29591473I13402139H36813300G15515628
5E94538105E13386380D89228211E15012785E58168565
$$ === CHEMSPECTRA INTEGRALS AND MULTIPLETS ===
##$OBSERVEDINTEGRALS= (X Y Z)
##$OBSERVEDMULTIPLETS=
##$OBSERVEDMULTIPLETSPEAKS=
$$ === CHEMSPECTRA SIMULATION ===
##$CSSIMULATIONPEAKS=
##END=


$$ === CHEMSPECTRA PEAK TABLE EDIT ===
##TITLE=VLL-163-X19766
##JCAMP-DX=5.00
##DATA TYPE=INFRAREDPEAKTABLE
##DATA CLASS=PEAKTABLE
##$CSCATEGORY=EDIT_PEAK
##$CSTHRESHOLD=0.93
##MAXX=3997.453
##MAXY=0.7957278493069821
##MINX=373.96442
##MINY=0.1476137936058905
##$CSSOLVENTNAME=- - -
##$CSSOLVENTVALUE=0
##$CSSOLVENTX=0
##NPOINTS=46
##PEAKTABLE= (XY..XY)
376.7974837842062, 0.36255690504041443
402.29505784206367, 0.566327989463247
434.8752913604376, 0.256372332849595
453.2902059577791, 0.5684536694896407
467.4555248788115, 0.5597895386049515
491.5365670445658, 0.5253417496878872
524.1168005629397, 0.4732865988992673
538.2821194839717, 0.5308282970109032
558.1135659734164, 0.5149055721895052
596.3599270602031, 0.3640510439485399
647.3550751759185, 0.46171543027660655
706.8494146442531, 0.4867536722028596
763.5106903283813, 0.1476137936058905
784.7586687099292, 0.5603647828923563
790.424796278342, 0.5640724901276448
885.3324330492569, 0.4817991257073512
967.4912827912431, 0.2982587216445292
987.3227292806878, 0.20966319777335654
1005.7376438780293, 0.5161175132839378
1018.4864309069585, 0.4697792528305475
1036.9013455043, 0.5389809016072614
1116.2271314620793, 0.38566592335995825
1175.721470930414, 0.3940376043397801
1206.8851725567079, 0.654409587431283
1242.298469859265, 0.513596832797759
1266.3795120250193, 0.41486671587664686
1296.126681759209, 0.7407187823264781
1344.2887660907177, 0.6043716671228314
1388.2012547459167, 0.6310999396744601
1456.194785566849, 0.5528916124057542
1483.1088915168098, 0.5220273732606983
1529.8544439562156, 0.519209504408544
1555.352018014073, 0.5091132525788659
1582.2661239640543, 0.6271153096280073
1607.7636980219118, 0.6063640714461147
1648.8431228929044, 0.5956434010114169
1733.835036419096, 0.5914793615926475
1845.7410558952483, 0.5788819789489884
1956.2305434792975, 0.5934255714782212
2851.4786992885065, 0.5482539536464398
2922.305293893667, 0.5271576644913353
2942.136740383112, 0.5480439666007133
2954.8855274120406, 0.5563451650095197
3001.6310798514464, 0.564444125097865
3039.877440938233, 0.5034788251027773
3103.6213760828773, 0.5622316002103704
##END=


$$ === CHEMSPECTRA PEAK TABLE AUTO ===
##TITLE=VLL-163-X19766
##JCAMP-DX=5.00
##DATA TYPE=INFRAREDPEAKTABLE
##DATA CLASS=PEAKTABLE
##$CSCATEGORY=AUTO_PEAK
##$CSTHRESHOLD=0.93
##MAXX=3997.453
##MAXY=0.7957278493069821
##MINX=373.96442
##MINY=0.1476137936058905
##NPOINTS=100
##PEAKTABLE= (XY..XY)
3582.4091556137605, 0.5891308790360196
3211.277799882721, 0.5891037584975908
3733.9780680688036, 0.5889641050659385
3850.1336832212664, 0.5888166428815969
3634.820835621579, 0.5887591840383752
3524.331348037529, 0.5886390810200001
3901.128831336982, 0.5886322260363827
3216.9439274511337, 0.5886096957432
3743.893791313526, 0.588470518825544
3224.0265869116497, 0.5883973839316781
3861.465938358092, 0.5883945826518863
3535.663603174355, 0.5882902742568452
3888.380044308053, 0.5882180931320512
3932.2925329632526, 0.5880581141181636
2457.6828332838154, 0.587891221575393
3556.911581555903, 0.5878086090182314
3749.5599188819388, 0.5878042581416023
3882.7139167396404, 0.5877563362480211
3922.3768097185302, 0.5876322388121652
3120.6197587881156, 0.5874559879198679
3232.525778264269, 0.5874075895122903
3487.501518842846, 0.5869399314137149
3250.9406928616104, 0.5868741873038076
2568.1723208678654, 0.5867406129457352
3947.8743837763877, 0.586564422080862
3504.4999015480844, 0.586544752353816
3267.939075566849, 0.5865158443320915
3464.8370085691945, 0.5864452720904795
3130.535482032838, 0.5864289401846458
3457.7543491086785, 0.5863239766754946
3471.919668029711, 0.5859313009815049
3283.5209263799843, 0.5858727697965218
3498.8337739796716, 0.5858592991979039
3422.341051806098, 0.5853825806636843
3338.7656701720093, 0.5852255229844368
3352.9309890930413, 0.5851009490345843
2658.8303619624703, 0.5850632792321777
2667.3295533150895, 0.5849989061189939
3331.6830107114934, 0.5849390624825528
3345.8483296325253, 0.5849098565469457
3429.423711266614, 0.5847894548736086
2626.250128444097, 0.5847866535938168
3321.767287466771, 0.5847092271096667
3292.0201177326035, 0.5846950413695146
3391.177350179828, 0.5846638678683395
3379.8450950430024, 0.5844743850049621
3364.2632442298673, 0.5844673514212309
3306.1854366536354, 0.5844322442710783
3402.5096053166535, 0.5836438537168486
2614.9178733072713, 0.5836148856676999
2607.8352138467553, 0.5831680896927802
2739.5726798123533, 0.5829981565016007
2643.248511149335, 0.5826613907950746
2711.2420419702894, 0.5822055936708557
2583.7541716810006, 0.5818079712724717
2685.7444679124314, 0.5816558002701943
2755.1545306254884, 0.5814853905650185
2723.990828999218, 0.5809065105425189
3078.1238020250194, 0.5800345544031349
1845.7410558952306, 0.5788819789489884
2779.2355727912427, 0.5787668233760869
2803.3166149569975, 0.5784567002118346
3062.541951211884, 0.5745534302985094
2981.7996333620013, 0.5743803979136555
453.2902059577791, 0.5684536694896407
402.29505784206367, 0.566327989463247
3001.6310798514464, 0.564444125097865
790.424796278342, 0.5640724901276448
3103.6213760828773, 0.5622316002103704
784.7586687099292, 0.5603647828923563
467.4555248788115, 0.5597895386049515
2954.8855274120406, 0.5563451650095197
1456.194785566849, 0.5528916124057542
2851.4786992885065, 0.5482539536464398
2942.136740383112, 0.5480439666007133
1036.9013455043, 0.5389809016072614
538.2821194839717, 0.5308282970109032
2922.305293893667, 0.5271576644913353
491.5365670445658, 0.5253417496878872
1483.1088915168098, 0.5220273732606983
1529.8544439562156, 0.519209504408544
1005.7376438780293, 0.5161175132839378
558.1135659734164, 0.5149055721895052
1242.298469859265, 0.513596832797759
1555.352018014073, 0.5091132525788659
3039.877440938233, 0.5034788251027773
706.8494146442531, 0.4867536722028596
885.3324330492569, 0.4817991257073512
524.1168005629397, 0.4732865988992673
1018.4864309069585, 0.4697792528305475
647.3550751759185, 0.46171543027660655
1266.3795120250193, 0.41486671587664686
1175.721470930414, 0.3940376043397801
1116.2271314620793, 0.38566592335995825
596.3599270602031, 0.3640510439485399
376.7974837842062, 0.36255690504041443
967.4912827912431, 0.2982587216445292
434.8752913604376, 0.256372332849595
987.3227292806878, 0.20966319777335654
763.5106903283813, 0.1476137936058905
##END=

##END=

