##TITLE=NiW-X12604
##JCAMP-DX=5.0
##DATA TYPE=LINK
##BLOCKS=1


$$ === CHEMSPECTRA SPECTRUM ORIG ===
##TITLE=NiW-X12604
##JCAMP-DX=5.00
##DATA TYPE=INFRARED SPECTRUM
##DATA CLASS=XYDATA
##$CSCATEGORY=SPECTRUM
##ORIGIN=Angelika Moesle
##OWNER=
##XUNITS=1/CM
##YUNITS=TRANSMITTANCE
##XFACTOR=1
##YFACTOR=8.6255908e-010
##FIRSTX=3997.453
##LASTX=373.96442
##MAXX=3997.453
##MAXY=0.9261657581418438
##MINX=373.96442
##MINY=0.33873334486646006
##NPOINTS=2559
##XYDATA= (X++(Y..Y))
2559I78304358I78407321I78173479I77772341I77282684I76825781I76590143I76602719
2551I76691239I76719640I76713006I76785287I77019543I77344392I77485982I77191815
2543I76568721I76085421I76128748I76596362I76972346I76841674I76356508I76078303
2535I76298393I76703816I76859364I76788258I76808851I77061626I77433948I77727356
2527I77801848I77736477I77791828I78022629I78135542I77902046I77399674I76889630
2519I76716047I77089060I77809035I78427775I78731202I78849850I78915705I78866573
2511I78618497I78242028I77952836I77970457I78283490I78648072I78896011I79082724
2503I79363210I79796204I80210194I80389376I80307075I80019542I79546952I79062754
2495I78953642I79423260I80082839I80228575I79771050I79456221I79849205I80511341
2487I80648854I80183452I79757092I79736845I79555521I78806869I78054209I77984899
2479I78433234I78894007I79528295I80453779I80991255I80751264I80217934I79807605
2471I79347524I78690985I78126834I77791275I77575539I77780426I78863533I80461933
2463I81505167I81527557I80900110I80177025I79877606I80691560I82762688I84371316
2455I84350861I83355652I82203997I81328059I80826378I80447076I79790952I78974303
2447I78840798I79845543I81117159I81756561I81891656I81862149I81598386I81060979
2439I80563652I80253936I79831238I79308412I79477090I80657216I81653461I81820411
2431I81890688I82280977I82466931I82074915I81191030I80113106I79415520I79394306
2423I79400387I79001114I78911420I79764831I80782290I81115501I80888501I80543888
2415I80410452I80673662I81207545I81472482I81015648I80137983I79637683I79772847
2407I80078070I80332021I80775588I81268700I81271603I80743110I80161892I80028594
2399I80616446I81631210I82260454I82153069I81672602I81146666I80720029I80737996
2391I81430261I82159772I81973404I80893061I79766766I79489667I80244814I80903427
2383I80603800I80122296I80584659I81896424I82527050I81857450I80566761I79425471
2375I79071184I79728898I80689279I81039903I80782774I80513069I80760662I81701556
2367I82876015I83445347I83229403I82798759I82430238I81878734I81095392I80496553
2359I80683475I82122180I84426527I86032392I86031701I84981211I83612505I82434384
2351I81938507I82264462I82931504I83563374I84120544I84266557I83504568I82032624
2343I80942193I81425562I83395801I85167854I85627246I85141942I84415264I83725418
2335I82837733I81574754I80611608I81145077I82664563I83113243I82551926I82737811
2327I84259439I85634917I85896123I85485725I84964764I84401306I83657284I82971722
2319I82996115I83866386I84554229I84196280I83182068I82525460I82815965I83363392
2311I83277015I82698837I82159495I81972159I82115201I82373919I82589656I82776232
2303I82972827I83004476I82684671I82466102I83420194I85387255I86422750I85832479
2295I84391079I83002472I82386427I82753013I83349088I83373689I83053055I82887417
2287I82796893I82553239I82414828I82680318I83082354I83212612I83040824I82655441
2279I82048656I81387487I81114741I81521890I82409714I83206531I83363738I82690269
2271I81436964I80270520I79907942I80357105I81047090I81538337I81705218I81697272
2263I81682000I81585257I81372008I81267111I81288049I81028156I80283926I79482065
2255I79186723I79330870I79500723I79594495I79613290I79464652I79174630I78937610
2247I78903681I79124117I79557455I79885622I79670300I78972161I78459976I78650698
2239I79300189I79911328I80391795I80873436I81375118I81778812I81909415I81635149
2231I80972183I80090993I79256862I78721182I78519059I78407873I78143972I77755411
2223I77450533I77349920I77426140I77648649I78033824I78516433I78947284I79296734
2215I79643419I79839531I79500239I78540342I77460069I76932129I77099563I77476170
2207I77645539I77697504I77906054I78299590I78677786I78847708I78741291I78418584
2199I77971632I77439200I76948161I76781832I77036473I77381776I77448598I77242535
2191I77023413I77050846I77432359I77995610I78411674I78522237I78377261I78024011
2183I77525301I77100531I77001300I77250068I77632617I77947170I78126904I78103271
2175I77780219I77327669I77226435I77708215I78339186I78481398I78072659I77605460
2167I77429180I77405755I77219524I76812168I76421050I76322856I76612531I77094035
2159I77367196I77180896I76657379I76051077I75459148I74824446I73966681I72696032
2151I71209162I70133588I69846745I70111544I70583028I71229546I72062642I72858214
2143I73353331I73487458I73373302I73187693I73107673I73271860I73773195I74608432
2135I75541656I76117070I76037118I75548428I75236225I75384379I75773010I76137386
2127I76499757I76945466I77351510I77500701I77316475I76918032I76492570I76052390
2119I75286946I73798487I71567871I69063196I66830507I65102747I63858011I63066447
2111I62739663I62883188I63572827I64951067I66935128I68999069I70472395I71134601
2103I71396221I71808968I72486445I73095304I73329905I73256726I73213330I73485592
2095I74090858I74841721I75565151I76153832I76435285I76222243I75537510I74629923
2087I73793995I73309728I73398317I73989070I74574987I74583556I74029910I73602721
2079I73847411I74465529I74780773I74622598I74249862I73726482I72953092I72120273
2071I71692669I71998515I72924552I73898616I74305489I74065152I73613570I73284782
2063I73014040I72692783I72499782I72686841I73170141I73583579I73739404I73759168
2055I73720747I73546748I73308760I73261425I73466244I73640381I73427547I72739359
2047I71876550I71303279I71207296I71390002I71633172I71952148I72414717I72971473
2039I73546955I74088508I74490821I74637801I74522331I74263544I74060660I74089061
2031I74326980I74553911I74622391I74642293I74810487I75183293I75700660I76278630
2023I76748248I76793165I76189558I75198910I74517494I74639528I75346028I75959240
2015I76060820I75862566I75875281I76255619I76576875I76339924I75612141I74978060
2007I74931208I75445190I76043199I76231710I75972992I75694441I75744539I75974097
1999I76025164I75904580I76010376I76541978I77117115I77199278I76784803I76383804
1991I76368325I76646323I76930401I77015950I76804635I76345867I75852478I75433166
1983I74918563I74205498I73571901I73300053I73152106I72622576I71654940I70778725
1975I70496166I70741755I71080356I71323180I71657842I72146739I72491213I72494254
1967I72428814I72722014I73503559I74587287I75652773I76364593I76573558I76457536
1959I76273517I76008441I75494391I74758591I73962673I73060131I71750439I69693269
1951I66515540I61523397I53375983I40084885I19886271H93281410H65083399H43775490
1943H36861617H45641937H64606180H85896606I04172177I17919695I27926508I35532715
1935I41715625I46841826I50854447I53645481I55354652I56426633I57408920I58692214
1927I60384802I62287942I63980391I65087683I65524408I65488199I65306391I65285453
1919I65609680I66332765I67396937I68597310I69623131I70267300I70544676I70606246
1911I70662633I70927709I71470368I72153442I72797266I73321959I73663530I73702988
1903I73444200I73188246I73282363I73672445I73987550I74122921I74383782I74983588
1895I75758222I76428996I76840361I76984093I77067984I77441273I78198079I79002013
1887I79494988I79735947I80061901I80623909I81216528I81562592I81627824I81554023
1879I81415542I81249214I81240921I81593757I82158804I82431620I82037738I81096912
1871I80001299I78914530I77610573I75723464I73027929I69559142I65563037I61282438
1863I56844701I52486915I48747800I46205396I45058716I45015458I45401255I45320543
1855I43922124I40622568I35083482I27185734I17367569I07136312H99007141H95463308
1847H97484476I03888582I12234388I20439503I27544719I33361319I37936569I41408535
1839I43983487I45753261I46576129I46277469I44835861I42134591I37691463I31013230
1831I22234223I12222917I02190122H93357076H86702820H82657238H81030644H81310645
1823H82984436H85639685H88911255H92365738H95444789H97604368H98513406H98023196
1815H95933617H91917334H85820179H78132294H70120458H63301601H58617308H56036552
1807H54828924H54096096H53170473H51813792H50219053H48793201H47845811H47371770
1799H47034898H46392939H45278184H44053418H43522161H44544734H47566362H52336549
1791H58109960H64207253H70296600H76104078H81163872H85089701H87871821H89695978
1783H90713437H91192453H91631666H92454257H93620425H94603609H94820175H94242274
1775H93574126H93683307H94920650H97038491H99507371I01797000I03610999I04990001
1767I06127214I07186687I08340623I09757216I11481520I13426952I15389729I17002088
1759I17876437I17867038I17042236I15452473I13139419I10382521I07805980I06151192
1751I05867252I06925758I09040489I11948029I15426767I19220749I23044859I26573351
1743I29497613I31766581I33690936I35645282I37744466I39885249I41967847I43984247
1735I45986964I47976068I49753374I51047035I51930781I52878448I54191111I55639560
1727I56876211I57873838I58756756I59520749I60120692I60619472I61115971I61642391
1719I62189679I62767235I63371049I63910044I64260462I64451046I64666022I64983339
1711I65276332I65474655I65768823I66418866I67437224I68559856I69511531I70234131
1703I70847896I71429458I71862937I71921535I71491099I70692555I69761335I68842691
1695I67951896I67063865I66169062I65286559I64521806I64096413I64187145I64724759
1687I65502019I66477879I67738093I69145220I70337992I71125617I71602768I71864181
1679I71881594I71689836I71515077I71640981I72150954I72831057I73403154I73792889
1671I74077936I74321590I74572776I74867358I75169403I75453758I75761401I76030485
1663I76078096I75926417I75900987I76246774I76830687I77330641I77559714I77546170
1655I77439822I77428766I77658668I78114328I78571023I78732653I78462395I77896310
1647I77363257I77133561I77168458I77185112I77043936I76918516I76970481I77072821
1639I77022653I76865445I76821773I76995910I77306593I77671107I78122965I78680618
1631I79186723I79429548I79416902I79364316I79392924I79402874I79295697I79153692
1623I79098065I79073257I78915083I78608960I78365790I78383964I78610204I78823383
1615I78935399I79078993I79356092I79641691I79749076I79669539I79535412I79461404
1607I79518344I79736776I80044833I80331398I80624185I81058146I81641713I82246841
1599I82856252I83554874I84250179I84729264I85075950I85628836I86414181I87032298
1591I87253633I87346506I87657120I88137380I88417382I88257618I87866845I87710329
1583I88009541I88591104I89197130I89689275I89976671I90048537I90065397I90212447
1575I90498806I90794425I90956469I90906232I90718620I90609991I90677297I90700653
1567I90436131I90067885I90033611I90372488I90682203I90790763I90964278I91352286
1559I91763236I92083041I92463655I93025870I93670593I94156933I94251119
1552I93948521I93593060I93575992I93904987I94232807I94291682I94199638
1545I94351317I95011104I95960774I96604806I96542752I95998711I95568205
1538I95587485I95861475I95973489I95752362I95408580I95244393I95323308
1531I95492677I95651543I95851731I96138712I96384854I96339523I95880961
1524I95158706I94420558I93874167I93804858I94442187I95521216I96393354
1517I96736929I96750128I96633622I96387756I96121574I96084260I96314646
1510I96566385I96686899I96852192I97238887I97621713I97623095I97286429
1503I97013199I96955154I96854679I96504401I96090341I95992216I96354795
1496I96928964I97339154I97426292I97279934I97054591I96854195I96702309
1489I96588913I96609505I96946239I97584259I98211499I98569310I98725826
1482I98867485I99055788I99287211I99513521I99557746I99322315I99051504
1475I99046736I99217487I99209748I98797001I97944903I96838993I96002097
1468I95966786I96693118I97630350I98340374I98765560I98993044I99028700
1461I98761897I98093611I97180496I96414637I96021377I95861060I95708897
1454I95471255I95124017I94737667I94526146I94633738I94963838I95341689
1447I95725067I96229029I97033861I98213987I99641221A001098377A002363568
1440A003157205A003331205A003178420A003232872A003686044A004228495A004456187
1433A004261733A003857970A003547425A003507138A003757841A004222898A004754501
1426A005164276A005267515A004932577A004212878A003454483A003085616A003206959
1419A003515638A003676784A003649627A003592203A003595175A003697446A004051179
1412A004721331A005362115A005550557A005443518A005509856A005592087A005032567
1405A003886094A003052238A002946582A003101923A003347374A004107221A005229439
1398A005828554A005528444A004777373A004032729A003476595A003275646A003551709
1391A004062996A004410372A004598606A004893603A005227988A005180100A004567787
1384A003691296A002936010A002442481A002143892A001901066A001700257A001804186
1377A002462798A003447780A004248051A004694865A004930020A005021166A005088195
1370A005456025A006203917A006814711A006782302A006387867A006354629A006820930
1363A007208662A007137763A006838620A006508934A005915139A004932715A003962245
1356A003527731A003762609A004368151A004836870A004753602A004074398A003144422
1349A002490508A002579788A003479290A004641795A005359559A005495690A005529895
1342A005986038A007000871A008202903A008990736A009205642A009307154A009584599
1335A009621845A008864555A007282946A005297574A003507484A002557676A002851774
1328A004185445A005773756A006747060A006696408A005886047A005111482A005273526
1321A006759982A009137509A011566033A013368423A014176157A014052119A013620369
1314A013478986A013474771A013189794A012958924A013614081A015358287A017505358
1307A019286396A020444824A020969309A020748044A019938098A019316179A019576693
1300A020450144A021128934A021291601A021135706A020818528A020414695A020096134
1293A020057990A020544607A021804891A023621240A025147428A025635151A025124832
1286A024180483A023144021A021932592A020722821A020485870A021986768A024247167
1279A025271260A024603388A023851073A024381225A025870168A027336376A028245760
1272A028268909A027088576A025202365A024036958A024471887A025987849A027849736
1265A029831791A031272985A031496530A031649937A033327597A035130264A034414643
1258A031592443A029378551A029458709A031131671A032307028A031588159A029466310
1251A027337827A026028481A025840523A026931092A028729336A029940627A029906698
1244A029107532A028016825A026629323A025304843A024810556A025258200A025864017
1237A025869960A025115365A023865308A022630523A021936047A021892651A022203057
1230A022680691A023481999A024775590A026356301A027684857A028421486A028768517
1223A028979348A028846879A028182600A027419851A027136464A027337758A027740693
1216A028387765A029373022A030247440A030352959A029681909A028881776A028432474
1209A028298208A028370144A028700590A029195361A029482826A029279664A028737076
1202A028261999A028090902A028254881A028809080A029687230A030486672A030892647
1195A031118472A031421761A031408701A030393315A028468407A026854804A026840085
1188A028342157A029927152A030453295A030247579A030448458A031668456A033509405
1181A035151271A036077170A036237694A035844434A035148092A034310506A033324004
1174A032212497A031697892A033308940A037626785A042492125A044776019A044165087
1167A043150046A043187085A043395497A043146384A043289840A044349106A045347908
1160A045003572A043146730A040551255A038009887A036140675A035683150A036983513
1153A039148136A040670041A040877209A040148597A039238384A038843742A039261533
1146A040214520A041246629A042025893A042036881A040734790A038593385A037143761
1139A037172369A037384236A035831028A032631325A030329257A031369520A035591451
1132A040320177A043102297A043816536A043746051A043570947A043067262A042239212
1125A041631320A041480125A041457183A041277241A041063301A041283253A042401187
1118A044263489A045933894A046599071A046567491A046835953A047689156A048285715
1111A047857143A046898006A046619317A047267288A047768347A047388424A046506956
1104A045577396A044582602A043703692A043456514A043828076A044206410A044398099
1097A044916642A046092483A047487862A048390404A048628668A048629774A048865550
1090A049398949A049867185A049959160A049878933A050186575A051063826A051960840
1083A052324387A052281474A052239253A052275324A052294673A052403785A052668101
1076A052792968A052555810A052385404A052977885A054416107A055913826A056479082
1069A055991083A055254938A055011837A055320585A055818189A056204677A056372941
1062A056436929A056645963A057022639A057320468A057449621A057566610A057680767
1055A057614982A057454941A057488318A057771222A058070434A058209398A058269932
1048A058328807A058270484A058041964A057823463A057835418A058145063A058599134
1041A058895513A058901870A058781148A058584346A058128549A057446096A056787001
1034A056366169A056335004A056705737A057255997A057743166A058127720A058489330
1027A058872917A059235150A059452338A059526553A059678854A060077504A060741230
1020A061583447A062280410A062461665A062195069A061883419A061707277A061532656
1013A061290177A061114796A061201657A061659873A062499326A063746550A065293469
1006A066661414A067425476A067709348A067983269A068533667A069164223A069508352
999A069526802A069485617A069569922A069678619A069698175A069628175A069408291
992A069022771A068579412A068157129A067912715A068097494A068594753A069074667
985A069521343A069933744A070153489A070080794A069632943A068821201A067904907
978A066918405A065576511A064000154A062721144A062040280A062096737A062975923
971A064360245A065861696A067373787A068746432A069889726A071005380A072050964
964A072666940A072983289A073411584A073741822A073282225A071903223A069885649
957A067708449A065881874A064393897A062900533A061219071A059283245A057125739
950A054951303A052824064A050798543A049222186A047977934A046573917A044821073
943A042344592A038009403A031311613A023197229A012597520I93912588I61703546
936I15675051H49789238G57589898F57001148E70435841D99016124D41589376
929D05321449C92707413D00603918D27061385D60986370D89883521E15179935
922E40563624E68010322E99088198F30458824F56024321F76547714F96460797
915G14890949G27725974G35538795G41844639G49437163G58740932G68146073
908G76732493G84524031G91782861G99855645H09447362H16342508H19952748
901H25437589H37000927H53157827H66888415H75928905H82556902H88248634
894H93212515H97755909I02608811I06986360I09032681I08980301I07911015
887I06397610I05094483I05122953I07583195I12899012I19701631I25703494
880I30417984I34869680I39189943I42166793I43885777I45817249I49273529
873I54731282I61435637I68049192I73819217I78542553I81993858I84005973
866I84481257I83041307I79143879I72463089I63091393I51950752I41193006
859I33658942I31200980I33192641I36984135I40010393I41228386I40792352
852I39211849I36947235I34269943I31459353I29071323I27747395I28377330
845I31741428I36952417I42312114I47315521I51660039I54782832I57113232
838I60454318I65129352I68288493I69801207I70854806I71679747I72375191
831I73174494I74047393I74788167I75173273I74806203I73257279I70244289
824I65975645I61870566I58884526I57131129I57321367I60193872I64838847
817I70116657I76297633I83616997I90859312I96563552A000564909A003341017
810A005099182A005818673A005775208A005708040A006179248A007141011A008300959
803A009231142A009198318A007155729A002795249I97453103I91896811I85945392
796I79359340I72262693I65215937I58840922I53140690I46832428I36581408
789I16213426H79663044H29318363G76711417G33047181G01353710F75050341
782F45661562F12809525E83757620E65983869E63335427E76858155F03468027
775F34480566F63923382F92433734G22306503G51982332G75782132G91390430
768H02295917H14099661H30837365H48061617H57911154H61825028H64131103
761H66878741H70443718H74638561H79340959H84636184H90610061H96896624
754I02698437I07682633I12168327I15583905I16012200I12850986I06958374
747H98862786H88667393H76215125H60440843H40332132H18142065G99662781
740G90363988G93652833H08525471H28139412H47547428H66443397H85016384
733I02244298I16740260I27878275I36082007I42094788I46281132I48747662
726I49400332I47620538I42296981I31833403I14029039H87789520H54893050
719H17334469G74804821G26930056F76467625F27243849E79832966E34215318
712D94149850D65400716D50821382D49412356D58968865D76722819D98481447
705E20865137E43435369E66583606E89573529F12181871F36123883F62572851
698F89134524G11864969G28515465G37181422G35023709G21083949F99955636
691F81050130F73714804F82163918G03558758G30443069G54857738G70788676
684G73955832G61008310G31507448F90565628F46457273F06194450E73860506
677E50572925E35427541E27269658E25594381E29912157E38976072E51030105
670E64673969E79220341E94236263F09113876F23324585F36768882F49576266
663F61769470F73313321F84284109F94754390G04642210G13832236G22301528
656G30038476G37071273G43638944G50101096G56640919G63172657G69399862
649G74853676G79146229G82398174G85243384G88210421G91194388G93671145
642G95332706G96426177G97643272G99833049H03608304H08965514H15320074
635H21946136H28306915H34098777H39265057H44014859H48701709H53568570
628H58472677H62841865H66063612H67950860H68752582H68857825H68629097
621H68403064H68535325H69396407H71224088H73950304H77280680H80991532
614H85093294H89655277H94536649H99436679I04216817I08984724I13813164
607I18573401I23096133I27305349I31105205I34269459I36596265I38171724
600I39373064I40604740I42139774I44111257I46356315I48114480I47803520
593I42838120I29347109I02375523H58146101G98794513G35572310F84799887
586F58003681F55758761F70754194F94682040G21604011G47642098G70482484
579G89436085H05037266H18318137H30326217H41706711H52104228H59707946
572H61382429H53476803H33301062H01159326G61957773G24481561F97615493
565F85869933F87932216F99103054G14735677G31842593G48734671G64123018
558G76746521G85664423G90730229G92800183G93623396G95399182G99904155
551H07659415H17931304H29485866H41229906H52368958H62434370H71329952
544H79198332H86122086H92001777H96761322I00590684I03949876I07413964
537I11545717I16693892I22670188I28577795I33039373I34690566I32578531
530I26155836I14902697H97949395H74022723H41821766H00803450G52058828
523F98685056F45235341E96303728E54939522E22196769D98342724D84281863
516D81440972D90337764E09459110E35476362E64495478E93200215F18895071
509F38877464F51013935F56132673F59246690F66480298F80151872F97779611
502G15698131G32207936G47349589G61461274G74709045G87198628G98964643
495H09948076H20076648H29332943H37692777H44991065H50985050H55576401
488H58743419H60101483H58406132H51113649H34240574H03472795G57462059
481G01991660F50513221F17853149F11245261F27043867F55349953F86663225
474G14995985G37392529G52332678G58585106G55101670G42485077G25526039
467G13586993G15928241G35199021G65926237G99333095H29017492H52730431
460H70547578H82269230H85123008H71422342H30193678G58578058F75083371
453F14442823F01991384F34654151F88925075G41943178G81747923H04714905
446H12643957H13075707H16596597H29896333H51743515H76227357H98545193
439I17174843I32595875I45788503I57485277I67876990I76870559I84372974
432I89904804I91895152I86759761I67782942I27052643H64088190G95022092
425G47964321G42685335G74722727H21494692H61347670H84093318H87461147
418H70117556H29522145G64554215F80164587E90218183E14192604D68078111
411D56337734D71678469E01956557E37324636E72590893F05820401F36471605
404F64474886F89996503G13333665G34732098G54353708G72446712G89335403
397H05213269H20116243H34076181H47224928H59840346H72235812H84462116
390H96197104I07082619I17166551I26914370I36752298I46689180I56447156
383I65767924I74453919I82304472I89147998I94840006I99261022A002316164
376A003771247A003323534A001237273I98555006I96110242I93593060I89933482
369I84122824I75167468I61398668I40097392I08014392H62892517H05304761
362G39411001F71870193F09640918E57996564E19504068D94073527D79851624
355D74294156D74828938D79264152D86164861D94888517E05241290E17147824
348E30384677E44351214E58201590E71284069E83397736E94744716F05664092
341F16208312F26008925F34708603F42348946F49196066F55395837F60845920
334F65149184F67472120F66325026F59400442F43713436F16490318E77445143
327E31869578D91185889D67922597D68073447D88047167E18817746E52275394
320E84011708F12328575F36645950F56820930F72962904F85487107F95190839
313G02895585G09005385G13681732G17253827G20195089G22957653G25911284
306G29067177G31849296G33615062G34568948G35929084G39033634G44293686
299G50966600G57682771G63026920G65932940G66084205G64310146G62614519
292G63293171G67329494G73643353G80264232G85990516G90638116G94301288
285G97055490G99235592H01443404H03957684H06359535H08154186H09512180
278H10909978H12423106H13817794H14863101H15315720H14923013H13266912
271H09747127H04773365H00916915H01399939H07054840H15573195H23742307
264H29838356H33897828H36460963H37826421H38265288H38099581H37564869
257H36899623H36296777H35404046H31130358H14067253G72547808G10042124
250F55639906F43191439F77779044G32987062G80041516H09360570H25958066
243H36272522H43270146H47703391H50108006H52012737H55094207H59470926
236H63923175H67458853H69960833H71868534H73820876H76336123H79484415
229H82848374H85981602H88926042H92023682H95300504H98440711I01201340
222I03498845I05405373I07283776I09528350I12125553I14813624I17484697
215I20192532I23056261I26131581I29059230I31168226I32214432I33018227
208I34801753I37023800I38232603I37534188I33945232I25945627I12016440
201H92054847H68791349H47541140H33786781H30050638H34657260H43729813
194H54156353H64748323H75371458H85765520H95566478I04908391I14102564
187I22920752I30886773I37933183I44046093I48383909I49161169I44314555
180I32175251I11555943H81236222H40382300G91491458G43136433G07560806
173F93513938G00498571G20317745G44197427G67532723G89357032H09883328
166H28911144H45675797H59532496H70256520H77421441H79567130H73892051
159H56782094H26163160G86084564G49729189G34119784G46551459G76020741
152H00804901H02454437G72640750G13181225F34330960E53154891D88757019
145D53617046D48300986D63702083D88155070E13838179E37588502E57929431
138E72398893E77069642E70132655E57375543E51227529E60978872E84884122
131F13574555F39229470F59730681F76280496F90038655G01215851G09909241
124G16804871G22853239G28508210G33535733G37418373G39916206G41556759
117G43418646G46094211G49303036G52738378G56358982G59634491G61799529
110G63207208G65320419G68925338G72919232G75286393G74571048G70047832
103G61283474G48287857G32011548G13955376F95819461F80507403F72269879
96F73977738F84192825F98249367G12646305G26951616G41313658G54230430
89G63695898G68852849G69976035G67715083G62211516G53249595G42287238
82G33707383G32473772G40158893G53264314G65948557G74803162G80432565
75G85174697G90533565G96346088H01524945H05196892H07405050H09012572
68H10756294H12676089H14683782H17308901H21177928H25720216H29249813
61H30503878H29475155H26909740H23891015H22100994H23210013H27210264
54H32374127H37018202H40298341H42411967H44849267H49114249H54757748
47H59847187H62913731H63827468H63790291H64202762H65093557H65419304
40H64996676H65313509H68002755H72978107H78310647H82108982H83425031
33H80956428H75005770H70096756H69403800H72268705H76693934H80783811
26H82687987H81104859H77168873H74148558H74248756H77228992H81335591
19H83316818H79405362H71010563H64654620H63092084H63694447H62233628
12H56287392H46864077H36738477H27020234H16322676H04176738G93307599
5G87189092G86989663G91242345G98005920H06189544
$$ === CHEMSPECTRA ===
##$OBSERVEDINTEGRALS= (X Y Z)

##$OBSERVEDMULTIPLETS=
##$OBSERVEDMULTIPLETSPEAKS=
##END=


$$ === CHEMSPECTRA PEAK TABLE EDIT ===
##TITLE=NiW-X12604
##JCAMP-DX=5.00
##DATA TYPE=INFRAREDPEAKTABLE
##DATA CLASS=PEAKTABLE
##$CSCATEGORY=EDIT_PEAK
##$CSTHRESHOLD=0.93
##MAXX=3997.453
##MAXY=0.9261657581418438
##MINX=373.96442
##MINY=0.33873334486646006
##$CSSOLVENTNAME=- - -
##$CSSOLVENTVALUE=0
##$CSSOLVENTX=0
##NPOINTS=43
##PEAKTABLE= (XY..XY)
378.2140156763094, 0.6788250796867901
413.62731297891924, 0.7523832916975914
453.2902059577791, 0.7091106770517255
487.2869713682562, 0.6318019029004498
509.9514816419073, 0.5798724883419514
562.363161649726, 0.4754663102849133
576.5284805707583, 0.3866860860472529
592.1103313838935, 0.6332216854968388
617.607905441751, 0.598196744328457
651.6046708522281, 0.7159677146666931
725.2643292415946, 0.5547906158877162
753.594967083659, 0.6908381573588382
787.5917324941356, 0.6578000779032825
832.9207530414383, 0.4036108847795308
875.4167098045345, 0.4091067308487365
954.7424957623139, 0.39361825600832473
973.1574103596558, 0.6406099792870918
1012.8203033385453, 0.5192531343509668
1034.0682817200936, 0.6155109401820464
1049.6501325332288, 0.5272351499825199
1103.4783444331506, 0.41527128188262574
1172.8884071462076, 0.5916033384081416
1201.219044988272, 0.5656306735900999
1255.0472568882165, 0.749441206182801
1327.290383385457, 0.45335620572852947
1349.9548936591086, 0.5811188215206203
1376.8689996090693, 0.3876447083319925
1420.7814882642688, 0.6817356343544111
1474.6097001641906, 0.48591008764452714
1536.937103416752, 0.8270945545727961
1573.766932611435, 0.8013789056212628
1589.3487834245702, 0.8053359980452933
1627.5951445113565, 0.7806974645695557
1687.0894839796715, 0.33873334486646006
2766.4867857623244, 0.83159011502858
2854.3117630727224, 0.7816089385124234
2884.0589328068895, 0.771921932537002
2915.2226344331507, 0.7275876991517719
2954.885527412049, 0.7616262427704789
2990.298824714629, 0.7723900071222366
3124.869354464425, 0.7218425864468324
3362.846712337769, 0.8304198379967901
3416.6749242376904, 0.8365501161081946
##END=


$$ === CHEMSPECTRA PEAK TABLE AUTO ===
##TITLE=NiW-X12604
##JCAMP-DX=5.00
##DATA TYPE=INFRAREDPEAKTABLE
##DATA CLASS=PEAKTABLE
##$CSCATEGORY=AUTO_PEAK
##$CSTHRESHOLD=0.93
##MAXX=3997.453
##MAXY=0.9261657581418438
##MINX=373.96442
##MINY=0.33873334486646006
##NPOINTS=140
##PEAKTABLE= (XY..XY)
3988.953808647381, 0.8423666952831484
3983.287681078968, 0.8424726718793945
3973.3719578342457, 0.8419313427391727
3964.872766481626, 0.8419252030436413
3959.2066389132133, 0.8425375811752827
3950.707447560594, 0.8433554760835612
3940.7917243158718, 0.8424752949215568
3926.62640539484, 0.8435420985035509
3906.7949589053947, 0.8444053528061694
3899.7122994448787, 0.8448388568860367
3885.5469805238467, 0.8435697547353329
3867.132065926505, 0.8432166575503441
3855.799810789679, 0.8452023263439625
3838.801428084441, 0.8443080181893459
3823.2195772713058, 0.8447113628909809
3806.2211945660674, 0.8447854515405985
3801.9715988897574, 0.8443689338366936
3793.472407537138, 0.8456619374995041
3784.973216184519, 0.8449953785818116
3772.2244291555903, 0.8453325624143335
3762.308705910868, 0.8459289659518133
3752.392982666145, 0.8448677060370263
3746.7268550977324, 0.8454133859252477
3736.81113185301, 0.8445067397255507
3729.728472392494, 0.8457504507246165
3715.563153471462, 0.8457362046988512
3702.8143664425334, 0.8469799752144935
3691.4821113057073, 0.8461205955272625
3677.3167923846754, 0.8458354464338006
3671.6506648162626, 0.8475090853427881
3658.901877787334, 0.8478711841943357
3650.4026864347147, 0.8474862568541768
3641.903495082095, 0.8470090020526537
3630.5712399452696, 0.8474350570723062
3620.655516700547, 0.8473663326776072
3609.3232615637216, 0.8473908302180383
3597.991006426896, 0.8462694283713983
3586.6587512900705, 0.8452284929362134
3573.9099642611413, 0.8464008564984179
3566.8273048006254, 0.8446063989390948
3555.4950496638, 0.8443622584919734
3546.9958583111807, 0.8439795367153821
3520.0817523612195, 0.8430220478332736
3503.083369655981, 0.8426616784126814
3483.2519231665365, 0.8425320383706346
3476.1692637060205, 0.84274041625574
3462.003944784988, 0.842721342486804
3450.6716896481626, 0.8429155347252798
3435.0898388350274, 0.8421361444543325
3416.6749242376854, 0.8365501161081946
3402.5096053166535, 0.8393628591638208
3391.177350179828, 0.841198861018673
3362.846712337764, 0.8304198379967901
3343.015265848319, 0.8394539945685364
3327.4334150351838, 0.8395371435387302
3318.934223682564, 0.8397898673112567
3306.1854366536354, 0.8381423346153846
3292.0201177326035, 0.8388385172621206
3279.2713307036747, 0.839495479347489
3269.3556074589524, 0.8377236717270476
3252.357224753714, 0.8401848667537928
3232.525778264269, 0.8405789130685455
3225.443118803753, 0.8417391171353993
3215.5273955590305, 0.8409357658357687
3208.444736098514, 0.8415940993900742
3202.7786085301013, 0.8417753566925864
3192.862885285379, 0.842175364153141
3170.198375011728, 0.8371102800884873
3158.8661198749023, 0.8387773031693311
3124.869354464425, 0.7218425864468324
3092.2891209460513, 0.8326157322770632
3066.791546888194, 0.8394323581365737
3031.3782495856135, 0.8463782660761127
3004.464143635653, 0.8151316640382587
2990.2988247146204, 0.7723900071222366
2957.718591196247, 0.7599409817404476
2915.2226344331507, 0.7275876991517719
2886.8919965910864, 0.770760476034364
2852.8952311806097, 0.7813640234872482
2766.486785762314, 0.83159011502858
2748.0718711649724, 0.8379891510232491
2725.4073608913213, 0.8417722575178119
2715.491637646599, 0.8430900571664953
2704.1593825097734, 0.8428354254132839
2698.4932549413606, 0.8426499363959253
2691.410595480844, 0.8425664898428489
2678.6618084519155, 0.8447595833937893
2665.9130214229863, 0.8438982957258732
2650.331170609851, 0.8448433275297483
2616.3344051993745, 0.8519585126887373
2596.5029587099298, 0.8544596424757683
2589.420299249414, 0.8539624806732379
2568.1723208678654, 0.8570179935696074
2562.5061932994527, 0.8575559250896131
2552.59047005473, 0.8587363949820515
2544.0912787021107, 0.8584570880012384
2527.0928959968724, 0.8572154040160106
2514.3441089679436, 0.8591815229080808
2494.512662478499, 0.8591021295201213
2481.76387544957, 0.85961681593548
2452.0167057154026, 0.8590801946427169
2427.935663549648, 0.8578375575297057
1687.0894839796715, 0.33873334486646006
1627.595144511337, 0.7806974645695557
1587.932251532447, 0.8032158606038984
1572.350400719312, 0.8002369395035966
1535.5205715246284, 0.8255821460696013
1474.6097001641906, 0.48591008764452714
1420.7814882642688, 0.6817356343544111
1376.8689996090693, 0.3876447083319925
1349.9548936591086, 0.5811188215206203
1327.290383385457, 0.45335620572852947
1252.2141931039873, 0.7490489479530211
1201.219044988272, 0.5656306735900999
1172.8884071462076, 0.5916033384081416
1103.4783444331506, 0.41527128188262574
1049.6501325332288, 0.5272351499825199
1034.0682817200936, 0.6155109401820464
1012.8203033385453, 0.5192531343509668
973.1574103596558, 0.6406099792870918
954.7424957623139, 0.39361825600832473
875.4167098045345, 0.4091067308487365
832.9207530414383, 0.4036108847795308
787.5917324941356, 0.6578000779032825
753.594967083659, 0.6908381573588382
725.2643292415946, 0.5547906158877162
651.6046708522281, 0.7159677146666931
617.607905441751, 0.598196744328457
592.1103313838935, 0.6332216854968388
576.5284805707583, 0.3866860860472529
562.363161649726, 0.4754663102849133
509.9514816419073, 0.5798724883419514
487.2869713682562, 0.6318019029004498
453.2902059577791, 0.7091106770517255
434.8752913604376, 0.7450701587178923
429.2091637920248, 0.7461107370536181
415.04384487099287, 0.749912141876504
405.12812162627006, 0.7540047759718066
393.7958664894445, 0.7444679139303227
378.2140156763094, 0.6788250796867901
##END=

##END=

