##TITLE=LSH-R437
##JCAMP-DX=5.0
##DATA TYPE=LINK
##BLOCKS=1


$$ === CHEMSPECTRA SPECTRUM ORIG ===
##TITLE=LSH-R437
##JCAMP-DX=5.00
##DATA TYPE=INFRARED SPECTRUM
##DATA CLASS=XYDATA
##$CSCATEGORY=SPECTRUM
##ORIGIN=Angelika Moesle
##OWNER=
##XUNITS=1/CM
##YUNITS=TRANSMITTANCE
##XFACTOR=1.0
##YFACTOR=8.8083285e-10
##FIRSTX=3997.453
##LASTX=373.96442
##MAXX=3997.453
##MAXY=0.9457870701172856
##MINX=373.96442
##MINY=0.4356921009106791
##NPOINTS=2559
##XYDATA= (X++(Y..Y))
2559I43494697I43454570I43328097I43050995I42686938I42301160I42053830I42147620
2551I42487857I42767599I42978048I43372082I43901791I44250487I44417425I44679302
2543I44998088I45039163I44781414I44568596I44535980I44423177I44021767I43558847
2535I43515201I44061962I44751978I45026712I44941044I44969803I45173417I45063456
2527I44435154I43893806I44130443I44783985I44780466I43885821I42900094I42318077
2519I41675565I40582583I39386204I38465303I37873136I37831723I38698353I39998333
2511I40495629I39815425I38836059I38465777I38600099I38466386I37916850I37692935
2503I38412589I39610525I40146662I39596179I38482694I37373945I36350188I35308635
2495I34578288I34999051I37043114I39777937I41815165I42960387I43551877I43460457
2487I42653510I41832285I42071358I43500517I44604867I44448755I43943678I44049241
2479I44186134I43673545I43488675I44398681I45139854I44717399I43957414I43660214
2471I43534825I43521764I44301574I45394220I45541872I45089508I45273431I46136814
2463I46498773I45791096I44341704I42744795I42092673I44273223I49191912I51816435
2455I50569575I48193395I46204482I44725926I43605200I42823087I42356242I42285529
2447I42939883I44154803I44956743I44964322I44826481I45153388I45849493I46519615
2439I46931310I46732500I45652307I44444222I44672738I46386443I47425831I47422989
2431I47701987I48062998I47309712I45507903I43486712I42179018I42518647I43963031
2423I44357674I43377901I42982988I43974602I44598844I44140864I43608989I43593831
2415I43875874I44205758I44428049I44406260I44329185I44603107I45090185I44994096
2407I44146412I43678891I44568055I45854163I45878050I44679505I43438126I43099310
2399I43953422I45386844I46300775I46456818I46241226I45535512I44282765I43412954
2391I44023187I45619015I46470081I45974883I44880345I44417290I45640127I47515357
2383I47800309I46929957I47221066I49536886I51162689I50200849I47790294I45512640
2375I44463778I45110959I46817830I48280282I48775683I48360401I47548311I47037888
2367I47229931I47858639I48470024I48970703I49357700I49480789I49224190I48747465
2359I48670323I49846537I52111876I53543064I53093137I51606798I49943235I48700368
2351I48465423I49083101I49425977I49050079I48627692I48548046I48433280I48045269
2343I48095208I49631283I51939930I52689562I51645707I50324818I49605637I49275480
2335I48608406I47453981I47115098I49314053I52474917I53174000I52296881I52523163
2327I53772596I53685642I52151191I50771701I50331585I50492027I50755460I51244298
2319I52323746I53497388I53502599I52194566I50813723I50799783I52546646I54274020
2311I54530280I53933444I53343984I53130084I53226173I53227797I52732599I51759458
2303I50685491I49723448I48884426I48785292I50589334I53280646I53954692I52644021
2295I51067615I50367314I51005089I52593540I53608297I53149031I52202484I51921389
2287I52175010I52342760I52647269I53456313I54141931I53995225I53279563I52572360
2279I52013080I51396822I50720476I50337472I50535605I51086968I51429574I51383830
2271I51406837I52093402I53141317I53415848I52750802I51957928I51618775I51679743
2263I51794037I51778811I51701397I51672301I51609166I51290651I50804791I50828339
2255I51911915I53191256I53430599I52822327I52277460I52281250I52651261I53056866
2247I53435472I53740655I53668116I53027024I52138131I51440875I51025864I50807497
2239I50877940I51409341I52296611I53149232I53607891I53599365I53265082I52761290
2231I52285851I52139620I52466526I52943725I53013288I52574593I52194702I52452113
2223I53210947I53804874I53807039I53291608I52539541I51849389I51530129I51726368
2215I52157822I52247145I51698556I50847895I50343494I50549816I51197065I51693007
2207I51773059I51688203I51820021I52143815I52236724I51963140I51712293I51721225
2199I51737263I51694835I52054966I52978032I53770634I53679552I52903597I52233950
2191I52009899I51939930I51790653I51765886I52053681I52485473I52919838I53512478
2183I54260418I54698301I54477905I53985481I53912535I54318275I54576295I54255073
2175I53658507I53348450I53461727I53724348I53908271I54048616I54240321I54351297
2167I54148021I53684289I53250398I52891890I52465376I52213378I52622299I53555109
2159I54180908I54004090I53408404I52967408I52758786I52599021I52526887I52747824
2151I53299796I53972354I54444138I54492723I54246614I54108097I54185645I54094089
2143I53585425I52970386I52622840I52516060I52517887I52731245I53278142I53999895
2135I54595310I54940419I55105598I55092673I54823759I54430199I54258388I54474251
2127I54870179I55115748I55071019I54852991I54676309I54587393I54413552I54054368
2119I53667372I53437772I53321247I53147880I52881537I52698562I52826793I53312789
2111I53967684I54542393I54909359I55126169I55385543I55815102I56267534I56430074
2103I56176858I55695735I55295070I55192958I55427565I55831546I56123468I56131385
2095I55942251I55790809I55796087I55896305I56071701I56433389I56940698I57238103
2087I57040782I56563854I56299744I56443337I56786078I57160623I57659746I58267477
2079I58596481I58365393I57912623I57773970I57912082I57851789I57423312I56906392
2071I56591531I56565005I56768146I57026775I57147766I57062842I56788512I56389946
2063I56116092I56318488I57032797I57842383I58331423I58522046I58728164I59116040
2055I59565359I59894228I60028144I59916694I59484224I58786900I58066163I57561356
2047I57404297I57668001I58282025I58943891I59379406I59657929I60028888I60533560
2039I60979089I61153470I60927729I60334817I59705703I59533081I59954926I60485650
2031I60522597I60067121I59644734I59543096I59527126I59405593I59457427I60015828
2023I60852820I61280485I60948232I60352885I60300780I60954931I61723646I62042906
2015I61890855I61550888I61287928I61299973I61633782I62096161I62430443I62541487
2007I62493307I62430443I62499668I62629524I62469285I61862908I61237989I61161388
1999I61679120I62423676I63154835I63863730I64516663I64979448I65153289I65069650
1991I64850540I64581693I64279889I64052390I64153893I64701397I65431000I65945755
1983I66154038I66268263I66387224I66316510I65916116I65420376I65199168I65300468
1975I65452316I65470789I65403324I65224205I64756751I64126757I63885113I64302087
1967I64882209I64977960I64569513I64124863I64016796I64284696I64678729I64862043
1959I64737601I64461920I64066666I63396953I62520036I61809314I61485250I61326432
1951I60864594I59612050I57140524I53329029I48669579I44079962I40313601I37639003
1943I36020101I35419068I35865885I37284487I39334302I41534137I43610478I45602706
1935I47515289I49046492I49895529I50229473I50542101I50994330I51167697I50577289
1927I49108003I46831025I43831213I40401299I36958053I33590058I30092746I26558352
1919I23579854I21786978I21348486I21943225I23159228I24866504I27092392I29630097
1911I32057366I34161721I36097649I38076277I40073513I41841623I43085776I43713334
1903I44047278I44658054I45738991I46796041I47254359I47175052I47091414I47405531
1895I48190147I49310535I50521327I51559295I52219739I52406504I52227995I51953667
1887I51749781I51629196I51683669I52088936I52817658I53556395I53958752I53979459
1879I53975263I54358605I55136523I55974056I56657575I57253058I57904164I58684247
1871I59535720I60291442I60829677I61130125I61139870I60770535I60012445I58844215
1863I57072248I54408951I50629123I45693856I40024115I34687844I30986715I29684840
1855I30650199I33076860I35863043I37903993I38399191I37210864I35001284I32846313
1847I31532191I31117450I31061488I30636463I29300348I27086505I24867181I23965092
1839I25171148I28159254I31877029I35318988I37908256I39539608I40574057I41587596
1831I42850087I44175984I45338258I46296850I46946535I47048782I46504931I45322762
1823I43328503I40303586I36404932I32173891I28236328I25223523I23767635I24128105
1815I25761420I27565260I28749053I29379249I30016281I30956535I31865796I32098373
1807I31400508I30255692I29387234I29034884I28989276I29189372I29880944I31200141
1799I32923590I34664024I36139807I37300863I38327056I39432557I40583463I41505040
1791I42027779I42284987I42514992I42840545I43294804I43896310I44592483I45211515
1783I45564880I45628420I45587481I45634443I45713344I45496399I44583483I42677465
1775I39662629I35691774I31290817I27286533I24435185I23008598I22758088I23267768
1767I24312976I25954749I28327613I31264968I34192849I36551434I38263921I39617562
1759I40807987I41819902I42677397I43517772I44340892I44928931I45158666I45182079
1751I45162252I45130448I45233575I45760509I46743394I47813775I48559482I48843284
1743I48835502I48921576I49467999I50492568I51636031I52559097I53267857I53941091
1735I54564588I54950502I55050990I55006328I54906585I54753992I54617370I54569799
1727I54571964I54660475I55054035I55777005I56414781I56615824I56626109I56933933
1719I57580912I58216455I58635796I58873313I58922508I58729856I58392460I58136606
1711I58125508I58348611I58648518I58901394I59205227I59745560I60461966I61064960
1703I61411965I61640887I61884900I62058129I61989651I61651917I61219177I60953307
1695I61024021I61404318I61920629I62384767I62698884I62871101I62907845I62717899
1687I62260257I61773044I61615308I61844028I62176551I62372654I62411902I62338955
1679I62199626I62109492I62198814I62503796I62974972I63496290I63860888I63862106
1671I63495004I63004678I62695636I62726764I63066257I63543117I63932278I64095630
1663I64073164I64015443I64075803I64354936I64804931I65203634I65388031I65446699
1655I65548337I65706411I65830109I65846485I65735915I65608427I65673930I65983784
1647I66328826I66517689I66595305I66734160I67053759I67536641I68027915I68360099
1639I68507278I68567097I68628134I68730043I68874583I68992868I68952131I68680713
1631I68305017I68086922I68152628I68367611I68561481I68734645I68931357I69100054
1623I69211234I69340887I69538682I69743041I69847318I69784792I69602764I69480013
1615I69566087I69828303I70136939I70399560I70526168I70440026I70233367I70148713
1607I70308276I70578747I70770452I70830474I70759489I70520958I70208871I70143368
1599I70535642I71178357I71700217I72003845I72209558I72351865I72399165I72471232
1591I72808424I73489914I74275274I74802480I74917110I74707879I74313236I73916564
1583I73809986I74151644I74743608I75272708I75618291I75757621I75618359I75271964
1575I75128303I75640554I76744566I77796676I78229619I78085214I77741594I77390191
1567I77045961I76823061I76894519I77254719I77698083I78051448I78320430I78506112
1559I78417602I77940471I77387890I77237666I77598339I78227183I78901838
1552I79502260I79882761I79927828I79704860I79457599I79446434I79796686
1545I80445965I81192484I81789524I82070754I82041792I81870794I81769562
1538I81820990I81856786I81637879I81237416I81039892I81206560I81395828
1531I81231462I80880803I80884593I81425264I82050183I82279782I82236067
1524I82355571I82693778I82918979I82832566I82502005I81973582I81244183
1517I80515596I80177322I80440755I81116087I81799877I82201084I82312331
1510I82409908I82842987I83625709I84296978I84412017I84088155I83835481
1503I83993149I84530572I85222482I85807680I86113812I86185202I86224991
1496I86394298I86692648I86916158I86742723I86104203I85445789I85318504
1489I85761530I86377516I86879549I87251523I87523753I87678037I87690082
1482I87549535I87295304I87020773I86794151I86641559I86572605I86511365
1475I86314517I85995595I85836913I86147376I86937473I87862027I88496556
1468I88751666I88960897I89438230I90058277I90431469I90361094I89946353
1461I89400268I88978694I88929634I89216548I89405885I89132775I88595352
1454I88284888I88362299I88622825I88878409I89035535I88982415I88680411
1447I88171747I87365747I86139594I84762946I83847255I83731881I84188711
1440I84803005I85405864I86042354I86708957I87314387I87860810I88480924
1433I89200376I89820287I90184411I90402710I90640835I90860420I90985065
1426I91162287I91642194I92467953I93374711I93959434I94020945I93799330
1419I93732339I93922690I94073794I94021486I94037118I94435414I95104115
1412I95633891I95789800I95699056I95665831I95985497I96890563I98432661
1405A000304304A001904461A002710190A002654567A002144076A001665795A001443368
1398A001437955A001471315A001379895A001204025A001177228A001427940A001723854
1391A001804041A001776162A001696854A001392615A001067267A001315881A002264864
1384A003271230A003658564A003419289A002991624A002576545A002113286A001785500
1377A001994190A002763107A003642730A004284227A004671088A004875244A004924575
1370A004843102A004761358A004941898A005433577A005828084A005801355A005680296
1363A006015594A006863683A007848125A008621576A008982114A008853679A008453961
1356A008289323A008641606A009131323A009164819A008798123A008667929A009083075
1349A009770923A010473122A011160634A011721402A012019550A012181819A012405869
1342A012665243A012882323A013167749A013642376A014177431A014516450A014624584
1335A014817507A015430787A016277185A016675820A016383357A016187659A016982561
1328A018671161A020638826A022646145A024438548A025253548A024576254A022944428
1321A021559050A021329654A022170839A022966418A022637212A021514727A021118731
1314A022305907A024200964A025356133A025537214A025722017A026471513A027127153
1307A026928343A026246718A026102787A026792059A027607600A027929025A028039595
1300A028520516A029224336A029482085A029141442A028712965A028516388A028434712
1293A028545012A029131562A030012606A030739163A031400758A032378162A033550789
1286A034502209A035139917A035728091A036757532A038638717A040896680A042242877
1279A042152539A041560575A041490403A041998932A042793360A043951574A045635167
1272A047478389A048529687A047922904A045671505A042777864A040522811A039494791
1265A039380093A040090815A042664249A047671718A052772029A054279074A051770265
1258A048199736A046010524A045353260A045332689A045673061A046812125A048887992
1251A051317089A053348971A054649627A055372801A055898923A056435399A056832207
1244A056857312A056601931A056461384A056660735A056932898A056882891A056608630
1237A056616209A057214467A058262516A059274093A059607022A059046794A058279840
1230A058199991A058851503A059618390A060178144A060756439A061737362A063262069
1223A064887534A065747398A065474694A064807550A064898226A066046966A067392555
1216A068050563A068274411A068930321A070148490A071289313A071885067A071791346
1209A070835393A069177717A067619176A066950612A067391201A068822322A070874438
1202A072739314A073675440A073741823A073470811A073058371A072432167A071677866
1195A070838167A069777125A068650647A067934985A067769942A067861430A068065315
1188A068511859A069165605A069707224A070004694A070525065A071764617A072998078
1181A072735998A070943257A068636775A064245225A052063810A025141218I78825711
1174I12856562H33146917G51720928F82508225F35207328F11980790F08549455
1167F17989686F34336570F53413270F72274851F89826438G07264071G26412906
1160G47301903G67425164G83741395G95761555H06361556H18981056H34389649
1153H50733353H65808205H78311924H87966393H95765730I03496992I11947436
1146I20204279I27388036I34014001I40989677I48387198I55830531I63003393
1139I69632200I75804650I81920936I88005824I93916059A000179185A007481091
1132A015196383A021485359A025290968A027669719A030610728A034597351A037877717
1125A038640070A037600344A037333797A039417243A043137928A046670224A048832978
1118A049700217A050380015A051986465A053977544A054320826A051776152A046747502
1111A039669850A029509288A013753691I90169253I59452691I24952240H90198507
1104H58186092H31119704H09982836G95244432G87104858G84284164G83622569
1097G81415493G74478253G60407602G38784062G11436106F80271713F47771611
1090F19611091F01855686E96087352E99960968F09699752F21785212F34149196
1083F46139447F57717461F68880599F79242067F87924748F94038465F97164750
1076F97210494F94080487F87986126F79726778F70056813F59244265F47419464
1069F34602507F20468586F04740869E87433836E68514533E48194661E27921379
1062E10525599D99012953D94636526D95923818E00173434E05511836E11416556
1055E18202794E26226249E35429775E45499289E56026073E66232480E74690164
1048E80101885E82911549E85527005E90284575E97540398F06055262F14497517
1041F22306057F29753856F36841252F41857586F43193430F41804602F40255805
1034F40970046F44652160F49992018F55666157F61917374F69350692F76818859
1027F82876680F88166868F93672107F98919394G03306749G07266846G11376625
1020G15612132G19557071G22958564G26089383G29469086G33127313G36543152
1013G39417710G41877596G44207015G46815636G49985028G53370145G56223387
1006G58196127G59514310G60865718G63326077G67253760G71032909G73237551
999G74524606G76143913G78497965G81132233G83733748G86399279G88937998
992G90849836G92037351G93061582G94858654G97786738H00808408H03118475
985H05043712H06679057H07866368H09099559H10977090H12931492H14143976
978H15114884H16481111H17809714H18736096H19971655H22380857H25432030
971H27635994H28678427H29189730H29555208H29931783H30541138H31226688
964H31377115H31134523H31958320H35142664H38935687H41078275H42117596
957H42945046H43755174H44649954H45607058H46220743H46334900H46651115
950H48333828H51409632H53902064H54911816H55238113H55428871H55572396
943H55898220H56862428H58315339H59257487H59394787H59675002H60806350
936H62152887H63543746H65317405H66464183H66368839H65998150H66239321
929H66799819H67192026H68232971H71057319H73968959H74890198H74641246
922H74284362H74352098H75103693H76110059H76649174H77021756H78100528
915H79488341H79805436H79215366H79016827H80053103H81741906H82798076
908H82874947H82320268H81704755H82283051H85058204H86898178H85899594
901H83991748H82792933H82731422H82875488H82757542H82671400H82693798
894H82789955H83469144H85621882H88490689H90112906H90581037H90949153
887H91814092H93038351H94195009H95455470H97208084H98840452H99456303
880H99352635H99492167H99942704H99057059H95635807H90089019H84020033
873H80044644H80076313H83495603H88222654H92776744H96686901H99879231
866I02382221I04416134I06269710I08038903I09675195I11230759I12825841
859I14433441I15861382I16928312I17462960I16933048I14371728I09415009
852I03332558H98816835H98853647I02843247I05946322I06001607I03136455
845H97065574H88233278H77789388H66062842H53908156H43268231H36668521
838H39872422H56452019H72125128H81129844H87835725H93485031H97871777
831I01301758I03985694I06035780I07978272I10240834I12716488I15629415
824I19067719I21213149I21720325I22176952I24041422I27356096I30475547
817I32782028I35228109I38457859I41875593I44768015I47586612I50878076
810I53866791I55819230I57150473I58118132I58173350I56795484I54060661
803I50271563I44518319I31907886I08202931H78533674H44873666H06060837
796G65722489G34827011G26542762G41208760G63908500G84996037H05595007
789H28102433H48198423H58922799H61054289H59783813H59250179H61340459
782H64606142H64564187H56536131H38841087H15582202G97899136G96542517
775H08194628H23166489H37733894H51469857H62406035H67754757H68225324
768H66669557H64712855H61831327H56490725H48431879H36460035H18107320
761G93223309G67490261G51985850G54311684G71019242G93843897H16475088
754H34432957H43520905H37564994H12863688G82045961G62939757G60195326
747G71195518G89676329H07447365H21010772H31645150H40499371H47596985
740H54017373H61680629H70067599H76459093H80443482H83137974H85008467
733H86203223H87294783H89184627H92583280H97261204I01658710I04307052
726I04922836I03163116H97534856H86308988H70041682H53546671H42689733
719H39000920H40802594H45883416H51162642H53548837H52611493H50459363
712H50153096H53794067H60127298H64912206H64723005H60605309H56764580
705H53343936H44328867H25382565H02063591G86322543G85650121G98063299
698H14190193H26410449H34118975H38871943H40054451H34930997H21404198
691H01226802G80765875G67637779G65239675G71029866G80337195G90546343
684H01487800H13146542H24064720H32554005H38551127H43127210H47255192
677H51325588H55112250H58088176H59860346H60232320H59063752H56527604
670H53585242H51888994H52886024H56792527H62577304H68915543H74826861
663H79735061H83482001H86256478H88323142H89838578H90951589H91929196
656H93033140H94363706H95934292H97761207H99706676I01322939I02039751
649I01529328H99675615H95976111H89407191H79778098H69257133H61651735
642H59772715H63590505H70737923H78309082H84074507H86700045H85700784
635H81357751H74138604H63901712H50222321H34125742H19227031H10352780
628H10632725H19785905H34673518H51210348H65978324H76145517H78366533
621H69534236H50587392H29169700H15826080H16174640H27583415H43161315
614H57196914H66790007H70580053H67832711H59181360H47796540H38715291
607H35923017H39900708H48116680H57424686H65646816H71559690H74515180
600H74563224H72642860H70191636H68236963H66627738H64285596H60539197
593H55985038H51589698H47586497H44404318H44102787H49062076H59006503
586H70364596H78075017H76983591H63446033H39068588H12756095G95640428
579G92580188G99852658H10848452H21816434H32094875H41617390H49869971
572H56408914H61342016H65187752H68291504H70355732H70548181H68150077
565H63508964H58658756H56469748H58516247H63887502H70297334H76040766
558H80755366H84829214H88588334H92083616H95363508H98649424I02163381
551I05866067I09371429I12047856I13085011I11454268I06168071H96703210
544H82566040H62771851H37877081H13322683G98177997G98206824H10923293
537H28433670H43528146H51610472H48976679H33486071H08602128G84403531
530G71620747G74223481G88307937H06973415H25023380H40266185H52613252
523H62704318H71004267H77796425H83507106H88595846H93251101H97480585
516I01419161I05250486I08744618I10912108I09675195I01530004H83045336
509H55311669H26941647H09693824H09421729H22265280H39619611H54848072
502H64938394H68303887H63646534H51546255H36070535H23293841H17516371
495H19111859H25760223H34785239H44277980H53166916H61055846H67926432
488H73823743H78757386H82636483H85146037H85886669H84912175H83206048
481H82351125H83311544H85477072H87149973H87062274H85443102H83820682
474H83890651H86442904H91176249H97256061I03841290I10297136I16268814
467I21683039I26641517I31144112I34638446I35666735I32067381I22169982
460I06237296H85319743H57399242H17938826G68901082G24909379G03867924
453G10606625G33127381G54029845G63197236G62215366G60256363G65139187
446G77019341G90653598H02150004H11586715H20445673H29122197H37058831
439H43856609H49687198H54954853H59837948H64221175H68015211H71421375
432H74794583H78310097H81858227H85199225H88117091H90531233H92565754
425H94427382H96064013H96892478H96122817H93887117H91989624H92701565
418H96534850I01816039I06164959I06872974H99676090H79698858H46128240
411H05761945G70442368G50514060G50050395G65896533G89721802H12681321
404H30161044H42419598H51543683H59017264H65413495H70807554H75273744
397H79207991H83006495H86657752H89935208H92794000H95434222H97979708
390I00228739I01630221I00139078H90707780H68980775H39953151H18744419
383H17255577H32455886H51785666H66523529H75883166H82074564H86577700
376H90100387H92976299H95241570H96956425H98330570H99598271I00985882
369I02658715I04572177I06470414I08096692I09435242I10741312I12263786
362I13940679I15424650I16349949I16508022I15825180I14146798I10919076
355I05365658H97764861H90725712H88046377H91071769H96476791H99007796
348H96924350H93819787H94460134H99785848I06865260I12691857I16526834
341I19021908I20762274I22022194I23012455I23910687I24814399I25714661
334I26510037I27110189I27512884I27776724I27934594I27829708I27101593
327I25559227I23396609I20538426I15699857I06369791H89979870H65763205
320H36621424H09461112G92342671G89643781G99556202H16345841H34515986
313H50826397H64018711H74204649H82354168H89509641H96215590I02528927
306I08231623I13112011I17244459I20784197I23410142I24157406I21652047
299I14619665I03268408H90915116H83208417H84243137H93342588I06118944
292I18099180I26687125I30810032I29844741I21102443H96775750H47442837
285G74832768G00124503F51969562F42797976F59996942F81791547F98090996
278G13367636G33834923G58451847G82146178H02110147H18584383H32429834
271H44149748H54149530H62737679H70102042H76367808H81384142H84637238
264H85431057H82634994H74117762H57212883H30952833G98697015G68322516
257G48581109G44042650G52965216G69748563G88981238H07429230H23706145
250H37372680H48491563H57552850H65219827H71641569H75765694H75399269
243H68577606H56003647H42680598H35763252H39110001H50350552H63797502
236H75268195H83785900H90022501H94646967H98138188I01085422I04066152
229I07385563I11033708I14753581I18214554I21281833I24041422I26542382
222I28657497I30303804I31725046I32538218I29030960I14377209H86882547
215H58194889H46280901H57544459H80926432I02126773I16973311I29381482
208I41721850I51551851I58343942I63302487I66416930I66023844I58173011
201I36176889H94922513H39040641G84775573G49755767G40558263G51808220
194G74120896G99601608H22209115H36975938H40510063H32189746H14854698
187G94164308G76779930G68085135G69986079G80281640G94473891H08498866
180H20502718H30705505H39854625H48132378H55443081H61484390H64733426
173H62948737H56711866H51220972H51878034H58926318H68164558H75817122
166H81059942H84701252H87501105H89699451H90966883H90829245H89471747
159H87571344H84488164H76491438H58424082H30157052H01129968G83501645
152G80502713G85612429G91216194G95067885G99599171H07529244H18934839
145H31697999H43651979H53717196H61674606H67748599H72451493H76476213
138H80439693H84494863H88314954H91694657H94903633H98122557I00799929
131I01869971I00291941H95360599H87461112H79098435H74317587H75894196
124H82902014H91697499H99237801I04809355I08977803I11566597I10436804
117I02807112H89524393H77062087H70727029H64793854H45142107H05401611
110G56325770G16360275F95266986F89092709F91703224G03698821G27004870
103G57527495G86914913H10168383H28332235H44054742H56763565H62579402
96H59419551H51371061H44920155H40549446H32493171H18808434H07349584
89H06681696H15323303H22392496H15527662G88844751G47558705G06809204
82F81823961F78589677F94012818G20207027G48181662G71191594G85687744
75G89347663G81554687G67400398G57627644G61382367G77702454G97029663
68H12829312H25007884H34932486H43256118H50504092H56797872H61725832
61H65542809H69695490H75066272H80702585H85163834H87536427H87911379
54H87918010H89753990H93905658H98381659I01304059I03239311I05399154
47I07091544I06827230I04870595I03680374I05533341I10238265I15363342
40I18340147I18735331I18174156I18236750I18257795I12121208H84238400
33H20404531G50574014G25850377G45045226G83065116H20858181H48368203
26H64610811H72848978H76082315H77339595H79699264H84374143H90022568
19H93996605H94778785H94569148H96576060I00737606I05201224I08859383
12I11858316I13379234I08930165H91991790H61748704H26133279G94014354
5G72396025G68172360G86913965H24335936H55935708
$$ === CHEMSPECTRA INTEGRALS AND MULTIPLETS ===
##$OBSERVEDINTEGRALS= (X Y Z)

##$OBSERVEDMULTIPLETS=
##$OBSERVEDMULTIPLETSPEAKS=
$$ === CHEMSPECTRA SIMULATION ===
##$CSSIMULATIONPEAKS=
##END=


$$ === CHEMSPECTRA PEAK TABLE EDIT ===
##TITLE=LSH-R437
##JCAMP-DX=5.00
##DATA TYPE=INFRAREDPEAKTABLE
##DATA CLASS=PEAKTABLE
##$CSCATEGORY=EDIT_PEAK
##$CSTHRESHOLD=0.93
##MAXX=3997.453
##MAXY=0.9457870701172856
##MINX=373.96442
##MINY=0.4356921009106791
##$CSSOLVENTNAME=- - -
##$CSSOLVENTVALUE=0
##$CSSOLVENTX=0
##NPOINTS=50
##PEAKTABLE= (XY..XY)
378.2140156763094, 0.676631449150026
416.46037676309606, 0.6393528562464845
474.5381843393275, 0.6673433169033054
487.2869713682562, 0.5977240791724895
524.1168005629397, 0.6069754947826906
551.0309065129004, 0.770127651962333
587.8607357075839, 0.687492429124522
614.7748416575446, 0.7497833947465302
634.6062881469898, 0.6765546185046848
650.1881389601249, 0.6523080453893396
675.6857130179824, 0.7454320179283979
712.5155422126659, 0.7361677271844282
735.180052486317, 0.6553772079210525
772.0098816810005, 0.5661975731743116
791.8413281704452, 0.7779589870900985
821.5884979046127, 0.6955441821030058
864.084454667709, 0.787305830369603
871.167114128225, 0.7822204211850845
915.0796027834244, 0.7198655590673044
950.4929000860043, 0.6606690270714758
1007.1541757701325, 0.6696587789519246
1015.6533671227521, 0.6199899895205034
1075.1477065910867, 0.7200952749895874
1089.3130255121187, 0.7129652484069977
1123.3097909225953, 0.679668901699139
1137.4751098436277, 0.7030613999048014
1170.0553433620012, 0.7544066890696218
1192.7198536356527, 0.6981306658495758
1206.8851725566847, 0.743513463566153
1232.3827466145422, 0.7363084534447085
1247.9645974276777, 0.718606411150728
1263.5464482408129, 0.7137853487128231
1347.1218298749022, 0.6740482438633237
1364.1202125801406, 0.6920264351832749
1432.1137434010943, 0.6696050155572592
1447.6955942142295, 0.6623738394151725
1471.7766363799842, 0.7016208153952834
1497.2742104378417, 0.6399627316993317
1561.0181455824859, 0.7369651178577149
1609.180229913995, 0.7751722319017554
1838.6583964347146, 0.5639583454471943
1874.0716937372945, 0.4356921009106791
1913.7345867161844, 0.5250533211111132
2027.0571380844408, 0.5360303508135967
2878.392805238467, 0.8127956373944236
2926.5548895699767, 0.8182842715985166
2946.3863360594214, 0.8136848786748098
2978.966569577795, 0.8138588052868723
3001.6310798514464, 0.818896947218994
3088.0395252697417, 0.8115540127665651
##END=


$$ === CHEMSPECTRA PEAK TABLE AUTO ===
##TITLE=LSH-R437
##JCAMP-DX=5.00
##DATA TYPE=INFRAREDPEAKTABLE
##DATA CLASS=PEAKTABLE
##$CSCATEGORY=AUTO_PEAK
##$CSTHRESHOLD=0.93
##MAXX=3997.453
##MAXY=0.9457870701172856
##MINX=373.96442
##MINY=0.4356921009106791
##NPOINTS=100
##PEAKTABLE= (XY..XY)
2895.391187943706, 0.8329045158135508
2851.4786992885065, 0.8325019461336168
3865.715534034402, 0.8324658848367378
3957.79010702111, 0.8323351128684954
3833.135300516028, 0.8322342020147009
3736.81113185301, 0.8319147212975073
3823.2195772713058, 0.8318974957302927
3752.392982666145, 0.8318737731399766
3787.8062799687254, 0.8317961673617272
3886.96351241595, 0.8314566001322223
3950.707447560594, 0.8314126712363271
3780.7236205082095, 0.8312233670443694
3794.8889394292414, 0.8311484434021483
3871.381661602815, 0.8310849644211474
3963.456234589523, 0.8310791835151529
3881.297384847537, 0.8310558185429737
3760.8921740187648, 0.8309891209987389
3772.2244291555903, 0.8307128530603335
3801.9715988897574, 0.8306103928215558
3840.217959976544, 0.8299960480228277
3809.054258350274, 0.8299022296351414
3855.799810789679, 0.8298261741227081
3988.953808647381, 0.8297919616939812
3894.046171876466, 0.8295968158185623
3925.2098735027366, 0.8266314849823745
3933.709064855356, 0.8260729893905006
3919.543745934324, 0.8259507403609148
3123.452822572322, 0.8239478453724495
3906.7949589053947, 0.8232072569671608
3001.6310798514464, 0.818896947218994
2926.5548895699767, 0.8182842715985166
2978.966569577795, 0.8138588052868723
2946.3863360594214, 0.8136848786748098
2878.392805238467, 0.8127956373944236
3088.0395252697417, 0.8115540127665651
426.3761000078184, 0.8087579586258247
434.8752913604376, 0.795991359319486
1619.0959531587177, 0.7921793446420597
1578.0165282877247, 0.7917073944010298
396.6289302736509, 0.7879658921549119
864.084454667709, 0.787305830369603
967.4912827912431, 0.7856937626783485
871.167114128225, 0.7822204211850845
1045.4005368569192, 0.7784982902150037
791.8413281704452, 0.7779589870900985
1646.0100591086784, 0.7775388342248127
1641.7604634323689, 0.77748596487549
1053.8997282095384, 0.7772038561344563
1655.9257823534008, 0.7766345122052017
1609.180229913995, 0.7751722319017554
1664.42497370602, 0.774266896924367
551.0309065129004, 0.770127651962333
1678.5902926270523, 0.7700983862908918
1691.339079655981, 0.7627996185592275
1281.9613628381544, 0.7573160509056878
1483.1088915168098, 0.7568557840315802
1170.0553433620012, 0.7544066890696218
1320.207723924941, 0.7503718122303186
614.7748416575446, 0.7497833947465302
1381.118595285379, 0.7488427744860037
675.6857130179824, 0.7454320179283979
1206.8851725566847, 0.743513463566153
1391.0343185301012, 0.739019571516222
1561.0181455824859, 0.7369651178577149
1232.3827466145422, 0.7363084534447085
712.5155422126659, 0.7361677271844282
1736.6681002032838, 0.7320905906274806
1075.1477065910867, 0.7200952749895874
915.0796027834244, 0.7198655590673044
1247.9645974276777, 0.718606411150728
1263.5464482408129, 0.7137853487128231
1089.3130255121187, 0.7129652484069977
498.61922650508177, 0.7105517373305136
1137.4751098436277, 0.7030613999048014
1471.7766363799842, 0.7016208153952834
1192.7198536356527, 0.6981306658495758
821.5884979046127, 0.6955441821030058
1364.1202125801406, 0.6920264351832749
587.8607357075839, 0.687492429124522
1123.3097909225953, 0.679668901699139
378.2140156763094, 0.676631449150026
634.6062881469898, 0.6765546185046848
1347.1218298749022, 0.6740482438633237
1007.1541757701325, 0.6696587789519246
1432.1137434010943, 0.6696050155572592
474.5381843393275, 0.6673433169033054
1447.6955942142295, 0.6623738394151725
950.4929000860043, 0.6606690270714758
735.180052486317, 0.6553772079210525
650.1881389601249, 0.6523080453893396
1497.2742104378417, 0.6399627316993317
416.46037676309606, 0.6393528562464845
1015.6533671227521, 0.6199899895205034
524.1168005629397, 0.6069754947826906
487.2869713682562, 0.5977240791724895
772.0098816810005, 0.5661975731743116
1838.6583964347146, 0.5639583454471943
2027.0571380844408, 0.5360303508135967
1913.7345867161844, 0.5250533211111132
1874.0716937372945, 0.4356921009106791
##END=

##END=

