##TITLE=JPK-316,X16002
##JCAMP-DX=4.24
##DATA TYPE=INFRARED SPECTRUM
##DATE=16/6/2020
##SAMPLING PROCEDURE=Diamant-ATR
##ORIGIN=Angelika Moesle
##XUNITS=1/CM
##YUNITS=TRANSMITTANCE
##RESOLUTION=4
##FIRSTX=3997.453
##LASTX=373.96442
##DELTAX=-1.4165319
##MAXY=1.0046161
##MINY=0.32584053
##XFACTOR=1
##YFACTOR=9.3562169e-010
##NPOINTS=2559
##FIRSTY=0.98189759
##XYDATA=(X++(Y..Y))
3997+1049460055+1048733170+1048259899+1048392280+1048945375+1049264669
3989+1048948369+1048414195+1048430249+1049188286+1050142600+1050636258
3980+1050462468+1049895931+1049400936+1049326655+1049698379+1050209746
3972+1050524071+1050618547+1050672697+1050682317+1050509992+1050277211
3963+1050276510+1050483554+1050570386+1050454887+1050401374+1050543884
3955+1050740289+1050921979+1051189735+1051491318+1051557254+1051337851
3946+1051151702+1051159347+1051101948+1050735193+1050260393+1050038569
3938+1050093228+1050185793+1050180059+1050159737+1050263132+1050547388
3929+1050992629+1051490108+1051815964+1051799146+1051588088+1051528268
3921+1051668867+1051720086+1051515590+1051236622+1051028686+1050794567
3912+1050601283+1050770868+1051394040+1052140418+1052711797+1053080526
3904+1053141939+1052613435+1051605352+1050682126+1050162986+1049875673
3895+1049594347+1049354622+1049388259+1049805915+1050305815+1050554459
3887+1050559683+1050471769+1050362131+1050186112+1049927465+1049734819
3878+1049811839+1050157316+1050542482+1050584592+1049999135+1049119292
3870+1048926072+1049990152+1051641728+1052937252+1053482129+1053457220
3861+1053364464+1053415429+1053335159+1052715746+1051451184+1050161330
3853+1050075773+1050998489+1051637460+1051924455+1052240564+1052535841
3844+1052360267+1051513679+1050584401+1050361239+1050751629+1050823680
3836+1050254468+1049850764+1050371942+1051747607+1053119323+1053612662
3827+1053109768+1052229606+1051694732+1051804624+1052500739+1053369114
3819+1053844615+1053867741+1053666876+1053246735+1052544760+1051774364
3810+1051302430+1051390599+1051993066+1052660768+1052878897+1052491438
3802+1051663962+1050961667+1050958673+1051569358+1052408556+1053126140
3793+1053431036+1053191821+1052560877+1051963507+1051775256+1051998354
3785+1052354980+1052556927+1052469396+1052184375+1052003450+1052143540
3776+1052432765+1052581391+1052485322+1052165327+1051755698+1051548909
3768+1051647334+1051715117+1051458446+1051007663+1050626128+1050423161
3759+1050536622+1051105898+1051823672+1052132200+1051868649+1051390345
3751+1051225410+1051375883+1051432773+1051482272+1051921206+1052779771
3742+1053410842+1053383384+1052887179+1052414290+1052585340+1053501368
3734+1054208376+1054019998+1053408931+1052972226+1053009940+1053636233
3725+1054509514+1054760261+1053920553+1052626431+1051917639+1052103278
3717+1052621398+1052825703+1052589927+1052394223+1052981591+1054259851
3708+1055122429+1055055410+1054476068+1053931956+1053625340+1053460915
3700+1053290756+1052998919+1052471753+1051730534+1051052767+1050834574
3691+1051302622+1052212661+1052824110+1052810031+1052617958+1052550111
3683+1052495515+1052225848+1051621533+1050783673+1050138141+1050403922
3674+1051661796+1052895015+1053553479+1053817222+1053927051+1053957821
3666+1053873347+1053631009+1053333184+1053252278+1053485632+1053692740
3657+1053461743+1052927314+1052696316+1053054025+1053854044+1054724904
3649+1054918634+1054162826+1053371344+1053061096+1052891001+1052376895
3640+1051479469+1050703085+1050546432+1050982181+1051616501+1052100092
3632+1052255981+1052006891+1051506863+1051346260+1051865209+1052720015
3623+1053418040+1053516848+1052850612+1051890309+1051415763+1051571269
3615+1052031800+1052671216+1053436961+1054100968+1054415803+1054317632
3606+1053944825+1053559977+1053469770+1053883349+1054599785+1054992851
3598+1054755737+1054348593+1054332794+1054619088+1054698721+1054398092
3589+1054000504+1053872073+1054043250+1054191430+1054228380+1054372100
3581+1054760069+1055258122+1055483896+1055096373+1054239210+1053515447
3572+1053319679+1053465629+1053581510+1053499074+1053250048+1052999875
3564+1052910432+1052935596+1052923428+1052879471+1052966047+1053213162
3555+1053463081+1053601131+1053609158+1053432119+1053074347+1052761615
3547+1052796080+1053192585+1053546280+1053444351+1052965983+1052629934
3538+1052831882+1053351149+1053655409+1053673438+1053738354+1053862835
3530+1053691403+1053111615+1052520233+1052404352+1052863735+1053529717
3521+1053877042+1053692294+1053200931+1052779006+1052621908+1052636369
3513+1052610886+1052467612+1052293185+1052195970+1052276749+1052691602
3504+1053478625+1054280619+1054543023+1054169070+1053600685+1053185132
3496+1052875585+1052661342+1052865646+1053593678+1054268005+1054245963
3488+1053661907+1053143086+1052892212+1052619041+1052237570+1052132582
3479+1052622035+1053483530+1054182575+1054378535+1054132502+1053717076
3471+1053344333+1053089509+1052958976+1052938462+1052968213+1052937570
3462+1052747536+1052388425+1052011159+1051902285+1052249929+1052900430
3454+1053522709+1053964765+1054249658+1054357448+1054268451+1054099184
3445+1053965975+1053835633+1053645917+1053445625+1053344205+1053388162
3437+1053532711+1053719688+1053913036+1054031847+1053999739+1053923993
3428+1054037835+1054398156+1054816768+1055092168+1055147784+1055026679
3420+1054902580+1054987309+1055296983+1055557540+1055410698+1054782685
3411+1054073192+1053813399+1054075167+1054422747+1054501296+1054396436
3403+1054371654+1054522829+1054706365+1054633741+1054148429+1053533030
3394+1053302478+1053601705+1054050959+1054251760+1054233158+1054315530
3386+1054626797+1054835242+1054519834+1053819197+1053391666+1053609286
3377+1054051086+1053967950+1053127159+1052042948+1051406016+1051462014
3369+1052006508+1052759831+1053508439+1054008531+1054095808+1053920043
3360+1053833658+1053961643+1054021909+1053682229+1053018222+1052457801
3352+1052323828+1052610058+1053135186+1053689619+1054072619+1054168687
3343+1054005409+1053670762+1053245525+1052860295+1052714154+1052889409
3335+1053162452+1053175639+1052830672+1052355171+1052046516+1052133411
3326+1052721480+1053606865+1054283358+1054358213+1053906028+1053385487
3318+1053291138+1053757020+1054414083+1054800586+1054859960+1054783067
3309+1054582712+1054210733+1053864938+1053798301+1054001396+1054300240
3301+1054573093+1054724394+1054661516+1054431729+1054204745+1054019424
3292+1053732493+1053324584+1053076003+1053262343+1053790465+1054274184
3284+1054407903+1054194233+1053861880+1053620944+1053522009+1053500603
3275+1053452633+1053258648+1052909540+1052650384+1052788244+1053299102
3267+1053811425+1054011652+1053882457+1053583485+1053341339+1053390392
3258+1053750458+1054115429+1054185761+1054024139+1053886215+1053828498
3250+1053724530+1053589409+1053620880+1053869078+1054102561+1054127979
3241+1054031401+1053951960+1053844679+1053634322+1053380454+1053201695
3233+1053249156+1053721217+1054623548+1055544608+1055944681+1055693680
3224+1055165749+1054792814+1054661453+1054595517+1054499194+1054420772
3216+1054337699+1054141803+1053863855+1053691466+1053706565+1053771226
3207+1053756383+1053746699+1053842067+1053895580+1053722555+1053438299
3199+1053264382+1053200740+1053227241+1053498183+1053978270+1054269470
3190+1054131165+1053811870+1053653498+1053697391+1053835951+1054039938
3182+1054270235+1054382230+1054303808+1054187481+1054209395+1054330437
3173+1054413446+1054415612+1054307694+1054004199+1053562016+1053286169
3165+1053456646+1054008467+1054596664+1054959596+1055115421+1055171673
3156+1055111599+1054872956+1054500659+1054096063+1053714464+1053376568
3148+1053144742+1053150603+1053445307+1053800531+1053852515+1053544815
3139+1053221508+1053208512+1053504426+1053871372+1054063827+1054032038
3131+1053969989+1054042868+1054112244+1053920617+1053458685+1052923173
3122+1052405180+1051866929+1051391428+1051213051+1051448827+1051897316
3114+1052145132+1051852595+1051019130+1050064815+1049589314+1049872232
3105+1050562996+1050967465+1050749909+1050285365+1050173370+1050470304
3097+1050638615+1050220831+1049308881+1048308507+1047486382+1046836199
3088+1046211881+1045478881+1044594643+1043661542+1042954788+1042779724
3080+1043173491+1043863107+1044600440+1045329236+1045975532+1046365476
3071+1046409433+1046121801+1045538191+1044834750+1044311215+1044001923
3063+1043549292+1042683911+1041592883+1040705396+1040323415+1040485610
3054+1040978631+1041426037+1041481398+1041067755+1040488222+1040201100
3046+1040351701+1040606142+1040569065+1040236839+1039877601+1039595065
3037+1039306095+1039154603+1039575316+1040739733+1042213825+1043445388
3029+1044358803+1045165129+1045827034+1046079500+1045891186+1045591640
3020+1045501305+1045618078+1045767086+1045926925+1046222966+1046670245
3012+1047131604+1047474214+1047585891+1047353364+1046833969+1046319799
3003+1046007067+1045679873+1044900495+1043419332+1041274226+1038675343
2995+1036059578+1034148336+1033610403+1034607019+1036762445+1039446694
2986+1041981999+1043820361+1044788309+1045096327+1045009304+1044634395
2978+1044067349+1043499538+1043018431+1042478013+1041774445+1041136749
2969+1040868419+1040845676+1040595949+1039944237+1039254876+1038891624
2961+1038727837+1038387965+1037759506+1037106139+1036855201+1037390585
2952+1038838366+1040885556+1042930707+1044518259+1045533095+1045997829
2944+1045949795+1045605464+1045380583+1045548384+1045980501+1046362036
2935+1046548185+1046530538+1046203026+1045504745+1044747919+1044368932
2927+1044281974+1043900949+1042945551+1041834902+1041106552+1040779167
2918+1040495740+1040057825+1039578120+1039214996+1038992152+1038890350
2910+1038947112+1039230604+1039811602+1040722533+1041850574+1042958993
2901+1043909422+1044768623+1045647319+1046517606+1047212383+1047572449
2893+1047648004+1047725406+1048031768+1048488158+1048899379+1049253839
2884+1049652065+1050075709+1050402329+1050553312+1050533245+1050420231
2876+1050404623+1050680852+1051189225+1051572607+1051542984+1051222989
2867+1050985557+1051024099+1051242802+1051477048+1051615609+1051545596
2859+1051199099+1050664607+1050119985+1049692900+1049465725+1049517900
2850+1049843374+1050306325+1050785457+1051293894+1051866674+1052373518
2842+1052578269+1052453214+1052307901+1052464426+1052899347+1053348219
2833+1053639419+1053770143+1053799575+1053815438+1053916412+1054142632
2825+1054469634+1054816640+1055020882+1054937873+1054642341+1054400641
2816+1054394206+1054574622+1054788737+1054933031+1054980173+1054954500
2808+1054902261+1054840849+1054750768+1054661070+1054682985+1054856457
2799+1055059360+1055195308+1055362473+1055651379+1055893016+1055837846
2791+1055535689+1055330110+1055445290+1055721774+1055828354+1055652717
2782+1055376807+1055201169+1055108541+1054949595+1054695918+1054541558
2774+1054698275+1055088091+1055356803+1055286663+1055064265+1054999094
2765+1055103827+1055127079+1054904873+1054519388+1054156965+1053951323
2757+1053962917+1054186079+1054501360+1054702224+1054681329+1054561817
2748+1054554363+1054724458+1054968452+1055161735+1055273030+1055372538
2740+1055551106+1055824659+1056138602+1056413238+1056540841+1056427827
2731+1056111272+1055745282+1055454910+1055269335+1055148230+1055048211
2723+1055030820+1055234551+1055613856+1055884097+1055878108+1055739421
2714+1055657622+1055656221+1055682722+1055662910+1055520336+1055331703
2706+1055326033+1055585698+1055932450+1056184024+1056307040+1056293981
2697+1056122357+1055844535+1055554482+1055284815+1055055474+1054956666
2689+1055059551+1055306666+1055568179+1055744326+1055787582+1055731649
2680+1055725151+1055926589+1056327936+1056766360+1057109799+1057350798
2672+1057528410+1057630404+1057595238+1057390296+1057075015+1056755530
2663+1056467834+1056190013+1055979082+1055952326+1056095728+1056250852
2655+1056300479+1056209825+1055965513+1055664757+1055537091+1055687564
2646+1055953154+1056116177+1056088338+1055892825+1055643989+1055466059
2638+1055345782+1055230793+1055244298+1055510016+1055846192+1055941305
2629+1055723558+1055345782+1054976606+1054767905+1054816131+1055023048
2621+1055115803+1054901242+1054479891+1054163463+1054125304+1054171172
2612+1053966485+1053443905+1052861951+1052564063+1052786651+1053500922
2604+1054331520+1054861617+1055069362+1055180465+1055202635+1055018652
2595+1054772428+1054712290+1054851870+1055121218+1055534224+1055988001
2587+1056284680+1056428655+1056537847+1056574542+1056498795+1056453500
2578+1056506185+1056503573+1056403873+1056425088+1056657168+1056816688
2570+1056660672+1056425788+1056536891+1057040550+1057654930+1058182161
2561+1058525153+1058542418+1058282306+1058130750+1058370284+1058762585
2553+1058844256+1058521140+1058135082+1057983526+1058037739+1058160437
2544+1058312885+1058432206+1058396850+1058228411+1058092845+1058063476
2536+1058063795+1057991552+1057765715+1057362966+1056899760+1056574860
2527+1056482359+1056552882+1056675388+1056812356+1057013093+1057376472
2519+1057953902+1058608799+1059031807+1059024480+1058735638+1058501136
2510+1058504959+1058723661+1059141126+1059826411+1060716828+1061460085
2502+1061656618+1061220105+1060356890+1059320522+1058422714+1058094310
2493+1058544775+1059380342+1059867310+1059656188+1059099590+1058803421
2485+1058987340+1059370404+1059600509+1059663132+1059843165+1060332618
2476+1060897435+1061018858+1060439389+1059520941+1058925418+1058968865
2468+1059427548+1059902093+1060105188+1059824499+1059006069+1057967535
2459+1057175543+1056781140+1056646020+1056694054+1056937602+1057316333
2451+1057692644+1057882615+1057759090+1057513440+1057588549+1058136420
2442+1058789851+1059123670+1059144502+1059204704+1059527821+1059966436
2434+1060272798+1060404669+1060402567+1060226675+1059906807+1059617137
2425+1059493802+1059546678+1059724226+1059952739+1060191764+1060439453
2417+1060613370+1060646433+1060705106+1060967129+1061247053+1061253933
2408+1061058993+1060905780+1060783528+1060540681+1060190171+1059843038
2400+1059577002+1059503676+1059711230+1060055688+1060253686+1060204760
2391+1060009183+1059731361+1059411175+1059224963+1059341545+1059619812
2383+1059693775+1059418247+1059084874+1059139788+1059808318+1061040773
2374+1062575640+1063852306+1064180265+1063433376+1062428352+1062248000
2366+1063216266+1064613529+1065296265+1064692524+1063306793+1062140910
2357+1061689745+1061688790+1061601958+1061037779+1059913369+1058517190
2349+1057350352+1056863575+1057209053+1058037867+1058703402+1058857316
2340+1058631861+1058333398+1058131578+1058013850+1057971931+1058047741
2332+1058199743+1058342763+1058398060+1058210573+1057742590+1057353092
2323+1057482224+1058096604+1058791126+1059255096+1059332562+1059034864
2315+1058713532+1058842855+1059518838+1060362560+1060905398+1060968849
2306+1060714089+1060363961+1059989052+1059651219+1059528458+1059655296
2298+1059768566+1059677211+1059620067+1059953376+1060532909+1060727849
2289+1060186604+1059322306+1058830623+1058993137+1059656571+1060583237
2281+1061588262+1062533084+1063289719+1063633094+1063371900+1062793514
2272+1062656483+1063378908+1064473375+1065199942+1065554529+1066042580
2264+1066631223+1066682952+1065986391+1065182231+1065022839+1065647348
2255+1066560382+1066977273+1066351490+1064893898+1063511862+1063069807
2247+1063738209+1065051316+1066400798+1067409645+1068040270+1068490990
2238+1068893293+1069078549+1068812131+1068285602+1068101619+1068622160
2230+1069534684+1070263862+1070610932+1070701776+1070598955+1070472690
2221+1070775038+1071456946+1071430572+1069828241+1067379385+1065551598
2213+1064820445+1064575942+1064129937+1063205882+1062172827+1062139891
2204+1063881675+1066479666+1068058108+1067878585+1066671294+1065265495
2196+1064108213+1063633413+1063926269+1064400814+1064553772+1064504719
2187+1064491022+1064553581+1064811399+1065200706+1064973594+1063523456
2179+1061836842+1061963935+1064541668+1067710974+1069352740+1069477731
2170+1069109383+1068042500+1065519045+1062560159+1061739372+1064283341
2162+1068622925+1072188673+1073741823+1073450687+1071750885+1069409693
2153+1067756397+1067698424+1068960693+1070542002+1071388399+1070801922
2145+1068960566+1066925225+1065566569+1064819936+1064360361+1064413428
2136+1065146046+1065690923+1064897084+1063033048+1061668531+1061843404
2128+1063146572+1064530966+1065336846+1065418262+1064846119+1063806884
2119+1062693305+1062047326+1062161933+1062708721+1063003680+1062697445
2111+1061945970+1060951075+1059795832+1058783545+1058405004+1058725063
2102+1059262358+1059669121+1060095568+1060748363+1061514490+1062102814
2094+1062284504+1062044969+1061579470+1060973053+1060103022+1059172469
2085+1058836739+1059315935+1059967519+1060272989+1060580752+1061302477
2077+1062068668+1062407456+1062634185+1063186643+1063551360+1062872892
2068+1061422371+1060517747+1060856599+1061583420+1061411987+1060261777
2060+1059085957+1058307152+1057417817+1056360490+1056190459+1057767308
2051+1060616173+1063496700+1065506494+1066433033+1066263958+1064692142
2043+1061625848+1058079212+1055699668+1055351898+1056853637+1059613251
2034+1062706428+1065011627+1066088193+1066463103+1066981860+1068199790
2026+1069914371+1071100575+1070980426+1070033246+1069425874+1069947498
2017+1071514409+1072891859+1072446554+1070127404+1067826473+1067009126
2009+1067078311+1066839987+1066303965+1066014804+1065857196+1065457186
2000+1064947666+1064777380+1065033605+1065241287+1064944863+1064251233
1992+1063461088+1062520088+1061480344+1060883738+1060925274+1060947953
1983+1060331917+1059222096+1058307980+1058593319+1060837424+1064277607
1975+1066940005+1067813987+1067452583+1066628802+1065628937+1064449995
1966+1062833712+1060571579+1058187767+1056873705+1057569947+1060143347
1958+1063450004+1066038821+1066844446+1065776034+1063832685+1062244624
1949+1061335731+1060562596+1059548653+1058451828+1057404439+1056332332
1941+1055350305+1054761726+1054745099+1055324822+1056426808+1057841143
1932+1059249553+1060368102+1061097853+1061534812+1061748163+1061551567
1924+1060682427+1059304468+1058059973+1057479166+1057638813+1058311038
1915+1059258026+1060299873+1061121297+1061303751+1060759384+1059985293
1907+1059619239+1059794558+1060063142+1059908655+1059319694+1058774435
1898+1058647278+1058822533+1058890953+1058572933+1057931096+1057326781
1890+1057257278+1057938294+1058964979+1059709892+1059871705+1059543301
1881+1059009764+1058558026+1058338813+1058258162+1058109090+1057855668
1873+1057637475+1057546184+1057550134+1057579120+1057623587+1057717426
1864+1057759663+1057478592+1056740050+1055775606+1054844225+1053899275
1856+1052895907+1052086969+1051659247+1051317784+1050555224+1049283972
1847+1048025398+1047457268+1047745028+1048223651+1048210336+1047807460
1839+1047501608+1047573595+1047878046+1048189313+1048676154+1049742782
1830+1051405188+1053056828+1054220608+1054932330+1055265385+1055326861
1822+1055463319+1055950733+1056708324+1057443873+1057947787+1058180058
1813+1058188404+1058072204+1057935555+1057783489+1057615178+1057604475
1805+1057953202+1058580641+1059136475+1059348043+1059241972+1058984218
1796+1058680150+1058340979+1057929821+1057529812+1057369400+1057474897
1788+1057633398+1057668118+1057561601+1057415332+1057279257+1057073423
1779+1056747248+1056402790+1056157140+1056042406+1056079355+1056245819
1771+1056368134+1056313411+1056102863+1055748339+1055266786+1054791222
1762+1054498684+1054383504+1054281893+1054190475+1054240102+1054392231
1754+1054418351+1054168433+1053769188+1053600112+1053849075+1054316294
1745+1054761089+1055042796+1055088665+1054939720+1054760707+1054677443
1737+1054688910+1054752170+1054732039+1054394652+1053759249+1053060268
1728+1052479397+1052045687+1051656444+1051224900+1050772333+1050396086
1720+1050274026+1050754368+1052054925+1053574630+1054587936+1055085734
1711+1055357313+1055609015+1055880083+1056119426+1056300415+1056451143
1703+1056620601+1056800188+1056822421+1056577854+1056289840+1056100187
1694+1055884288+1055605447+1055383305+1055250414+1055074458+1054739492
1686+1054328398+1054142950+1054360187+1054692095+1054937618+1055106693
1677+1055172119+1054990175+1054503080+1053988400+1053828434+1054194170
1669+1054825050+1055251497+1055411399+1055453317+1055408022+1055274240
1660+1055146701+1055079873+1055028335+1054895445+1054434468+1053416129
1652+1052514308+1052127422+1051675365+1050540699+1048720302+1047022412
1643+1045720900+1044502333+1043227768+1042111704+1041614925+1042146551
1635+1043292748+1044135195+1044609359+1045114292+1045986681+1047266851
1626+1048657998+1049923133+1050955552+1051529669+1051545851+1051093539
1618+1049917081+1047184925+1042493303+1036629873+1031121158+1028197311
1609+1029562656+1034277150+1039580286+1043727669+1046580229+1048458025
1601+1049512039+1049889114+1049904595+1049850063+1049776801+1049599571
1592+1049265242+1048724443+1047917544+1046790012+1045193478+1042861459
1584+1039454339+1034692448+1028718680+1021890616+1013852839+1004338104
1575+996393147+993665005+995860120+1001953910+1010417242+1017288436+1019990841
1565+1019366013+1016881291+1013305159+1007646226+996247643+981280892+975905959
1555+980769015+990415939+1001149241+1010599441+1017912690+1022914179+1025748264
1545+1027068569+1027758059+1028712119+1030901564+1034280781+1036828954
1537+1038069882+1039147659+1040947542+1043381682+1045453590+1046777271
1528+1047739677+1048595311+1049248424+1049671113+1050142983+1050901147
1520+1051710977+1052176412+1052190491+1051814881+1051150556+1050313969
1511+1049444575+1048643345+1047658388+1045390648+1041220649+1036568397
1503+1031638195+1025348191+1016790829+1006243230+996350910+990925204+990308276
1493+991387900+990808240+986172042+979151521+976097714+980012634+988498964
1483+997980827+1005824427+1011032323+1014213861+1016406300+1018143115
1475+1019779529+1022038732+1025052787+1027490812+1028339503+1027594971
1466+1025836051+1024538425+1025200329+1027465266+1030056887+1032279395
1458+1033950211+1034908539+1035255163+1035344160+1035254717+1034871335
1449+1034128078+1032978823+1031304822+1028948149+1025592376+1020898332
1441+1014756635+1006549910+994756797+980334668+969150328+964220636+962857839
1431+961103378+955440176+943777214+925092394+899421518+871250440+848806206
1421+837646202+840159656+856649679+882096947+910384989+938171539+962697810
1411+981737154+995024808+1003879740+1009721637+1012989242+1013301719+1010431449
1401+1004071304+993607733+979442084+963417368+948365824+938621111+936898248
1391+940769148+945329090+946554283+943663117+940159737+939569056+941401556
1381+942111686+938048268+927849204+911999106+890954491+866046367+841271834
1371+820651245+806561470+802055804+809623622+827878810+852818341+879454616
1361+901962557+916694106+923413807+923381762+919760144+917882858+921498488
1351+929421594+937550661+943021980+945536453+945679282+943313244+937235062
1341+924967467+903364915+872396573+838816989+812704759+801025998+804558300
1332+818128554+834259595+847831505+857415233+863244262+865260108+863157685
1322+857633235+851081144+846503046+844844971+843655200+839794684+833948519
1312+831797106+839477811+857895576+881931885+904552139+921605450+933172280
1302+941218720+946778145+949087931+946749669+939589441+929600671+920088230
1292+913561813+909986764+906920534+901777300+894410092+887229733+882283542
1282+878320141+871555783+860172681+847625034+840396259+842615073+853435715
1272+868742274+884066925+896301648+904179140+907959577+908583450+906806819
1262+902846858+896557555+887713835+876084509+861456992+843950986+824373455
1252+804032663+784073915+765110828+747497159+731712806+718354947+707878317
1242+700468108+696157510+695042847+697266057+702571868+709873332+717484533
1232+723780016+727310917+726200842+718069354+701618637+678837398+655020365
1222+635561836+622503014+614324765+608417506+603073280+597486398+590890414
1213+582451736+571991605+560178616+547466353+533043587+515352388+493740663
1203+469473579+445289249+424254095+408937247+401118046+401675664+410454149
1193+426197030+446698520+469296604+491587912+511942401+529523675+544026170
1183+555639696+565397023+575385984+588209668+605772627+628132451+653186399
1173+677577422+698406138+714465510+726020044+733554544+736662756+733696990
1163+722165135+700034079+667791173+629573798+591399997+557406070+527660659
1153+499482828+470367851+439732596+408981396+380950534+359355277+348260986
1143+351120904+368666376+396707876+426978638+451652802+467525802+476413607
1133+482855996+491564405+505267581+523516685+543588956+562526689+577736988
1123+586137570+584777257+574101673+560566776+554344109+562759088+585488916
1113+616149749+647994302+677798291+705481764+731712869+756399425+778838881
1103+798497956+815299693+829357934+840675164+848927056+853231729+852086360
1094+843774839+827396237+804234292+778564308+756954877+745883169+748688906
1084+763892770+786400902+810694646+833267375+852815283+869128842+882175688
1074+891758970+897422299+898340174+893268290+880949476+861298683+836758333
1064+812285702+793325927+783355822+783038184+791003718+804931235+822312887
1054+840986304+859303031+875996404+890231811+901816797+911079002+918463729
1044+924347226+929125680+933242548+937035344+940582872+943704653+946165931
1034+947977664+949444238+950747343+951467029+950754797+948188149+944402424
1024+940668301+937795801+935517805+932703723+927896538+920133907+910038557
1014+899908104+892033606+887003768+883945693+881992724+881282339+883093754
1004+889208822+900453809+915432728+930959518+943915966+952538754+956170756
994+954788337+949469275+942602541+936314447+930553775+923639963+914726739
984+904114925+889973165+866811666+831418375+791306194+763087145+758996779
975+776481571+802535828+825458622+840362559+847113539+847742062+845528918
965+843683421+844071136+847637457+855299050+867109619+880476587+890728526
955+895302548+897478997+904209783+919351598+940114378+960470715+976449944
945+987537578+994822542+999285779+1001134270+999676041+993964232+984048787
935+971642950+959729241+951694140+950076520+954919062+963332385+971523183
925+977217728+979863053+978828150+970867713+949559228+911750653+867951811
915+840806971+846163302+878023272+916685824+947804894+969109047+983678655
905+993851791+1000944808+1006327832+1011164513+1015736050+1019527763+1022104349
895+1023673681+1024701958+1025393868+1025707556+1025576704+1025027686
887+1024111086+1022623743+1019950452+1015369486+1008722028+1000870081+993223204
877+986647925+981185333+976699225+973006957+969528678+965889859+962998375
867+962726095+966172013+972306829+978395141+981889538+981958149+979323782
857+975312666+971462662+969393749+970305062+974524815+981521254+990154554
847+999041912+1006959731+1013066389+1016982456+1018900578+1019586181+1020015814
837+1020820929+1022063577+1023513651+1024932191+1026040101+1026469797
829+1025901349+1024227731+1021670193+1018691814+1015660176+1012763914
820+1010405393+1009310670+1009967924+1012157370+1015126958+1018064374
812+1020334025+1021397978+1020796466+1018366276+1014308082+1009247219
803+1004749517+1003166170+1005700456+1010931158+1016232446+1020137556
795+1022599726+1023890727+1024198426+1023818739+1023130906+1022442373
786+1021888832+1021312994+1020104938+1017209377+1011540378+1002080303+986603458
776+960601949+919950307+866856260+812766809+772570919+752214774+740335020
766+714429133+659712306+584962386+520037354+496075485+524974212+593722333
756+675578521+747808107+802318846+843006737+875661438+901362383+918204509
747+926444552+929711328+931467509+932379523+932201147+932636577+936510916
737+944632785+954667296+962799421+966072376+963996837+958998343+955216568
727+955915104+961141156+967719111+971790557+971266575+966155704+957810419
717+948554075+941157244+937326352+935978462+933152149+924020542+904826839
707+873725479+833388544+794918575+774323150+779825049+805004560+837330539
697+869898664+901547449+930239132+952305590+966468118+974610308+978819295
687+979019331+973428691+961578115+947438903+938358070+938874342+946053427
677+952405353+952506837+945692851+934192530+919465186+898002851+861430745
667+811046494+762013573+719196630+680681366+649914717+631828669+625570900
657+626689576+632288435+641693213+654785290+670499630+686780507+701732415
647+714307837+724550476+733904608+744760671+759192547+778102568+801136846
637+827041140+854074877+880030454+902391871+919204565+929396685+931478467
628+922399290+899650159+866237930+832697207+811476509+808086717+817831366
618+829795339+831701611+813311494+773316788+726405975+696081190+692971959
608+704284921+711165734+711808845+720334736+746418299+783867126+819031267
598+844334432+860777377+871451814+877536686+879441366+878410859+876040743
588+873111927+869623200+865665214+861528279+857116580+852482675+849049244
578+849029750+853448329+861484067+871690903+882829119+892837320+897941184
568+894367154+881255392+860815091+836054446+810245774+788648447+778628842
558+785875583+809486591+841108364+869954216+888702997+894253439+885642500
548+865326044+841915709+826688464+824608211+830970649+837948295+841412241
538+840572406+834640684+822902676+806980017+790983587+779265647+773444709
528+770559595+764521166+750961168+732046816+715836015+711356915+723671653
518+749276847+776406971+793782571+797554089+789311243+773778019+759944341
509+758883064+776002821+806142476+839246941+868683028+891857332+907570398
499+915790756+917455009+913189643+902394738+883025779+853403544+816721036
489+783618418+768338042+780254554+815742576+858689224+891660863+903995221
479+891680930+860594923+830005950+822609183+846836928+888015864+922713169
469+940949436+945971374+944841868+944501805+948628229+956114949+964455775
459+973148703+981993952+989095188+993615251+996579933+997919669+995747042
449+988582228+977539061+966980504+962372846+966079384+975522386+986061002
439+995206688+1002555358+1007448291+1009127643+1008206456+1005983883+1002992253
429+999237107+995119921+991685598+990429700+992228500+995808263+997937825
419+995580069+990470280+987608546+987070040+985504977+980292048+971046726
409+958508508+942885204+924353915+903629358+881546974+859871415+842819505
399+837024241+847042890+867454586+889061470+909238092+926593178+939092854
390+947603710+954392787+958079258+954014629+942266173+930637740+925469724
380+927672993+935703444+947255048+960183082+971726596
##END=
