##TITLE=JPK-023_ROOT
##JCAMP-DX=5.0
##DATA TYPE=LINK
##BLOCKS=3

##TITLE=JPK-023
##JCAMP-DX=4.24
##DATA TYPE=INFRARED SPECTRUM
##DATE=6/11/2018
##SAMPLING PROCEDURE=Diamant-ATR
##ORIGIN=Lara
##XUNITS=1/CM
##YUNITS=TRANSMITTANCE
##RESOLUTION=4
##FIRSTX=3997.453
##LASTX=373.96442
##DELTAX=-1.4165319
##MAXY=1
##MINY=0.48935586
##XFACTOR=1
##YFACTOR=9.3132258e-010
##NPOINTS=2559
##FIRSTY=0.99721533
##XYDATA=(X++(Y..Y))
3997+1070751807+1070522367+1070837887+1071309439+1071335679+1070872767
3989+1070527423+1070773183+1071450943+1072095167+1072411071+1072406399
3980+1072292863+1072322687+1072645055+1073223039+1073741823+1073645055
3972+1072596351+1071008127+1069793855+1069462015+1069715455+1070009343
3963+1070151039+1070263039+1070452799+1070641151+1070639935+1070408191
3955+1070190399+1070253823+1070510463+1070583807+1070228799+1069637247
3946+1069306111+1069521407+1070030911+1070300927+1070141311+1069832703
3938+1069626239+1069522495+1069463231+1069449535+1069495679+1069561023
3929+1069541439+1069406975+1069296063+1069330623+1069406911+1069393151
3921+1069423231+1069686207+1070048447+1070100927+1069646463+1068923967
3912+1068303231+1067980415+1067943039+1068083135+1068317887+1068657727
3904+1069150207+1069663999+1069877183+1069680959+1069339711+1069083519
3895+1068885183+1068729087+1068763327+1068989247+1069013375+1068557055
3887+1067831039+1067303807+1067323199+1067862271+1068595647+1068982271
3878+1068699583+1068110207+1067676415+1067390975+1067103871+1067104511
3870+1067733631+1068543295+1068863551+1068717823+1068442815+1068240831
3861+1068185919+1068286783+1068568127+1069221183+1070495167+1072042047
3853+1072345599+1070918783+1069248447+1068109439+1067510463+1067354431
3844+1067460479+1067511231+1067245695+1066672319+1066012479+1065586047
3836+1065687487+1066346751+1067186303+1067545343+1067032447+1065912447
3827+1064701055+1063752383+1063298623+1063559359+1064595647+1065799231
3819+1066252543+1066046079+1065993023+1066579135+1067426175+1067898367
3810+1067762815+1067163647+1066485759+1066141887+1066242687+1066686463
3802+1067324927+1067821823+1068002751+1068053759+1067999231+1067702783
3793+1067275647+1066859775+1066297407+1065554367+1065130239+1065529663
3785+1066545343+1067453247+1067738623+1067282751+1066273151+1065322687
3776+1065057791+1065492927+1066208703+1066847743+1067245375+1067229695
3768+1066670847+1065878271+1065410047+1065372927+1065391487+1065303615
3759+1065364415+1065748287+1066294143+1066862911+1067393215+1067630463
3751+1067297855+1066764863+1066672511+1066930175+1066910207+1066218431
3742+1065450751+1065237311+1065355263+1065230527+1064496447+1063498239
3734+1063282751+1064394047+1066100735+1067241471+1067237119+1066383935
3725+1065515839+1065149887+1065157439+1065411519+1065917631+1066333119
3717+1066194367+1065587391+1065120383+1065204351+1065368959+1064846847
3708+1064040575+1063827839+1064277439+1065027519+1066022911+1067263807
3700+1068114687+1067883903+1066781759+1065628159+1065013311+1064953471
3691+1065170751+1065336127+1065092159+1064468479+1064046079+1064199743
3683+1064712959+1065126079+1065282495+1065354431+1065305663+1064824511
3674+1064147711+1063968959+1064276223+1064419199+1063899263+1063188735
3666+1063082303+1063674495+1064406655+1064730175+1064726719+1064892543
3657+1065401919+1065789439+1065490303+1064608767+1063742015+1063455231
3649+1063779135+1063983359+1063736575+1063401343+1063166207+1062950591
3640+1062655359+1062303295+1062046335+1062115647+1062703231+1063816767
3632+1065273215+1066663935+1067003711+1065432831+1063045951+1061425727
3623+1060976255+1061366911+1061915327+1061891967+1061228351+1060625471
3615+1060491775+1060633407+1060882431+1061389567+1062076351+1062379647
3606+1062074367+1061719551+1061816959+1062269887+1062674623+1062739839
3598+1062507583+1062256191+1062199039+1062293887+1062407999+1062561151
3589+1062844991+1063243135+1063551615+1063486271+1063007103+1062505919
3581+1062631039+1063683583+1065093247+1065851263+1065505919+1064459647
3572+1063414591+1062810303+1062674175+1062621183+1062153535+1061513151
3564+1061429567+1061833151+1061997823+1061636351+1061229439+1061080831
3555+1060733055+1059752447+1058536959+1057802559+1057541375+1057226431
3547+1056823295+1056964095+1057982847+1059338239+1060271423+1060428159
3538+1059873791+1059038655+1058584831+1058923519+1059893887+1061061311
3530+1062057343+1062566399+1062366911+1061618879+1060894975+1060700607
3521+1060958655+1061085055+1060604735+1059587647+1058514175+1057852607
3513+1057828927+1058406399+1059244159+1059784191+1059632383+1058833343
3504+1057796095+1057093439+1057097663+1057594559+1057982911+1057881663
3496+1057449791+1057164799+1057276287+1057523775+1057501119+1057249919
3488+1057232959+1057628095+1058030655+1058092991+1058025023+1058126335
3479+1058180863+1057834047+1057244159+1056841215+1056643839+1056299455
3471+1055684543+1055068031+1054785279+1054978687+1055496319+1055930431
3462+1055955647+1055678527+1055483711+1055573695+1055862271+1056234047
3454+1056667967+1057083327+1057261567+1057030079+1056462335+1055837951
3445+1055404543+1055204927+1055159871+1055249535+1055506815+1055804159
3437+1055793599+1055234367+1054317439+1053520831+1053210495+1053492031
3428+1054271935+1055252607+1056023871+1056398783+1056543231+1056605951
3420+1056473471+1056098559+1055737407+1055595007+1055547775+1055405823
3411+1055166975+1054862975+1054425919+1053846975+1053296319+1052990079
3403+1052987391+1053167615+1053417215+1053758527+1054207615+1054590079
3394+1054655359+1054379071+1054050175+1054011903+1054309887+1054627071
3386+1054587711+1054125759+1053511423+1052996543+1052539391+1052033855
3377+1051708159+1051900991+1052386943+1052427199+1051706879+1050758079
3369+1050230975+1050194815+1050343871+1050479551+1050597055+1050801279
3360+1051233343+1051850687+1052290111+1052201471+1051709567+1051332287
3352+1051426815+1051841471+1052129599+1052062463+1051846591+1051738239
3343+1051609407+1051177919+1050518783+1050038911+1050040767+1050472639
3335+1050978303+1051190911+1051121023+1051092031+1051218111+1051285887
3326+1051237695+1051329023+1051657471+1051913535+1051782271+1051363583
3318+1051014655+1050888639+1050852735+1050796095+1050702911+1050446527
3309+1049899519+1049252607+1048877311+1048939711+1049343167+1049840447
3301+1050077503+1049816511+1049159039+1048387071+1047744255+1047557759
3292+1048219007+1049692671+1051265919+1052142335+1052214783+1052043199
3284+1052170111+1052620735+1052976511+1052798783+1052044607+1051124223
3275+1050436287+1049951551+1049533759+1049424255+1049921727+1050796991
3267+1051529855+1051940095+1052171071+1052303807+1052322623+1052210751
3258+1051924223+1051543999+1051365311+1051493439+1051541567+1051116415
3250+1050373631+1049825279+1049801983+1050220799+1050689023+1050846591
3241+1050704639+1050553471+1050577599+1050736063+1050931135+1051118783
3233+1051295999+1051429759+1051401983+1051141311+1050796223+1050549695
3224+1050293823+1049767487+1049016703+1048467135+1048460991+1048881023
3216+1049342207+1049630463+1049779711+1049833983+1049753983+1049508671
3207+1049140095+1048857663+1048979839+1049497983+1049884927+1049692223
3199+1049083583+1048513791+1048271423+1048482815+1049085247+1049695871
3190+1049877823+1049527679+1048856191+1048206463+1047922623+1048060351
3182+1048239871+1048068159+1047624831+1047293951+1047215615+1047146175
3173+1046857791+1046491135+1046385983+1046605311+1046817727+1046728575
3165+1046442687+1046281599+1046383615+1046572479+1046494847+1045876287
3156+1044811455+1043782207+1043204095+1043029887+1043007295+1043154047
3148+1043636607+1044295359+1044630143+1044299455+1043476863+1042724927
3139+1042544063+1042963967+1043579263+1044020287+1044236671+1044258687
3131+1043990015+1043483327+1043130751+1043248127+1043631551+1043816895
3122+1043684799+1043553791+1043703359+1044030271+1044245311+1044302591
3114+1044455359+1044820159+1045087231+1044908095+1044471359+1044337279
3105+1044611839+1044628607+1043709119+1042058943+1040623487+1040181887
3097+1040796223+1041920511+1042820415+1043122367+1043124031+1043368767
3088+1043859327+1043795583+1041909695+1036906687+1028212991+1017153279
3080+1007154303+1001712511+1001704895+1004999679+1008686527+1011298623
3071+1012786239+1012816191+1010014463+1003540415+995203775+988987007+987795391
3061+991136703+996294399+1000902783+1003924095+1005170879+1004975039+1004145279
3051+1003599487+1003867903+1004874751+1006107135+1007126655+1007937279
3043+1008692351+1009256959+1009379839+1009119359+1008830719+1008837567
3034+1009207807+1009747583+1010271871+1010907199+1011898559+1013152511
3026+1014303167+1015184255+1015891647+1016463679+1016851775+1017161855
3017+1017616383+1018280831+1019027135+1019754175+1020468863+1021158399
3009+1021718975+1022052095+1022194815+1022318719+1022530367+1022685055
3000+1022590847+1022446463+1022769727+1023722047+1024791103+1025404799
2992+1025656063+1026121343+1027068927+1028132991+1028764543+1028751743
2983+1028216255+1027373567+1026496703+1025940799+1025944767+1026404479
2975+1026965759+1027332607+1027415039+1027236095+1026851519+1026370815
2966+1025926655+1025591807+1025367743+1025177023+1024858751+1024363967
2958+1023977279+1024044799+1024418751+1024574463+1024374207+1024250303
2949+1024451519+1024609535+1024336831+1023777727+1023244287+1022746047
2941+1022196351+1021678655+1021186559+1020438911+1019224447+1017713151
2932+1016266367+1015084479+1014133631+1013336063+1012765439+1012613183
2924+1012986303+1013770303+1014645567+1015209535+1015253247+1015042111
2915+1015163775+1015954367+1017201471+1018508543+1019723199+1020831423
2907+1021720575+1022359999+1022965311+1023636031+1024099647+1024167167
2898+1024144319+1024435007+1025015359+1025613183+1026098559+1026424575
2890+1026479807+1026286655+1026117759+1026216767+1026562943+1026988287
2881+1027335871+1027461695+1027313087+1027049791+1026899839+1026907199
2873+1027007807+1027234623+1027597631+1027887935+1027861183+1027511167
2864+1026976895+1026337919+1025634559+1024891583+1024024063+1022933119
2856+1021748543+1020771199+1020154559+1019825087+1019734783+1020032127
2847+1020876351+1022105727+1023244223+1023946879+1024301631+1024548863
2839+1024751039+1024950079+1025354495+1026059903+1026811519+1027334719
2830+1027700031+1028131839+1028634495+1029026943+1029206783+1029235839
2822+1029239167+1029277119+1029275391+1029151999+1029014847+1029043135
2813+1029188671+1029250559+1029179583+1029019391+1028701823+1028197375
2805+1027677567+1027273983+1026875775+1026323519+1025642303+1025043071
2796+1024817215+1025153087+1025921023+1026707263+1027181055+1027392383
2788+1027616511+1027920191+1028060671+1027887935+1027627775+1027592575
2779+1027796351+1028020095+1028124671+1028175871+1028310015+1028523903
2771+1028621247+1028427711+1028027135+1027700159+1027652223+1027856447
2762+1028142591+1028390719+1028597247+1028728319+1028599999+1028049279
2754+1027212415+1026497855+1026228927+1026378111+1026642879+1026738815
2745+1026639999+1026560959+1026655103+1026779903+1026718719+1026558143
2737+1026546943+1026634751+1026532095+1026221247+1026014719+1026079871
2728+1026270719+1026434751+1026562239+1026633919+1026607295+1026549247
2720+1026564991+1026636671+1026695615+1026749503+1026790911+1026729983
2711+1026548863+1026380415+1026346367+1026434367+1026566655+1026711615
2703+1026933759+1027319103+1027792063+1028121151+1028220607+1028262975
2694+1028353791+1028333183+1028054079+1027624255+1027248127+1027000639
2686+1026798591+1026484415+1025988415+1025468351+1025158911+1025100287
2677+1025186751+1025387327+1025686911+1025947007+1026057407+1026115839
2669+1026257407+1026406975+1026359551+1026073855+1025763071+1025667391
2660+1025810751+1026055231+1026285375+1026425983+1026389951+1026175807
2652+1025919487+1025764735+1025811327+1026179903+1026886975+1027648319
2643+1028048895+1027964287+1027652223+1027430271+1027405887+1027509183
2635+1027645951+1027771903+1027854015+1027805567+1027564223+1027272895
2626+1027200383+1027383999+1027566399+1027587327+1027571903+1027653887
2618+1027794751+1027943679+1028146943+1028461695+1028892543+1029370495
2609+1029736319+1029831679+1029654271+1029354687+1029051135+1028761983
2601+1028568319+1028644863+1028970367+1029233279+1029214015+1028996479
2592+1028698303+1028384511+1028252735+1028441471+1028702207+1028685503
2584+1028419775+1028180223+1028035839+1027765311+1027240383+1026820095
2575+1027091775+1028023743+1028787519+1028782143+1028404031+1028433215
2567+1029068735+1029889151+1030440191+1030642367+1030738431+1030929215
2558+1031146751+1031253695+1031255231+1031124799+1030697471+1029990143
2550+1029363199+1029092479+1028999487+1028751679+1028357951+1028120191
2541+1028184895+1028401279+1028590143+1028710527+1028761663+1028805055
2533+1029023551+1029391359+1029393407+1028591615+1027390399+1026686271
2524+1026798271+1027232063+1027488639+1027684351+1028203775+1028944063
2516+1029265663+1028844159+1028143359+1027714943+1027510655+1027259711
2507+1026993599+1026819775+1026625855+1026297791+1025959487+1025879295
2499+1026237951+1026956351+1027751871+1028365631+1028638911+1028495743
2490+1028118591+1027961599+1028262527+1028690623+1028745535+1028360959
2482+1027926847+1027859007+1028276223+1028986751+1029668287+1030087231
2473+1030206911+1030146175+1030084927+1030154303+1030266303+1030130303
2465+1029640767+1029109759+1028857791+1028813055+1028775359+1028723839
2456+1028646015+1028484799+1028388095+1028592383+1029021055+1029308543
2448+1029132799+1028378303+1027204607+1026072063+1025522111+1025780095
2439+1026520575+1027065343+1026995583+1026551295+1026261567+1026327615
2431+1026558143+1026704127+1026680191+1026617087+1026747071+1027099967
2422+1027433663+1027584191+1027679487+1027876223+1028088767+1028067583
2414+1027639935+1026900287+1026285055+1026350911+1027259519+1028505151
2405+1029287615+1029168383+1028410239+1027728319+1027571327+1027622783
2397+1027274623+1026505535+1025841151+1025560767+1025460159+1025293119
2388+1025039935+1024836735+1024851071+1025115007+1025481791+1025831167
2380+1026191359+1026570239+1026868735+1027023807+1027050623+1026929855
2371+1026675839+1026557375+1026984063+1027931903+1028671679+1028476927
2363+1027452671+1026324863+1025786303+1026228287+1027474687+1028678207
2354+1029038207+1028544383+1027704767+1026872063+1026096895+1025362239
2346+1024775807+1024520831+1024560127+1024621375+1024599871+1024659711
2337+1024963391+1025495871+1026035007+1026236287+1025877183+1025046655
2329+1024041023+1023160831+1022648575+1022680127+1023258623+1024053183
2320+1024506623+1024329919+1023758783+1023230143+1022985087+1022958271
2312+1022861247+1022493695+1022083583+1022071167+1022492479+1022905983
2303+1022965567+1022784703+1022650367+1022593855+1022457663+1022329343
2295+1022513535+1022934143+1023052351+1022594047+1021850687+1021095871
2286+1020323391+1019701823+1019661055+1020288063+1021078847+1021549183
2278+1021786367+1022081343+1022282175+1022055295+1021653631+1021791999
2269+1022686143+1023708671+1024104831+1023801407+1023392191+1023422975
2261+1023898623+1024587071+1025450687+1026506175+1027536767+1028225471
2252+1028416063+1028149823+1027550335+1026671551+1025491327+1024108095
2244+1022866239+1022230527+1022431487+1023107903+1023559103+1023587199
2235+1023697407+1024231039+1024818751+1024868031+1024163903+1023028799
2227+1022173759+1022249343+1023470847+1025614655+1027921599+1029112319
2218+1028353215+1026276543+1024471039+1024153791+1025537343+1027682495
2210+1028800511+1027863551+1026139327+1025844351+1027082559+1027737919
2201+1026877183+1026287295+1027552895+1029473535+1030021183+1029429183
2193+1029342271+1029729471+1028781247+1025937727+1023047551+1021728063
2184+1021427775+1021399039+1022445247+1024701311+1026003647+1024943295
2176+1023538559+1024622719+1028043007+1030935615+1030722943+1027327103
2167+1023020031+1020200639+1019387711+1019716543+1020737663+1022837247
2159+1026006335+1028798975+1029320895+1027428351+1025295999+1025444991
2150+1027995391+1030206399+1029575551+1027031551+1025581247+1026235135
2142+1027391551+1027790591+1027650111+1027161983+1026222143+1025599807
2133+1026377471+1028155391+1029151935+1028153215+1025766207+1023616639
2125+1022525759+1021937727+1021214399+1020682111+1020877503+1021585919
2116+1022363775+1023312639+1024505727+1025186111+1024516927+1022980863
2108+1022073471+1022432575+1023150975+1023217535+1022737791+1022334719
2099+1022259903+1022469631+1022722943+1022464575+1021469247+1020450175
2091+1020125183+1020057663+1019378175+1018330751+1018044863+1018851583
2082+1019758975+1019792191+1019174719+1018843455+1019272383+1020146623
2074+1020836031+1020828031+1019978303+1018746815+1018100351+1018875775
2065+1020964991+1023146559+1024069311+1023575807+1022771327+1022711167
2057+1023349375+1023850815+1023552127+1022474751+1021385535+1021493247
2048+1023406271+1026085247+1027622975+1027315583+1026214079+1025662335
2040+1025803839+1025636223+1024375551+1022516799+1021276223+1021271615
2031+1022252543+1023685439+1024907903+1025296703+1024942399+1024567167
2023+1024387135+1023980799+1023495423+1023743807+1024912767+1026472639
2014+1028365695+1030658943+1032308415+1032170559+1030954111+1030233535
2006+1030011583+1029272959+1028129471+1027627775+1028165055+1029313471
1997+1030877759+1033241087+1036279295+1038447231+1038040895+1035451775
1989+1032500735+1029673279+1026096447+1021708351+1017484095+1013809791
1980+1010125247+1006312959+1003538239+1003186047+1005213951+1008135167
1972+1010584639+1012224127+1012862271+1011773823+1009127039+1007045247
1963+1007529215+1010248959+1013511871+1016414143+1018954943+1020982335
1955+1022155967+1022242559+1020982015+1018503935+1015864191+1014323967
1946+1014177599+1014728383+1015132607+1015067263+1014782079+1014571519
1938+1014486911+1014627135+1015228991+1016332863+1017706943+1019067007
1929+1020031615+1020110143+1019157311+1017679103+1016468031+1015889727
1921+1015585791+1015000063+1013930751+1012450559+1010648831+1008771263
1912+1007370111+1006940415+1007370495+1008042559+1008566143+1009103935
1904+1009906879+1010871743+1011793471+1012838911+1014365567+1016290687
1895+1017931775+1018674751+1018677951+1018606335+1018880575+1019405823
1887+1019865855+1020025535+1019839551+1019510847+1019280191+1019132991
1878+1018932287+1018679167+1018477823+1018445055+1018631167+1018821567
1870+1018596479+1017870463+1017085055+1016451903+1015689087+1014648831
1861+1013634687+1013012543+1012734527+1012540031+1012482239+1012856063
1853+1013699711+1014688831+1015391295+1015500159+1015086719+1014678591
1844+1014808575+1015413247+1016011775+1016260223+1015955071+1015066495
1836+1013830911+1012455551+1010909055+1009121599+1007236799+1005658303
1827+1004680639+1004082367+1003295679+1002113087+1001083775+1000890303
1819+1001658175+1002972863+1004366335+1005641215+1006785023+1007822271
1810+1008792191+1009730559+1010623423+1011416127+1012088191+1012680703
1802+1013238527+1013721471+1013988223+1013894079+1013443199+1012861055
1793+1012439807+1012138943+1011572799+1010719679+1009932671+1009319551
1785+1008685951+1008033087+1007714239+1007919167+1008364095+1008604607
1776+1008424703+1007929535+1007563903+1007899327+1008951551+1010200255
1768+1011280575+1012031679+1012426623+1012600063+1012702207+1012797439
1759+1012942335+1013193087+1013484159+1013643647+1013543167+1013121023
1751+1012345471+1011330879+1010388671+1009745983+1009333951+1008936639
1742+1008476351+1008010687+1007510463+1006976255+1006647615+1006757375
1734+1007112511+1007270335+1007353087+1007659775+1008091903+1008407295
1725+1008508287+1008324543+1007755839+1006913983+1006209855+1006133439
1717+1006689471+1007165247+1007233471+1007215743+1007386303+1007759103
1708+1008246079+1008815039+1009398655+1009830655+1010075647+1010176959
1700+1009914559+1009250495+1008883711+1009167231+1009391999+1009000383
1691+1008342143+1007904831+1007727359+1007705343+1008233407+1009847039
1683+1011685247+1012481855+1012393407+1011958591+1011595391+1011642559
1674+1012040639+1012346943+1012514943+1012975167+1013742719+1014178111
1666+1014084223+1013856319+1013903551+1014302015+1014762943+1014984063
1657+1014879231+1014478655+1013515519+1011244991+1008242175+1005925375
1649+1004388991+1003546687+1003269823+1002946367+1002328447+1001760255
1640+1001603967+1002069695+1003380671+1005613247+1007848063+1008968063
1632+1009151679+1009000255+1008889151+1008943935+1009219327+1009927103
1623+1011058751+1011866623+1011587647+1010045055+1006945663+1001674559
1615+994255679+985512639+976870655+970915391+970226687+974724735+981681855
1605+988458303+993837951+997416895+998923775+998328895+996298367+994164927
1595+993186303+993726463+995295423+997348735+999635263+1001869503+1003690751
1585+1004875967+1004677695+1001202431+993072127+981550143+970303807+964562751
1575+967307967+974432127+981612543+988615423+995697919+1001559551+1005481727
1565+1008168767+1010105599+1011316415+1012037503+1012966399+1014382783
1557+1015163583+1015108223+1014993343+1015528639+1017155711+1019791167
1548+1022641151+1024693567+1025291135+1023952191+1019736127+1010656959
1540+997239615+986618879+982314495+982773311+986853567+992869759+998178303
1530+1002304127+1006819519+1012998591+1020368639+1027785535+1035976511
1521+1046413439+1057868543+1067814783+1073741823+1070855167+1054611839
1513+1026154303+991172031+956194111+925376191+903630719+898995711+906749375
1503+916649727+924856639+928997759+925959103+915114751+902202879+894120767
1493+891942719+894004351+899832447+909519871+921437951+933219775+943888639
1483+953956735+964437247+975594623+986959423+998317631+1010085311+1023566655
1473+1037117759+1036797567+1007717503+955148863+897415359+856720383+849323967
1463+866957951+888258239+905433855+922340415+943108479+961609023+966457343
1453+955615231+931746687+901167551+876410751+870420159+884234111+904568959
1443+914640959+904216319+876667519+847436159+833322879+840694911+857924799
1434+871454655+879815423+885648703+889862015+892332671+893689407+895435007
1424+898912511+904530431+912419071+922564863+932980159+940977791+946573567
1414+950853311+953969087+955397887+954605055+951181375+944874367+936573695
1404+929210879+925596735+926105023+929613887+934765951+940473215+946148351
1394+951152959+954726015+956956735+958816575+961172159+963985215+966620927
1384+968907071+971213567+973873663+976902015+980074495+983284927+986714687
1374+990461055+994171583+997357311+999663423+1000720319+1000434431+999553791
1364+999659455+1002418687+1008110399+1015305599+1022656895+1029714047
1356+1036227263+1041408511+1043168127+1036943103+1015676479+974277055+917719103
1346+863556671+831421951+828153855+844860159+866205759+881382463+889346047
1336+893837183+895859519+893963711+889363583+887137983+891302591+900820799
1326+911665855+920912959+927813567+932596351+935765247+938220671+940952255
1316+944198591+947318079+949609535+951036991+952200703+953804991+956194751
1306+959257855+962649279+966004351+969002495+971456703+973309887+974369599
1296+974202431+972554815+969827199+966799295+963531583+958742335+951296191
1286+942767039+937367615+938382399+945219519+954433663+963006591+969994111
1276+975625087+980088511+983446207+985945727+987940415+989713023+991575423
1266+993918207+996685375+998424191+996261439+988167743+976014015+965390335
1256+961459903+965424383+974759615+985571711+994380543+998542207+995870847
1247+984448063+963649151+936108735+908346879+888259455+880825407+885506495
1237+897516095+911610943+924815167+936352319+946271039+954418815+960088255
1227+962600127+962577023+962265087+964006015+968509247+974821567+981572479
1217+987838783+993065727+996817279+998890367+999490943+999075775+997322303
1207+991460607+977064319+953490239+928209919+912168703+910158399+918177471
1197+929555583+940160767+947696063+949842687+945542847+937070143+928630527
1187+922178687+915995967+908483519+901890175+900585279+906470719+917463039
1177+929962751+941633215+951873599+960723199+968037951+973150207+974541503
1167+970672447+962384767+953766335+949069247+948641407+948566015+944718271
1157+937504127+932270015+934275263+943747199+956662271+969124799+979588543
1147+987605183+991234047+985795967+967250175+938916095+912666943+900109247
1137+903266623+915428095+929026943+940540927+949621823+956723263+962290239
1128+966924927+971242815+975442879+979302143+982574207+985234879+987475839
1118+989578815+991678719+993592703+994916479+995369151+994892991+992439167
1108+984390207+966862015+942190335+920983999+914044607+922749247+939410175
1098+955644543+968175679+977915647+986593727+994709567+999988991+996392703
1088+978134591+948351103+920848383+908225407+909738367+914689151+915178879
1078+911336511+906900543+904959551+907474431+915064447+926187391+937894079
1068+947914751+955672959+961593087+966233407+970089855+973531391+976653439
1058+979395775+981772351+983862271+985702591+987297535+988696127+990012031
1048+991341887+992729855+994333119+996462783+999254079+1002435839+1005465663
1038+1007466815+1007133567+1003839167+999019071+994465919+988516415+977022015
1028+960319359+946187519+942702271+949980479+960944127+968211775+969187711
1018+966801215+966427135+970959295+978760511+986590527+993286399+999664767
1009+1005382335+1007388671+1003055743+994270847+985455103+976983551+963994623
999+943500607+920409151+904575423+902412223+911942783+925535807+936672127
989+943850559+949204863+955158783+962434431+969890751+975767039+979431679
979+981943295+984887551+988959935+993701695+998249087+1002116159+1005364607
969+1008206655+1010601087+1012221247+1012262207+1008950463+1000551039+988193983
959+975985407+966178751+956199999+942659519+925439039+905740479+884441919
949+865411647+855962111+860089343+873794303+889418879+902513791+912960639
939+921265663+926187199+926696831+925121215+926335743+932956927+941953663
929+946808575+943722559+936136191+932277375+937210495+948186495+958657279
919+965076735+968311359+970395647+972281599+974151935+976173887+978498495
909+980909375+982867647+984086207+984861887+985678463+986742975+987998527
899+989308735+990572735+991771391+992871679+993769343+994444159+995025535
890+995650111+996387775+997249919+998182719+999121279+999994111+1000652799
880+1001009855+1001168191+1001169663+1000817599+999880831+998243519+996070015
870+994207871+993939583+995806719+999097023+1002688831+1005772223+1007817855
860+1008781247+1009154815+1008643775+1005129087+996735679+985130175+975097215
850+970480767+971739519+977108735+984395327+991662271+997674751+1002104255
840+1005007871+1006485695+1007087807+1007897535+1009617983+1011800191
832+1013467327+1014458623+1015589951+1017425727+1019600383+1021502399
823+1022983359+1024243711+1025492031+1026825279+1028241279+1029700159
815+1031135871+1032461567+1033697919+1035044927+1036672575+1038391871
806+1039754943+1040577983+1040192447+1034855423+1018034303+987601151+952886207
796+930326079+930223807+949151231+974970303+997246399+1012709567+1023175487
786+1030969215+1036384191+1036931519+1028768127+1012099903+994787839+985245119
776+980495679+965322367+924089279+851466879+754981503+653235711+570702463
766+526932320+525441856+552372159+587305919+617416319+643121279+671726335
756+707517823+748465407+789808319+827880895+860945727+888728383+912063935
747+932285759+950249215+965807039+978491647+988652095+997201919+1004321663
737+1009089151+1007840639+989164159+935803711+844205567+743514175+681222527
727+682980543+733879487+800485503+860126079+906539327+940883135+966102335
717+985370751+1000883775+1013761023+1024044735+1029223999+1022593855+994459263
707+940560127+875003455+829145791+825961087+857031167+893436543+915363199
697+921986111+915739711+888997567+830819007+743044671+647311103+575474559
687+549959551+570594303+619765055+677393791+730081279+772434623+804176447
677+823459007+823331135+801190911+770202111+751421055+759499519+797685759
667+847525951+884779007+908258751+919391807+910563583+881144447+850234111
657+840938239+857317311+885166463+910512831+929271359+942864575+952938751
647+960664959+967169983+973497791+980383103+987432767+992141375+989128575
637+969144959+920951935+842165375+753071935+691934911+686289407+729195967
628+788942463+838834367+872217663+894704127+911494399+922619775+925749631
618+922139775+918712191+922039999+931998591+943609279+952875135+959105151
608+963308031+966432895+969217727+972389311+976228095+980319295+983922879
598+986350207+987481663+988279423+990003647+992775999+995848383+998999231
588+1002520639+1006369151+1010224447+1014263807+1019274751+1023663231
579+1018679103+991812031+942418943+891647935+866355903+873342783+898098815
569+923742015+943277823+957098047+966690559+972973567+976722431+978306111
560+977975295+976823295+976774143+979211327+983597183+987826047+990371711
550+991819199+993861119+997153471+1000536447+1002169471+1001410431+999702911
540+999358207+1001360831+1004720895+1007897599+1010215359+1011825215+1012820863
530+1012829503+1011671935+1010345919+1010674047+1013156287+1015996927
521+1017220095+1016758911+1015910335+1015417343+1015236607+1015704383
513+1017202687+1018977855+1019005055+1014444863+1002817279+984804543+966015679
503+954303295+952109823+948429311+922809151+863319167+783680767+720866943
493+707902079+746818751+810252607+869013183+911957119+941358207+961612479
483+975405183+984695871+991186559+996070399+1000149567+1003935039+1007595647
473+1011107775+1014514687+1017885951+1020962943+1023138687+1023833087
465+1021992831+1014725247+997965695+969877951+934263935+902359679+887065151
455+891368255+908601663+929298111+945572351+955022911+960170815+964617279
445+970890943+979352639+987788415+993759423+997279295+999879871+1002781695
435+1006574911+1011251199+1016492479+1022150335+1027618815+1031145343
426+1031306815+1029365055+1028881087+1031816767+1036012223+1036984703
418+1033681535+1030234623+1028451903+1026956671+1024694143+1022243839
409+1021289279+1022886399+1025835903+1027511231+1027155071+1026996991
401+1028980223+1031528959+1031714239+1031946879+1036249279+1041003007
392+1040195455+1033413823+1025249791+1020245119+1020651711+1025786623
384+1030638783+1031017919+1030335999+1034571519+1045473471+1060130559
375+1071811839+1073741823
##END=

$$ === CHEMSPECTRA PEAK ASSIGNMENTS AUTO ===
##TITLE=JPK-023_PEAK_ASSIGNMENTS
##JCAMP-DX=5.00
##DATA TYPE=PEAK ASSIGNMENTS
##DATA CLASS=ASSIGNMENTS
##THRESHOLD=0.93
##MAXX=3997.453
##MAXY=1.0000000048502633
##MINX=373.96442
##MINY=0.48935586496990846
##NPOINTS=45
##PEAK ASSIGNMENTS=(XYA)
(3062.541951211884, 0.9199561520582288, <1>)
(1609.180229913995, 0.9035940213216924, <2>)
(1595.014910992963, 0.9249768301306217, <3>)
(1576.5999963956215, 0.8983190698332175, <4>)
(1536.9371034167316, 0.914851669854797, <5>)
(1505.7734017904609, 0.8372550049774543, <6>)
(1493.0246147615321, 0.830686394271295, <7>)
(1464.6939769194682, 0.7909945882022749, <8>)
(1447.6955942142295, 0.8106419481638902, <9>)
(1437.779870969507, 0.7760924136433078, <10>)
(1402.3665736669273, 0.8620291392797763, <11>)
(1342.8722341985927, 0.7712783848755459, <12>)
(1330.1234471696635, 0.8262116351435561, <13>)
(1284.7944266223608, 0.8729916256102467, <14>)
(1256.463788780297, 0.8954293174285097, <15>)
(1239.4654060750586, 0.82033259057679, <16>)
(1223.883555261923, 0.8961792034687645, <17>)
(1199.8025130961687, 0.8476510683653494, <18>)
(1181.3875984988272, 0.8387354055482997, <19>)
(1155.8900244409692, 0.8682441156264387, <20>)
(1138.891641735731, 0.8382920661978972, <21>)
(1102.0618125410474, 0.8512703816263261, <22>)
(1083.6468979437059, 0.8458508292687901, <23>)
(1075.1477065910867, 0.8428092638329615, <24>)
(1025.5690903674745, 0.8779599111995792, <25>)
(1017.0698990148553, 0.9000554127502083, <26>)
(994.4053887412038, 0.8404368797478953, <27>)
(947.6598363017979, 0.7971768415987663, <28>)
(934.9110492728691, 0.8615862767665347, <29>)
(924.9953260281468, 0.8682509701606275, <30>)
(868.3340503440186, 0.9256783768036841, <31>)
(849.9191357466766, 0.9038306517628188, <32>)
(794.6743919546516, 0.866338435912662, <33>)
(764.9272222204845, 0.48935586496990846, <34>)
(728.097393025801, 0.6344379213997596, <35>)
(702.5998189679435, 0.7692362105244445, <36>)
(687.0179681548084, 0.5121897479329616, <37>)
(671.4361173416728, 0.6998153956089219, <38>)
(657.2707984206409, 0.7831847703661365, <39>)
(630.3566924706797, 0.63915682115391, <40>)
(616.1913735496478, 0.8556174079995728, <41>)
(573.6954167865515, 0.8068568147801897, <42>)
(556.6970340813132, 0.9096918149360489, <43>)
(492.953098936669, 0.6592851906016438, <44>)
(456.1232697419855, 0.8261438050574096, <45>)
##END=


$$ === CHEMSPECTRA PEAK ASSIGNMENTS EDIT ===
##TITLE=JPK-023_PEAK_ASSIGNMENTS
##JCAMP-DX=5.00
##DATA TYPE=PEAK ASSIGNMENTS
##DATA CLASS=ASSIGNMENTS
##THRESHOLD=0.93
##MAXX=3997.453
##MAXY=1.0000000048502633
##MINX=373.96442
##MINY=0.48935586496990846
##NPOINTS=0
##PEAK ASSIGNMENTS=(XYA)
##END=

##END=

