##TITLE=HMS-Q231
##JCAMP-DX=4.24
##DATA TYPE=INFRARED SPECTRUM
##DATE=15/4/2021
##SAMPLING PROCEDURE=Diamant-ATR
##ORIGIN=Angelika Moesle
##XUNITS=1/CM
##YUNITS=TRANSMITTANCE
##RESOLUTION=4
##FIRSTX=3997.453
##LASTX=373.96442
##DELTAX=-1.4165319
##MAXY=0.90984172
##MINY=0.30654341
##XFACTOR=1
##YFACTOR=8.4735613e-010
##NPOINTS=2559
##FIRSTY=0.90900302
##XYDATA=(X++(Y..Y))
3997+1072752042+1072642871+1072784399+1072885692+1072894344+1072994651
3989+1073182183+1073280380+1073249852+1073162979+1073065767+1073052894
3980+1073243802+1073567305+1073741823+1073547117+1073049026+1072564651
3972+1072366357+1072404272+1072390836+1072152448+1071820152+1071668073
3963+1071758885+1071817620+1071626501+1071450857+1071674474+1072146398
3955+1072377120+1072256624+1072131767+1072282721+1072621558+1072847918
3946+1072764000+1072408914+1071930167+1071532173+1071502348+1071968574
3938+1072654126+1073130200+1073182816+1072783696+1072001846+1071182925
3929+1070794145+1070881018+1071091270+1071174062+1071174977+1071184613
3921+1071124119+1070844651+1070353524+1069872385+1069613949+1069565061
3912+1069615426+1069785513+1070193566+1070830934+1071476603+1071807210
3904+1071525842+1070578829+1069383790+1068664122+1068903144+1069921343
3895+1071053426+1071606032+1071200229+1070184703+1069520957+1069626118
3887+1070022917+1070194340+1070135112+1069866828+1069092364+1068045676
3878+1067681938+1068190299+1068734816+1068815146+1068764078+1068831395
3870+1068755215+1068593710+1068792707+1069274620+1069432959+1068884785
3861+1067978570+1067502918+1068047927+1069637654+1071654779+1072830684
3853+1072032163+1070340581+1069497181+1069547406+1069970371+1070370406
3844+1070421966+1070039799+1069519550+1069048400+1068415815+1067690520
3836+1067484699+1067911745+1068287512+1068081973+1067558418+1067320240
3827+1067565944+1068170111+1069074427+1070126812+1070800687+1070721693
3819+1070279735+1069738454+1068894422+1068085841+1067914278+1068171025
3810+1068377831+1068506486+1068654204+1068633172+1068383247+1068250934
3802+1068527448+1068979184+1068971868+1068288918+1067370746+1066808714
3793+1066774598+1067061171+1067507420+1068083590+1068744875+1069312534
3785+1069519339+1069320623+1069008446+1068815568+1068682833+1068465899
3776+1068137965+1067847875+1067899506+1068356798+1068621987+1067996648
3768+1066793450+1065988598+1066025949+1066732815+1067791250+1068766259
3759+1069140267+1068974752+1069162635+1070307802+1071971669+1072998942
3751+1072371914+1070580165+1069135976+1068265565+1067157821+1065805075
3742+1065406940+1066218475+1067321506+1067970903+1067893527+1067251938
3734+1066595437+1066385185+1066605355+1067008696+1067354567+1067435742
3725+1067232453+1066978238+1066828198+1066729368+1066627935+1066462983
3717+1066180983+1065910940+1065770045+1065494375+1064722021+1063829171
3708+1063669144+1064496786+1065886250+1067098874+1067394732+1066588544
3700+1065427410+1064871427+1065183323+1065943157+1066593679+1066948483
3691+1067144596+1067110903+1066458974+1065290665+1064417722+1064440091
3683+1065261192+1066233598+1066702075+1066501249+1065707230+1064446422
3674+1063541543+1063969292+1065438524+1066863651+1067398742+1067116882
3666+1066580454+1066146163+1065946181+1065856777+1065553040+1064879657
3657+1064115885+1063893112+1064629099+1066015327+1067296676+1067661891
3649+1066810613+1065706667+1065476297+1066014905+1066546479+1066478388
3640+1065843834+1065264006+1065293619+1065826741+1066310693+1066412337
3632+1066162905+1065509077+1064374110+1063348877+1063156492+1063674701
3623+1064536811+1065435640+1065817807+1065233547+1064208947+1063634746
3615+1063447426+1063108448+1062612608+1062374008+1062581869+1063115271
3606+1063660491+1063812500+1063434483+1062820679+1062314569+1061942109
3598+1061675373+1061737836+1062249644+1062956228+1063630737+1064280485
3589+1064771401+1064802211+1064417863+1063975131+1063494063+1062826799
3581+1062223336+1062166500+1062709891+1063309978+1063433217+1063143478
3572+1062949546+1063169786+1063588321+1063604429+1062801546+1061641186
3564+1060997769+1061089565+1061577457+1062145327+1062616688+1062865417
3555+1062942441+1063059772+1063242661+1063240480+1062854936+1062140473
3547+1061435225+1061295386+1061900818+1062603604+1062656150+1062109101
3538+1061636051+1061694998+1062058314+1062165796+1061854604+1061517807
3530+1061509295+1061688386+1061714553+1061488333+1061076482+1060534708
3521+1059970988+1059536768+1059344523+1059503988+1060007636+1060490041
3513+1060490533+1060111672+1060010520+1060479138+1060937556+1060724702
3504+1059954810+1059281708+1059117389+1059359295+1059692434+1059810538
3496+1059490623+1058745914+1057834282+1057024928+1056523602+1056579453
3488+1057309391+1058380065+1059242387+1059738086+1060144311+1060604347
3479+1060878047+1060767751+1060434330+1060089725+1059618364+1058831520
3471+1057982634+1057613550+1057867976+1058350381+1058674868+1058776301
3462+1058705889+1058489447+1058158348+1057747692+1057384868+1057350612
3454+1057795876+1058486352+1059020528+1059114927+1058670296+1057897520
3445+1057277948+1057055387+1057013041+1056929615+1056867222+1056892545
3437+1056949452+1057062421+1057308617+1057579715+1057622483+1057345195
3428+1057009172+1057021130+1057425596+1057717234+1057455351+1056918149
3420+1056744053+1057020356+1057231593+1057051799+1056679901+1056380245
3411+1056113719+1055778470+1055504418+1055486973+1055652066+1055675278
3403+1055349103+1054862196+1054667349+1055041216+1055759478+1056283243
3394+1056337407+1056217614+1056362589+1056693055+1056716479+1056355555
3386+1056215152+1056747500+1057513875+1057670104+1056954587+1055878707
3377+1055113106+1054928247+1055109518+1055185558+1054755136+1053792507
3369+1052742021+1052229439+1052502929+1053115818+1053316644+1052870747
3360+1052329184+1052343815+1052920056+1053505231+1053611236+1053205574
3352+1052686029+1052540702+1052880524+1053396693+1053836611+1054204851
3343+1054425021+1054287081+1053836330+1053387056+1053118139+1052973727
3335+1052875037+1052818412+1052887207+1053227661+1053854900+1054499865
3326+1054787001+1054571262+1054064871+1053641975+1053528021+1053678764
3318+1053939803+1054202319+1054392594+1054473557+1054471095+1054347997
3309+1053938607+1053234836+1052586143+1052315186+1052275162+1052141582
3301+1051968260+1052003572+1052119847+1051984720+1051710527+1051794656
3292+1052376946+1052936165+1052846057+1052097970+1051348266+1051201111
3284+1051552821+1051838479+1051817658+1051770881+1051925844+1052055836
3275+1051777141+1051060920+1050293841+1049859339+1049807849+1049994185
3267+1050400128+1051087790+1051858316+1052259686+1052100714+1051725791
3258+1051581942+1051728253+1051930908+1051967064+1051719812+1051273001
3250+1050956321+1051011469+1051284326+1051442806+1051310704+1050885065
3241+1050291379+1049749887+1049376231+1049122930+1049030641+1049211490
3233+1049507489+1049567350+1049357872+1049220424+1049366172+1049619262
3224+1049733779+1049745526+1049898238+1050287440+1050705482+1050898500
3216+1050858124+1050764780+1050732704+1050728273+1050652655+1050448453
3207+1050170250+1049940021+1049768458+1049526059+1049155639+1048764890
3199+1048439277+1048165225+1048000554+1048099737+1048519326+1049166894
3190+1049927782+1050665528+1051102562+1050911373+1050032662+1048830589
3182+1047845239+1047412285+1047531233+1047953847+1048311817+1048320469
3173+1048017155+1047709198+1047597988+1047572313+1047460891+1047315354
3165+1047294322+1047389635+1047465253+1047491490+1047519275+1047452661
3156+1047111714+1046553762+1046103926+1045996865+1046154501+1046363276
3148+1046540608+1046704716+1046736721+1046411812+1045760024+1045151637
3139+1044841499+1044698072+1044568784+1044597835+1044913881+1045290914
3131+1045396567+1045185049+1044828908+1044445193+1044064081+1043733403
3122+1043490724+1043292008+1043062271+1042767046+1042387622+1041893189
3114+1041303231+1040749500+1040403277+1040280390+1040148358+1039760071
3105+1039194311+1038769586+1038575794+1038355554+1037935683+1037447369
3097+1036996548+1036455900+1035719139+1034851542+1033884693+1032719831
3088+1031308350+1029776022+1028404706+1027546676+1027392135+1027703046
3080+1027920191+1027647757+1026950317+1026142862+1025399700+1024650981
3071+1023809903+1022985003+1022422057+1022288618+1022533690+1022939773
3063+1023349374+1023808074+1024385300+1024980392+1025518508+1026154117
3054+1026985136+1027772262+1028229485+1028376148+1028383885+1028325361
3046+1028224631+1028135578+1028105542+1028195932+1028462246+1028823241
3037+1029131549+1029414605+1029843761+1030522561+1031472739+1032635280
3029+1033705250+1034274387+1034331504+1034324892+1034588956+1035000878
3020+1035272398+1035311226+1035224284+1035167518+1035252843+1035518102
3012+1035927984+1036397657+1036836661+1037187878+1037404179+1037450464
3003+1037367461+1037222627+1036975868+1036575622+1036179457+1036041586
2995+1036222576+1036589691+1036993523+1037324904+1037584958+1037912681
2986+1038306877+1038461911+1038184131+1037746604+1037504417+1037417052
2978+1037236836+1036890684+1036449780+1035988689+1035631071+1035498195
2969+1035514092+1035461266+1035264168+1035069110+1035041817+1035193685
2961+1035372424+1035323607+1034809618+1033801408+1032567611+1031476045
2952+1030674640+1030055279+1029510552+1029060996+1028715899+1028437345
2944+1028285055+1028352653+1028512681+1028526820+1028487077+1028766404
2935+1029357628+1029698575+1029492403+1029311273+1029894056+1031122366
2927+1032187764+1032620860+1032668551+1032712515+1032811838+1032920727
2918+1033124297+1033419733+1033559502+1033388008+1033131331+1033117544
2910+1033411432+1033913462+1034585157+1035372072+1036097508+1036567392
2901+1036683316+1036446615+1035975535+1035482509+1035129322+1034947207
2893+1034936656+1035117083+1035382412+1035437349+1035070024+1034455447
2884+1034014473+1033981202+1034257645+1034621594+1034880031+1034883618
2876+1034626167+1034302946+1034082424+1033895033+1033639199+1033463837
2867+1033577650+1033899535+1034182872+1034329535+1034322008+1034084182
2859+1033691041+1033466158+1033597135+1033867248+1033928727+1033660161
2850+1033205541+1032838708+1032781309+1033073580+1033596220+1034128216
2842+1034369911+1034155509+1033734794+1033562808+1033735005+1033929993
2833+1033950673+1033981413+1034223811+1034581359+1034824179+1034871660
2825+1034794354+1034663377+1034508274+1034382432+1034370333+1034516293
2816+1034747928+1034869409+1034681666+1034209602+1033772638+1033673878
2808+1033833624+1033908468+1033727971+1033400529+1033048679+1032700698
2799+1032404769+1032221388+1032117493+1031999529+1031839642+1031724633
2791+1031791177+1032079930+1032430585+1032604118+1032518020+1032280827
2782+1032022391+1031781540+1031538579+1031307576+1031194537+1031328960
2774+1031678559+1032000725+1032072122+1031928132+1031779781+1031736451
2765+1031729417+1031672510+1031567490+1031448049+1031363990+1031416676
2757+1031658582+1031952963+1032057069+1031863840+1031501368+1031193060
2748+1031040910+1030968388+1030873215+1030790493+1030832839+1031013125
2740+1031202485+1031231396+1031011929+1030636585+1030359649+1030383635
2731+1030634826+1030799989+1030610136+1030107543+1029641247+1029554867
2723+1029862402+1030252870+1030408255+1030288955+1030118446+1030123441
2714+1030314348+1030524460+1030591707+1030445888+1030110427+1029739866
2706+1029581034+1029771168+1030193220+1030587838+1030781419+1030759472
2697+1030564133+1030212775+1029776374+1029442461+1029365788+1029461242
2689+1029471371+1029255562+1028921930+1028659766+1028530407+1028470757
2680+1028420463+1028363064+1028281538+1028176658+1028128755+1028256285
2672+1028573527+1028922634+1029077245+1028931849+1028579858+1028217316
2663+1028008963+1028017263+1028189812+1028403229+1028547149+1028555379
2655+1028425598+1028284351+1028326205+1028581546+1028847720+1028898858
2646+1028645768+1028140221+1027610335+1027374549+1027525503+1027830365
2638+1028049269+1028164067+1028241724+1028303133+1028359336+1028391341
2629+1028332325+1028216190+1028225827+1028441495+1028640844+1028535191
2621+1028167584+1027938129+1028186647+1028794752+1029249653+1029113401
2612+1028400205+1027523322+1026985418+1027047319+1027496100+1027779086
2604+1027601402+1027264112+1027173160+1027291616+1027375815+1027422804
2595+1027551670+1027705156+1027722531+1027560533+1027333751+1027180195
2587+1027103592+1027054845+1027180617+1027676738+1028285758+1028398235
2578+1027845559+1027141788+1026746959+1026554855+1026332012+1026238105
2570+1026556473+1027182234+1027707126+1027833319+1027521775+1027020940
2561+1026844101+1027267559+1027802509+1027711698+1027029100+1026513986
2553+1026651153+1027180335+1027554484+1027508199+1027161765+1026736478
2544+1026345729+1026092146+1026088770+1026248516+1026399610+1026599241
2536+1026916553+1027113510+1027036697+1026977962+1027140944+1027198202
2527+1026837418+1026349527+1026297474+1026835027+1027589655+1028107160
2519+1028221677+1027976676+1027465220+1026936108+1026762223+1027021081
2510+1027297525+1027127368+1026524256+1025959833+1025849255+1026132382
2502+1026496331+1026933928+1027674487+1028511345+1028761832+1028144441
2493+1027277196+1027003003+1027432019+1027914564+1027923005+1027655213
2485+1027577415+1027686234+1027619128+1027317361+1027136934+1027320175
2476+1027667594+1027788933+1027538376+1027128704+1026828415+1026637366
2468+1026360993+1025972213+1025711948+1025716168+1025721233+1025388938
2459+1024824585+1024474986+1024540615+1024773095+1024883531+1024924541
2451+1025132542+1025508167+1025760765+1025677621+1025306075+1024761558
2442+1024189679+1023893539+1024096687+1024599631+1025023090+1025253037
2434+1025324434+1025118403+1024520778+1023692010+1022941532+1022467709
2425+1022315419+1022435914+1022729310+1023134339+1023667460+1024285906
2417+1024747209+1024754384+1024259388+1023535921+1022933583+1022606845
2408+1022457861+1022295793+1022053254+1021836531+1021736786+1021654838
2400+1021427071+1021113627+1020985324+1021136488+1021324934+1021366928
2391+1021409274+1021545245+1021510426+1021131424+1020743558+1020762058
2383+1021124530+1021490801+1021733199+1021946968+1022198792+1022536996
2374+1023067725+1023794709+1024551588+1025234678+1025867474+1026367112
2366+1026575676+1026522638+1026267086+1025591593+1024385018+1023086155
2357+1022174172+1021493614+1020595770+1019427391+1018292917+1017458732
2349+1017072274+1017221891+1017834499+1018586524+1019147712+1019389899
2340+1019220023+1018635341+1017961747+1017599135+1017569099+1017542580
2332+1017252841+1016824389+1016646916+1016796815+1016815878+1016342406
2323+1015690759+1015428313+1015584472+1015824971+1016092763+1016509890
2315+1016969082+1017263463+1017397324+1017524432+1017680591+1017695151
2306+1017411181+1017033586+1017087116+1017771402+1018564226+1018827304
2298+1018589760+1018287571+1018011479+1017601808+1017243556+1017301448
2289+1017670110+1017885145+1017852577+1018007047+1018732905+1019919151
2281+1021093369+1021873109+1022270470+1022546703+1022859302+1023186814
2272+1023469448+1023596626+1023359433+1022615568+1021490378+1020404159
2264+1019851975+1019991604+1020468522+1020807992+1020908721+1021056017
2255+1021539899+1022201676+1022410802+1021767033+1020674342+1019856336
2247+1019689485+1020294144+1021574156+1022867814+1023317439+1022744786
2238+1021619386+1020424558+1019492809+1018987473+1018658906+1017849200
2230+1015936252+1012873636+1009261016+1005558711+1001576304+997462990+994473389
2220+993703919+994910353+997426835+1001091085+1005534443+1009733221+1012910987
2210+1015141037+1016891143+1018476439+1019869279+1020842811+1021410329
2201+1022026665+1023168103+1024728849+1025911438+1025858259+1024514377
2193+1022585743+1020607517+1018692670+1017345904+1017472027+1018967144
2184+1020314543+1020456915+1020073904+1020099367+1020305961+1020354357
2176+1020869259+1022301350+1023604223+1023199124+1020993202+1018680923
2167+1017805025+1018038138+1018234111+1018675225+1020680462+1024063485
2159+1026692936+1027020378+1025652931+1024073544+1023145312+1022907346
2150+1023023269+1023036212+1022221794+1020115405+1017564245+1016221277
2142+1016677304+1018013308+1019241407+1020309338+1021560158+1022741480
2133+1022911496+1021550028+1019493372+1018125362+1017749877+1017387476
2125+1016208405+1014594832+1013611663+1013775278+1014496283+1014688879
2116+1013863206+1012467130+1011237764+1010613621+1010734327+1011418191
2108+1012042335+1012048033+1011714964+1011901792+1012930191+1014195782
2099+1014869587+1014594761+1013569106+1012296691+1011277015+1010757259
2091+1010760073+1011206392+1011840313+1012219315+1012113662+1011846433
2082+1011961020+1012592972+1013408797+1014086471+1014519566+1014563952
2074+1014013386+1012922031+1011684998+1010815713+1010831470+1012056615
2065+1014097796+1015773481+1016180971+1015640675+1015038408+1014625501
2057+1014175172+1013908295+1014282021+1015072453+1015652000+1015876321
2048+1015798312+1015055853+1013671805+1012774243+1013419981+1015373024
2040+1017450221+1018470178+1017938112+1016294644+1014531735+1013578532
2031+1014029635+1015764758+1017756419+1019128016+1020050128+1020861452
2023+1021270490+1021011350+1020166755+1018785240+1017278094+1016667315
2014+1017264940+1018060507+1018315848+1018551705+1019209894+1019519258
2006+1018647088+1016985472+1015499499+1014741917+1014714132+1014759221
1997+1013925951+1012281287+1011203578+1011620565+1012688285+1012907470
1989+1011797686+1010044414+1008744355+1008534877+1009095783+1009718168
1980+1010167442+1010554956+1010766052+1010506771+1009826073+1009355978
1972+1009731463+1010731936+1011548254+1011771026+1011388226+1010362992
1963+1009101551+1008491194+1008806607+1009353375+1009342472+1008420712
1955+1006665400+1004640819+1003084927+1002397123+1002634176+1003645411
1946+1004997031+1006192140+1007066067+1007745429+1008322444+1008685971
1938+1008665431+1008365142+1008135686+1007983607+1007408210+1006145151
1929+1004656365+1003722506+1003872123+1005045918+1006439532+1007009372
1921+1006565303+1005868989+1005574960+1005653602+1005844299+1006020083
1912+1005981184+1005515521+1004762089+1004026594+1003307137+1002484207
1904+1001712908+1001168883+1000724956+1000196969+999485391+998345922+996680929
1894+995137135+994630392+995267268+996295244+996937818+996934512+996450348
1884+995962598+996084008+997007316+998202917+998963524+999194034+999449376
1874+1000160040+1001037696+1001430274+1001175425+1000948924+1001426827
1866+1002319536+1002866515+1002770287+1002342679+1002035566+1001994205
1857+1002044288+1001976760+1001808362+1001761092+1001948061+1002209803
1849+1002395224+1002596261+1002883749+1003015921+1002761354+1002292947
1840+1001821375+1001306894+1000730583+1000270758+1000054949+999970961+999850676
1830+999647599+999362925+998957404+998469020+998134263+998207137+998599716
1820+998892338+998770013+998375044+998114849+998166832+998374199+998466066
1810+998256588+997849801+997617461+997775660+998125471+998321584+998272485
1800+998186246+998288312+998616105+999091546+999600681+999953305+999998535
1790+999913773+999967092+1000035886+999775270+999104067+998364633+997939064
1781+997869285+997918806+997915430+997942933+998131450+998401844+998525013
1771+998393684+998051682+997569347+997079627+996685923+996301575+995792018
1761+995271277+995002009+994997296+995015444+994898887+994736398+994660288
1751+994662398+994643265+994556885+994439695+994305202+994081796+993696252
1741+993205125+992758664+992436569+992224558+992078247+991930107+991746233
1731+991488219+991003493+990231069+989316624+988307851+987109998+985853059
1721+984715701+983337070+980870882+976898394+972087922+967027947+961325048
1711+954263846+945468786+934373124+919503127+900560685+880047860+858077410
1701+829277605+791833976+754367837+720059768+684472110+650738524+624472364
1691+604293944+587905582+576341548+571129424+574110092+588127194+610176146
1681+633480982+657025613+681971807+709334949+739967934+770870751+796855192
1672+818118424+838304722+857510102+872825927+884151677+893546964+902233486
1662+909959981+916107583+920807055+924554590+927716389+930713165+933787176
1652+936235075+937913784+939680421+942035328+944623277+946784532+948544205
1642+950265612+952133893+954082504+955917232+957493735+958739560+959686081
1632+960499867+961304930+962121881+962975550+963840826+964439365+964434300
1622+963906244+963192625+962176677+960010779+955640859+949033714+940582204
1612+929710300+915895009+900441385+886381656+876255798+870773209+869809666
1602+873605456+882017785+892965377+903065279+910373944+915896205+921968611
1592+929634331+938056719+945765840+951902609+956552209+960187408+963049620
1582+965137860+966467885+967054255+966596892+964510199+961179158+958293030
1572+956706961+956286809+957017169+958953259+961748928+964876610+967848134
1562+970394722+972658606+974762673+976017854+976104445+975908894+975925073
1553+976141163+976471207+976886084+977358641+977811854+978134231+978266614
1543+978239532+978020136+977639516+977494893+977657735+977729835+977501224
1533+977218660+977154087+977112937+976662045+975482341+973655843+971309940
1523+967665526+961248656+950403341+930999105+896031229+842999200+780308595
1513+722632523+684310324+675503025+699539206+749217121+796179065+816918884
1503+818309965+810264117+796421182+780578778+770689902+774574464+791503650
1493+815507262+842826933+870079497+890349713+897543580+891994588+878211795
1483+862708510+853286141+855403784+868406275+887099073+905953588+921560065
1473+933045702+940892201+945862349+948913640+950868231+952092532+952548347
1463+952012201+950299728+946883503+939490357+923664554+899617681+876501924
1453+860392432+852443164+853202856+860962131+869832949+873833434+873185726
1443+873039766+876953449+883930100+891306996+898301655+905445930+912229282
1434+917733114+921943147+924988741+926782178+927456124+927368618+926864759
1424+926305189+925839033+924959830+922513057+917655104+910755970+902341461
1414+892409887+881235372+869809174+859414891+851006149+845080406+842059925
1404+842217772+845234877+850592117+857892340+866450277+875575311+885092289
1394+894589642+903144273+910460534+917078512+923462110+929437303+934554185
1384+938787853+942426710+945536807+947921116+949448591+950032921+949197751
1374+946015624+939799018+930612506+919192216+907321668+897729916+892360296
1364+891262822+893098534+895899901+898058623+898917357+898369253+896597552
1354+894310666+892717985+893031076+895950476+901379254+908476752+916095835
1344+923308554+929713325+935325484+940142216+943892002+946296288+947339951
1334+947091996+945427355+942019290+936553512+928946880+919421882+908531408
1324+897227112+886791960+878460665+873008464+870655387+871241124+874463627
1315+879984341+887306089+895648358+904069339+911706712+917920082+922320109
1305+924689928+924930919+923198891+920063260+916432492+913293695+911370970
1295+910792900+911050211+911376386+911206510+910345244+908839927+906780949
1285+904173797+900953263+897124483+892909174+888753866+885164671+882447926
1275+880521331+878968885+877309450+875182943+872281269+868205589+862475115
1265+854618628+844232505+831049517+815042091+796465568+775766337+753419698
1255+729843202+705417327+680536762+655606395+630997631+607069495+584226770
1245+562867697+543275718+525628727+510097622+496888502+486208244+478185856
1235+472768087+469621553+468103750+467388830+466762612+465885835+464819452
1225+463833962+463096497+462344648+460809154+457554434+451972698+444028319
1215+434175317+423157735+411818831+400902787+390899746+382048378+374477760
1205+368353653+363968644+361764551+362228702+365683755+372141881+381319495
1196+392717557+405684770+419499463+433480198+447021683+459551195+470599587
1186+480001873+487934083+494684022+500466197+505481856+510068148+514733013
1176+520006053+526201170+533298563+541002654+548795588+555960298+561720174
1166+565335959+565945085+562587420+554974175+544351140+533003056+522370033
1156+511883743+500062329+486426023+471817486+457354171+444056842+433376866
1146+426978883+425543205+428354208+434499066+444029690+457248799+472861888
1136+487559512+497996317+503262921+505555680+508711956+515945285+528401781
1126+545321894+565120080+586187973+607214259+627391342+646411442+664152163
1116+680414297+694844094+706855397+715565343+719829821+718493254+711323374
1106+700428116+690123801+683800275+680560256+676474658+670182293+665854718
1096+668834120+679116207+690993367+698759606+701183940+700749368+700444295
1086+701948908+705784934+711961164+720133768+729477776+738871023+747362979
1077+754290320+758986557+761076415+761585760+763161419+768202472+776787279
1067+786940993+796610754+804844836+811584365+817184213+822089999+826468290
1057+830044543+832378276+833229343+832619971+830581181+826880564+821108237
1047+813108603+803316096+792690599+782361383+773186688+765510346+759380682
1037+754965813+752506660+751766171+751727624+751058321+749023329+746093730
1027+743618468+742640153+742891625+742877416+740785167+735722167+729061774
1017+724625099+726203149+734209816+745438987+756209247+764937834+771940230
1007+778192711+784716922+792150233+800232377+808079298+815274079+822306722
997+829608775+836591475+842146094+845795361+847864187+848797413+848862269
987+848410814+847964284+847928128+848341105+848862057+848911578+847939594
977+845758080+842685968+839300975+835993780+832759177+829376295+825726042
967+821953606+818423216+815604053+813958685+813731973+814707475+816286229
958+817892205+819198806+820021595+820298672+820265470+820443998+821374270
948+823395404+826553544+830516748+834598196+838070343+840615102+842500617
938+844316775+846518336+849176134+852045732+854778515+857105144+858950353
928+860370908+861274168+861243147+859817035+856948211+853097484+849064924
918+845926901+844866848+846584246+850730198+855985020+860724657+863807813
908+865032606+864928922+864056331+862558471+860335244+857338820+853579819
898+849067315+843892824+838319353+832840422+828184843+825034792+823610228
888+823726855+825275713+828323980+832674697+837653638+842489151+846770371
878+850487589+853741675+856553734+858968782+861125887+862975457+864003575
868+863406653+860438084+854500243+845162214+832348451+816505766+798633505
858+780415585+764389307+753563196+750269577+754927829+765537850+778076154
849+787570201+789586974+781710931+764598786+742358856+721669472+709252016
839+708820890+719579263+737140823+755948349+771721748+782780691+789671595
829+793700076+795677739+795621395+793299057+788995328+783755137+778967386
819+775804462+774919913+776434233+780135273+785606888+792059984+798181840
809+802428733+803636503+801621770+797525620+793547082+791998435+794283703
799+800396907+808955336+817637004+824057251+826842720+826211261+823536721
789+820260757+817085805+813973528+810635874+806764959+801816758+795204689
779+787330757+779981013+774868704+771882690+769138230+764266701+755405169
769+741897342+724826839+706387342+687980131+668759768+646182127+618366687
759+586679733+556607795+535871916+530451298+541089738+563176990+589673415
749+613698305+630206988+638888164+645565228+657209346+674456056+690858241
739+699531820+699288226+695101757+694053944+700353765+713205653+728686289
730+742806090+752980554+757964700+757551019+753032888+748031227+747321407
720+752680335+760073620+762757164+757127420+745269322+733093209+726326318
710+727017638+732498187+737443293+737746396+733267446+727428997+724350906
700+725806983+729687957+730567583+722223274+701386595+671389712+643180075
690+630854274+642658560+674617420+713446715+745909715+765555013+773049803
680+772835049+769548605+766167340+764054902+763798787+765481928+768399851
670+770743573+768915950+760037887+746971878+733513642+721393732+712703482
660+709214453+710757825+716407124+725750850+738170699+751831167+763959940
650+772357427+776535244+777386311+776220042+774278887+772663204+772031533
640+772180377+772252196+771730048+771177020+771719848+773927951+777565542
630+782215705+787447665+792330097+795454403+795939973+794214275+791500274
620+788787116+786475189+784595090+782970895+781288247+779349976+777385537
611+775925661+775139801+774335442+772342093+768466113+763080174+757377134
601+752558362+749111046+746892954+745893185+746469074+748745830+752282832
591+756428644+760685032+764948948+769754073+775876844+783348420+791158482
581+797819720+801737905+801494522+796796738+789217890+781108453+773623933
571+766332503+758448933+749971890+741635178+733852972+726151729+718137183
561+710539132+704397651+699596183+695241667+691362451+689450207+691439265
551+698643894+711194578+727588814+744785089+759325183+768827319+772763511
541+772146613+768444940+762272368+753056242+740424735+725859036+712698066
531+704478966+702942699+707514360+716788588+729546359+743627331+755483319
521+762318864+763925684+762090956+758915582+755959533+754150199+753877132
511+755455112+759448703+765957791+773557038+779787573+783299814+785140381
501+787603262+791956370+797547145+802708201+805678740+804727436+798028987
492+784676687+766993083+750877753+742540619+744955597+756885233+774389113
482+793255656+810616530+825116389+836331139+844449299+850159655+854146845
472+856683726+858067140+858921724+859480590+859166443+857481755+854878049
462+852190425+849433726+845587712+839834518+832867785+826031889+819651667
452+813336652+807238360+802462708+800595693+803101623+810621947+822267823
442+835396436+846690181+854110900+857608229+858494397+858255093+857300976
432+855307275+852615009+850392205+849842764+851421307+853797175+854074111
422+851031120+847530415+848350953+854273531+860480571+864021019+865884588
412+867495980+868750880+869134454+869954781+873306432+878625828+882831219
402+884282935+884373606+885353046+888173053+892204067+895829418+896764473
392+893282971+886525787+880778009+879739973+882922663+886512984+887487923
382+886011165+883586198+881512449+881288972+884312760+890233719+896364368
##END=
