##TITLE=JMB-217
##JCAMP-DX=4.24
##DATA TYPE=INFRARED SPECTRUM
##DATE=30/4/2019
##SAMPLING PROCEDURE=Diamant-ATR
##ORIGIN=Angelika Moesle
##XUNITS=1/CM
##YUNITS=TRANSMITTANCE
##RESOLUTION=4
##FIRSTX=3997.453
##LASTX=373.96442
##DELTAX=-1.4165319
##MAXY=0.90559042
##MINY=0.35480848
##XFACTOR=1
##YFACTOR=8.433968e-010
##NPOINTS=2559
##FIRSTY=0.90509295
##XYDATA=(X++(Y..Y))
3997+1073151993+1073741823+1073512916+1072819764+1072085410+1071454944
3989+1071077130+1071128862+1071537418+1072044067+1072480608+1072795594
3980+1072928811+1072786124+1072342091+1071706112+1070993596+1070237616
3972+1069620719+1069532308+1070096343+1070915715+1071525474+1071775442
3963+1071686042+1071333741+1070905397+1070577055+1070410692+1070410834
3955+1070458255+1070318819+1069997190+1069852736+1070105954+1070431611
3946+1070309349+1069640578+1068910040+1068830252+1069597822+1070629352
3938+1071276921+1071393318+1071138757+1070612532+1069892948+1069259373
3929+1069041561+1069228277+1069460435+1069435912+1069277182+1069291670
3921+1069384038+1069165874+1068659932+1068471167+1068950253+1069642910
3912+1069921783+1069675773+1069232729+1068790463+1068187983+1067372498
3904+1066882245+1067274970+1068109891+1068517739+1068441484+1068326430
3895+1068105085+1067311154+1066010858+1065181308+1065479827+1066249800
3887+1066729664+1067013130+1067375749+1067470803+1067071434+1066754187
3878+1066917723+1066960408+1066329660+1065380250+1064834096+1064885051
3870+1065370003+1066029869+1066274323+1065680890+1064762293+1064611479
3861+1065442442+1066460191+1067038784+1066921539+1065930362+1064471407
3853+1064148577+1065352688+1066277504+1066307186+1066066547+1065986476
3844+1065883719+1065508803+1065064346+1064866464+1064907313+1065055441
3836+1065260744+1065353254+1065074735+1064412749+1063679384+1063291960
3827+1063626451+1064663564+1065498626+1064924839+1062910684+1061318582
3819+1061571023+1062812803+1064001649+1064910917+1065543008+1065850079
3810+1065831421+1065585482+1065339190+1065190354+1064728865+1063599384
3802+1062429548+1062388487+1063263762+1063845252+1063849068+1063801294
3793+1064025254+1064427307+1064871694+1065230991+1065322511+1065120036
3785+1064871623+1064707028+1064339745+1063561715+1062799516+1062716194
3776+1063338745+1064132534+1064487167+1063884263+1062306366+1060671861
3768+1060090300+1060695042+1061872157+1062882415+1063140933+1062531033
3759+1061566005+1060973773+1060885362+1060917306+1060878507+1061052289
3751+1062112301+1064191263+1066148880+1066819771+1065869090+1064300946
3742+1063828715+1064382148+1064623069+1063520301+1060924090+1058138972
3734+1057108643+1058012469+1059489093+1060708187+1061614698+1062183043
3725+1062327003+1062335413+1062607076+1062880577+1062602907+1061964243
3717+1061696183+1061977176+1062226860+1061921415+1061341550+1061222044
3708+1061714558+1062521634+1063349982+1063819598+1063554719+1062629903
3700+1061669822+1061155117+1061046070+1061060134+1060886563+1060316593
3691+1059441530+1058757283+1058750640+1059237853+1059748954+1060127898
3683+1060362600+1060445711+1060348607+1059792417+1058346678+1056490474
3674+1055878454+1056614645+1057205747+1057333593+1058071551+1059666904
3666+1060953772+1061147061+1060570023+1060123728+1060250161+1060594899
3657+1060759707+1060818577+1060791085+1060157368+1058301236+1055292935
3649+1052836655+1052955667+1054781269+1056288423+1056835778+1056968925
3640+1057428788+1058319469+1059111279+1059441460+1059587610+1059917648
3632+1060079912+1059295310+1057818969+1057498966+1058861948+1060247405
3623+1060329667+1058831135+1056485669+1054921624+1055139223+1056086795
3615+1056500580+1056542418+1056750477+1056768498+1056205666+1055841563
3606+1056547648+1057821089+1058672971+1058818344+1058536856+1058157771
3598+1057841655+1057614232+1057496775+1057544620+1057633101+1057414371
3589+1056693233+1055790679+1055360851+1055613504+1056264394+1057151824
3581+1058193107+1059039547+1059199337+1058558129+1057578613+1056864047
3572+1056549486+1056180577+1055206998+1053755534+1052967893+1053683307
3564+1055075336+1055970469+1056095912+1055764954+1055347423+1055165443
3555+1055436824+1056026300+1056461287+1056401639+1055918171+1055245656
3547+1054653776+1054573493+1055258518+1056229270+1056586235+1055905521
3538+1054679218+1053933345+1054298649+1055307423+1055794354+1055085512
3530+1053669526+1052594532+1052267744+1052227320+1052116294+1052165694
3521+1052540327+1052923511+1053059484+1053125845+1053328745+1053573341
3513+1053717441+1053771506+1053768113+1053710586+1053556097+1053068389
3504+1052014667+1050749636+1050188782+1050796916+1052027530+1052952628
3496+1053110368+1052707890+1052146612+1051565334+1050964974+1050504475
3488+1050395428+1050571542+1050680166+1050429138+1049917684+1049560860
3479+1049606444+1049876623+1050061007+1050009275+1049740226+1049436901
3471+1049387219+1049681851+1050076838+1050307653+1050323413+1050156980
3462+1049884044+1049729696+1049850192+1049973444+1049605525+1048711805
3454+1047920348+1047776601+1048054555+1048220281+1048311801+1048732088
3445+1049307006+1049375487+1048746788+1047875047+1047192496+1046801538
3437+1046731290+1047029173+1047560769+1048028123+1048258514+1048342756
3428+1048459082+1048636752+1048698731+1048409117+1047758085+1047104721
3420+1046866415+1047038784+1047225500+1047118078+1046789029+1046551147
3411+1046598992+1046784435+1046776379+1046436516+1045924073+1045461382
3403+1045171132+1045087527+1045155301+1045262370+1045336081+1045326611
3394+1045180743+1044992685+1045054523+1045555235+1046321321+1046953200
3386+1047109386+1046684081+1045891846+1045180602+1044922507+1045152404
3377+1045579617+1045824708+1045734671+1045489581+1045279402+1044969787
3369+1044378968+1043758255+1043635992+1044239320+1045298836+1046263228
3360+1046626412+1046281108+1045559899+1044806746+1044154372+1043789563
3352+1043963911+1044542927+1044940599+1044692399+1043896348+1042992310
3343+1042311172+1041969119+1042046717+1042565521+1043304893+1043948009
3335+1044422149+1044842436+1045188023+1045299402+1045106114+1044703494
3326+1044301865+1044128718+1044239391+1044458404+1044623635+1044810421
3318+1045171061+1045604705+1045793400+1045580818+1045058339+1044283278
3309+1043278815+1042342339+1041948766+1042256543+1042926727+1043385318
3301+1043228285+1042538242+1041790460+1041350526+1041224518+1041308123
3292+1041580069+1041978519+1042312303+1042373647+1042129616+1041829047
3284+1041827634+1042205447+1042634144+1042728845+1042503118+1042327144
3275+1042347710+1042196471+1041582896+1040895963+1040782746+1041361975
3267+1042191807+1042796054+1042963476+1042700646+1042082548+1041220631
3258+1040394544+1039997084+1040153411+1040565500+1040897376+1041133068
3250+1041433919+1041836185+1042196330+1042344671+1042229051+1041908129
3241+1041442188+1040849178+1040154118+1039479128+1039081386+1039159196
3233+1039584288+1040009099+1040246274+1040352212+1040419845+1040520199
3224+1040729813+1041004374+1041138651+1041007413+1040753700+1040590801
3216+1040452637+1040022526+1039226546+1038504842+1038357986+1038773750
3207+1039322236+1039647823+1039653123+1039377714+1038946402+1038547316
3199+1038270988+1038001727+1037579179+1037069350+1036760584+1036847864
3190+1037183556+1037433241+1037470556+1037493312+1037712961+1038075438
3182+1038407032+1038659120+1038834174+1038816224+1038504842+1038062364
3173+1037806319+1037779393+1037594232+1036895143+1035909903+1035248977
3165+1035185514+1035438944+1035647780+1035718452+1035701844+1035615836
3156+1035432654+1035109329+1034656745+1034231794+1034080414+1034315681
3148+1034761410+1035043816+1034869539+1034202535+1033210652+1032144704
3139+1031270914+1030734654+1030417760+1030025954+1029364392+1028499153
3131+1027689816+1027198786+1027121824+1027337021+1027575186+1027543030
3122+1027111789+1026472559+1025999198+1025948172+1026422524+1027419425
3114+1028589614+1029218454+1028953504+1028322897+1028083107+1028298515
3105+1028414559+1027929465+1026719488+1025037067+1023410619+1022290466
3097+1021651731+1021050877+1020089948+1018734032+1017211189+1015728559
3088+1014338297+1013024997+1011851698+1010940381+1010245886+1009419800
3080+1008092012+1006286127+1004332184+1002405874+1000433556+998349294+996123758
3070+993656594+990915222+988045156+985241240+982711672+980724726+979319552
3060+978022577+976218247+973789528+971144907+968735482+966817723+965565342
3050+965091981+965372196+966292135+967731019+969544466+971622014+973982181
3040+976654082+979491214+982277816+984967739+987661053+990392531+993060545
3030+995539794+997785259+999797366+1001579575+1003222207+1004901094+1006618215
3020+1008118443+1009247925+1010188500+1011133599+1011994314+1012634392
3012+1013163373+1013753344+1014311017+1014579713+1014562893+1014620561
3003+1015043181+1015687852+1016174571+1016244112+1015764672+1014638583
2995+1012970650+1011169712+1009653018+1008558236+1007853493+1007527765
2986+1007538437+1007756743+1008093496+1008542405+1009046439+1009467221
2978+1009709061+1009770192+1009716905+1009693795+1009841217+1010100796
2969+1010200373+1009899593+1009177253+1008210529+1007302321+1006767051
2961+1006693976+1006812281+1006734541+1006361181+1005995170+1006044145
2952+1006610300+1007342180+1007733421+1007576670+1007076736+1006592420
2944+1006406693+1006605706+1006939491+1006901398+1006141249+1004721446
2935+1002928847+1001056389+999431213+998347810+997778758+997316562+996631537
2925+995894003+995511525+995577816+995930116+996578250+997609851+998814387
2915+999859557+1000731580+1001644806+1002677396+1003738326+1004721022
2907+1005554176+1006248812+1006962742+1007879218+1008943823+1009803761
2898+1010139171+1010064117+1010036060+1010311752+1010680944+1010781227
2890+1010493026+1010005601+1009661428+1009731534+1010219949+1010877059
2881+1011401093+1011578338+1011320809+1010722781+1010052103+1009578812
2873+1009375841+1009299233+1009145026+1008859228+1008598307+1008497528
2864+1008394983+1007956674+1007104298+1006100824+1005160532+1004230769
2856+1003249275+1002390962+1001929968+1001995057+1002532447+1003388711
2847+1004384835+1005389368+1006356587+1007261685+1008050527+1008720357
2839+1009368138+1010094860+1010967166+1012084845+1013470302+1014870034
2830+1015909621+1016469203+1016723905+1016891186+1017068361+1017183415
2822+1017057124+1016664540+1016277681+1016164535+1016264254+1016302063
2813+1016097043+1015659230+1015127280+1014688689+1014470807+1014445365
2805+1014459712+1014368332+1014125150+1013764510+1013362739+1013027682
2796+1012825136+1012699622+1012564073+1012454107+1012477429+1012652413
2788+1012928247+1013324859+1013896949+1014546214+1015011731+1015153429
2779+1015117174+1015065584+1014923109+1014591727+1014244162+1014145715
2771+1014353915+1014756181+1015204878+1015477249+1015341700+1014819009
2762+1014210168+1013802885+1013707831+1013941261+1014408050+1014825722
2754+1014948268+1014839362+1014684873+1014462680+1014076527+1013638148
2745+1013321466+1013099273+1012858069+1012619975+1012467323+1012384354
2737+1012296084+1012170571+1012006894+1011792263+1011542225+1011335297
2728+1011237487+1011215578+1011204836+1011226320+1011356781+1011576077
2720+1011709647+1011584981+1011251692+1010972254+1010950911+1011150136
2711+1011431199+1011719683+1011926045+1011888660+1011600953+1011351693
2703+1011399326+1011622862+1011710424+1011587031+1011420881+1011308795
2694+1011169217+1010902925+1010524122+1010135001+1009819662+1009577045
2686+1009360294+1009135980+1008881702+1008611805+1008420072+1008383605
2677+1008443747+1008480355+1008463111+1008431874+1008384524+1008276254
2669+1008108690+1007946710+1007826779+1007710877+1007582395+1007508825
2660+1007554409+1007712644+1007944166+1008170458+1008247844+1008088761
2652+1007773704+1007451863+1007208257+1007106489+1007252144+1007686283
2643+1008242826+1008621204+1008641063+1008367280+1007987912+1007661406
2635+1007475963+1007438648+1007532712+1007840772+1008461980+1009255204
2626+1009879239+1010152316+1010169277+1010055566+1009839733+1009566091
2618+1009337608+1009201705+1009089195+1008898381+1008625798+1008405584
2609+1008411520+1008679792+1009000643+1009034212+1008646505+1008134910
2601+1007958300+1008202189+1008508765+1008580568+1008480991+1008398799
2592+1008412086+1008523536+1008691099+1008849829+1009027357+1009283968
2584+1009461284+1009239798+1008522829+1007594904+1006896805+1006713481
2575+1006994049+1007399001+1007564161+1007388400+1007135464+1007203592
2567+1007659993+1008091658+1008103036+1007781549+1007450591+1007203946
2558+1006900692+1006430369+1005834956+1005291629+1005002368+1004998127
2550+1005036361+1004813602+1004366955+1004144691+1004468228+1005039894
2541+1005286399+1005065195+1004748372+1004755651+1005220391+1005932201
2533+1006476871+1006569663+1006292982+1005949657+1005736792+1005556861
2524+1005077563+1004040308+1002569833+1001128192+1000191787+1000018781
2516+1000590731+1001626926+1002672025+1003271749+1003210617+1002722343
2507+1002410043+1002722626+1003472881+1004091969+1004384128+1004728089
2499+1005423573+1006183440+1006524787+1006394396+1006098987+1005816228
2490+1005524917+1005345551+1005557780+1006158776+1006697933+1006737227
2482+1006261816+1005524140+1004808585+1004468298+1004781376+1005579547
2473+1006297152+1006478991+1006088810+1005423715+1004864345+1004594095
2465+1004532186+1004547804+1004531055+1004297908+1003788362+1003314223
2456+1003264045+1003643625+1004109637+1004295505+1004103984+1003873451
2448+1004042852+1004507804+1004748513+1004661233+1004638335+1004765121
2439+1004598900+1003820588+1002642979+1001560847+1000942042+1000781475
2431+1000751793+1000557798+1000179914+999773266+999539624+999676799+1000186204
2421+1000757658+1001072008+1001142751+1001204448+1001354767+1001424874
2412+1001175119+1000600060+999969664+999509235+999155733+998711700+998066605
2402+997243204+996440864+995948703+995801846+995758948+995792235+996186585
2393+996952600+997601229+997728651+997444196+997095429+996898042+996895073
2383+997011400+997081718+997017265+996995074+997327375+998093814+999042446
2373+999863797+1000399492+1000649954+1000820486+1001236674+1001992018
2364+1002831461+1003397757+1003402563+1002848211+1002267851+1002235201
2356+1002516405+1002293152+1001208405+999712771+998441874+997727803+997687944
2346+998385478+999619978+1000602038+1000361258+998756506+996788641+995763542
2336+996216126+997646318+999079337+999831217+999895741+999648106+999252342
2326+998560957+997539391+996538956+996040294+996136549+996413160+996386517
2316+995887713+994974134+993725711+992349866+991309007+990976848+991155719
2306+991261091+991030135+990768577+990839956+991194377+991533320+991767245
2296+992106118+992705418+993383093+993817302+993935254+993932639+993973134
2286+994045361+994077658+994031368+993865147+993513553+992972064+992430432
2276+992222303+992490362+992930296+993073690+992845066+992672555+993038849
2266+994026421+995253077+996128705+996271816+995808560+995154348+994534695
2257+993967198+993572423+993430160+993276731+992888034+992638279+993171006
2247+994626922+996537614+998313392+999550084+1000000831+999573971+998490709
2237+997343064+996765249+996922918+997422217+997733457+997593031+997062001
2227+996335915+995529264+994679361+993979989+993830801+994435542+995418662
2217+996103899+996240508+996209059+996428849+996933872+997606318+998280035
2207+998525126+997985191+997076983+996691396+997179387+998174168+999235734
2197+1000032280+1000055036+998923505+997098397+995714283+995355128+995263395
2187+994089531+991437630+988549685+987429602+989132094+992734464+996028562
2177+997233593+996225526+994376813+993082241+992372764+991316286+989590402
2167+988208268+988764952+991981028+996756273+1001094976+1004355152+1007584444
2157+1010928367+1012599550+1011277911+1007704587+1003876419+1001466924
2149+1000713488+1000733206+1000887836+1001236815+1001721697+1001823253
2140+1001133917+999707400+997914731+996196903+994765015+993608961+992888388
2130+992951145+993793556+994746499+994943180+994172924+993090651+992403012
2121+992116860+991897141+991726891+991746397+991838624+991745761+991314732
2111+990623063+990180091+990673311+992096507+993575392+994330311+994236176
2101+993372845+991856928+990176981+988883257+987944519+987134122+986864084
2091+987876321+990178748+992825278+994667135+995058022+994055114+992299477
2081+990649848+989758461+989860229+990745468+991800320+992288593+991908589
2071+991077909+990454722+990179879+989960724+989886448+990340163+990903561
2061+990463839+988840430+987251650+986810161+987428683+988346502+988958664
2051+989097323+988975202+988725517+987919713+986112415+983894724+982724535
2041+983514366+985621597+987471511+988198374+988311166+988740217+989847084
2031+991446464+993029167+993940342+994051580+993991509+994105857+993779139
2021+992412058+990642216+990063199+991745832+995051026+997917770+998403004
2011+996086160+992408524+989660297+989086157+989793373+989844327+988320495
2002+986047679+984514589+984280028+984624131+984648159+984037552+982675842
1992+980613841+978717566+978226678+979400047+981293707+982721425+983081641
1982+982633085+982376616+983341008+985574459+987998937+989633300+990515995
1972+991070418+991066814+989727082+986951435+984135998+983105811+984207519
1962+985989728+986662032+985598417+983422917+981095683+979321601+978499896
1952+978801242+980137016+981916470+983097613+982984467+981878024+980641686
1942+979919911+979890229+980337937+980817871+980987343+980916671+980948049
1932+981269396+981726856+981999651+981876045+981356817+980539918+979552346
1922+978575162+977739747+977035782+976391111+975753436+975150179+974746146
1912+974686499+974773920+974481833+973507193+972156932+970962149+970088288
1902+969314075+968521557+967955898+967886992+968250813+968750677+969078242
1892+969002905+968524455+968025439+968003531+968598095+969634926+970865893
1883+971954809+972619127+972883582+972952629+972951074+972974679+973087189
1873+973099981+972725348+972145483+972049651+972695736+973567053+974221759
1863+974583671+974666570+974589961+974613848+974777383+974725227+974158366
1853+973213833+972209865+971292400+970515218+970030761+970041998+970609353
1843+971450210+972124564+972467465+972608809+972707609+972714111+972456369
1833+972021029+971843713+972296297+973221537+974249321+975379369+976678534
1823+977830914+978461875+978593890+978528448+978511204+978546187+978471981
1813+978146182+977534515+976770479+976140437+975829409+975708347+975544247
1803+975377531+975508699+975981707+976366163+976350050+976107362+975908420
1793+975817748+975823826+975951106+976110684+976108917+975807783+975187706
1783+974311371+973271007+972235590+971457702+971039535+970786811+970441436
1773+969995213+969697188+969653937+969760935+970080161+970638258+971089217
1764+971068722+970738189+970666810+971043916+971580671+972068804+972450786
1754+972605064+972423295+972061807+971895021+972004351+972150076+972273258
1744+972513967+972899554+973320831+973709245+973941968+973725146+972903229
1734+971987389+971783783+972157144+972615735+972945915+972946410+972531211
1724+971931700+971400528+970889144+970287159+969785740+969852526+970624689
1714+971643993+972416157+972693828+972469444+971940958+971499964+971505405
1704+971800744+971921593+971752192+971525194+971297983+971005471+970882289
1694+970965470+970766034+969922350+968654774+967558296+966899067+966491713
1684+966380121+966800903+967421758+967871515+968056747+967859289+967207621
1674+966362171+965656439+965160957+964976361+965170215+965347955+965105903
1664+964463069+963700022+963034715+962231809+960854056+958781949+956191462
1655+953655534+952791356+953912640+954637170+954256248+953724157+954224445
1645+955586933+956872742+957787946+958371697+958740747+959257926+960596809
1635+962913018+965193678+966789101+967936110+969132235+970650131+972359619
1625+974099779+975906724+977661372+978977499+979692983+980227618+981327417
1615+982911462+984216211+985064489+985605767+985686191+984772825+982134493
1605+977333029+971128794+965508663+961845727+958966121+953198144+939793692
1595+914731165+876484965+826886278+771424419+719372490+681834990+667701201
1585+680285786+715759306+763354439+809069199+841707565+851672264+823665325
1575+752699415+665617716+589187402+539201325+532959351+566500730+605149514
1565+620410524+605493193+570037093+531177318+514740253+546833773+601754990
1555+650327236+693579142+732352062+765312552+793147617+815889553+833078357
1545+846039696+856542210+865328663+873471011+882189195+889821361+895092512
1536+899468318+904768374+911060031+916416342+919971291+922548138+924952262
1526+927341263+929597753+931873042+934485367+937099105+938989019+940288184
1516+941622050+942966517+943814441+943858470+942894360+940628824+936838819
1506+931525760+924079956+912331422+892330080+857182782+795907222+702711748
1496+600189037+527669966+501692907+519945149+575076440+647619292+712262026
1486+760315184+795603473+822359799+842884963+858033533+868484739+875557817
1476+880407480+883474368+884885761+884631977+882687716+879083579+873430516
1466+865006610+854051936+842528351+832013752+822136687+810912893+795477041
1456+775455627+751969654+720822258+675905810+616520800+554053390+513021825
1446+514426116+555437398+616522214+678524283+729798819+768742553+800233487
1436+826990519+846311360+857367448+862757117+863692745+859245277+848284031
1426+829193723+799270226+758806405+713034543+665137852+612379060+553484974
1417+494728734+446117796+420689859+430774700+475037466+535425985+592862034
1407+640097092+678152972+707991592+729555212+744205332+753506349+757452327
1397+755428843+748606651+741408907+739322241+744815303+757491338+775529338
1387+795037177+811557211+823738824+832850440+840149669+846120827+850933387
1377+854881556+858469933+862103541+865627818+868535976+870644479+872185697
1367+873397512+874292504+874903676+875517110+876364822+877244761+877816357
1357+877985193+877881800+877704271+877592680+877615860+877854591+878397070
1347+879262309+880409954+881736752+883063197+884352469+885946196+888242899
1337+891088936+893931157+896432526+898599616+900554972+902368773+904040239
1327+905556934+906912708+908063674+908970751+909703055+910388292+911036426
1317+911515583+911740533+911802371+911884280+912059122+912156791+911770710
1307+910200870+906308320+898848594+887690243+875023183+864893394+860800205
1298+863350904+870101788+877589994+883566241+887464233+889255772+888386292
1288+883902287+875564107+865017847+855815771+851562298+853365286+859263228
1278+866328108+872821039+878331628+882918743+886818643+890503417+894352787
1268+898284065+901920923+905002369+907448826+909178880+910080374+910055638
1258+908944319+906567898+902973726+898439049+893156378+887082392+880009808
1248+871457421+860435679+845603508+825947893+801564172+773953067+745504710
1238+718406472+693740911+671532407+651614529+634198938+619471786+606999074
1228+595922985+585681357+576404475+568880897+564508059+565303191+573573738
1218+590926395+617085612+649609843+684821806+719060260+749460441+774301976
1208+793094825+806365848+815279370+821261907+825662731+829564681+833771722
1198+838772622+844659823+851150280+857700950+863720802+868880998+873237793
1188+877019317+880402180+883478043+886260687+888703610+890787307+892579411
1179+894181407+895614001+896744190+897283206+896678465+893762957+886214397
1169+870128149+841041975+797442220+743731899+688285659+639340901+605075732
1159+594741842+612843588+651155231+691453537+718147247+727038790+724083494
1149+719681821+723184049+738360888+761978594+787221476+808829196+825235235
1139+837198260+845846832+851991985+856276765+859331144+861715339+863767445
1129+865576652+867120202+868344314+869179093+869580793+869476198+868722763
1119+867281263+864996434+860390802+849218811+824269501+777830140+707372928
1109+621532585+540087730+485228315+469780661+491361137+535876484+585926236
1099+627850037+655207288+669243620+676084328+681396257+686970521+692554043
1089+699407473+709971189+724189219+737270630+740447342+723565891+680467838
1079+616861793+553172639+514866332+516010620+551264244+602833306+653631016
1069+694715197+724507102+745042231+759433126+770587378+780332781+789217610
1060+797044548+803477408+808373149+811830076+813878507+814063527+811402651
1050+804736291+792769379+773575678+745692344+712651358+686078286+679534400
1040+696644051+727651022+758691139+781977251+797193667+807170945+814413283
1030+820168751+824796362+828324738+830726742+831903363+831509224+828709053
1020+821886861+808775273+788475270+764982018+747389041+743836847+754953220
1010+774214201+793929533+809913094+821707495+830406386+836901719+841574136
1000+844701307+846568111+847075325+845368735+839699275+826293975+797864416
990+748371595+686071218+638340395+632448107+669539171+724512261+771001022
980+799538214+814072432+821389612+826372703+831406043+836598748+840969466
970+843817411+845104986+845198132+844583850+843702074+842910970+842517044
960+842819662+844094163+846410937+849489344+852798849+855742484+857839679
950+858931140+859169163+858764071+857848513+856537616+855013430+853583027
941+852582239+852131492+852141951+852604854+853674123+855457251+857880245
931+860728685+863749283+866729102+869487789+871895729+873973207+875829905
921+877444551+878695448+879629521+880470661+881327773+882061279+882499799
911+882684395+882808212+882948920+883007720+882911676+882736197+882613510
901+882558386+882370964+881781558+880789463+879758851+879089374+878877005
891+878905415+878866121+878606896+878236503+877976642+877961164+878218552
881+878724141+879405703+880235747+881367773+883000723+885042441+887088964
871+888836121+890374794+892000465+893811085+895542340+896806311+897540029
861+898157915+899115664+900344511+901256676+901319645+900520060+899179976
851+897368649+894694628+890654020+884803286+876516485+864987176+849556906
841+829778322+805320113+776182702+742951326+706745006+669128990+632081530
832+597917141+569307545+549283658+540646040+544617283+559588113+581300251
822+604604420+625202871+640264656+648631741+651291274+651483149+653796813
812+662394996+679042522+702246725+728460572+754337312+777909717+798201027
802+814689258+827413562+837063134+844541447+850455008+855081770+858684141
792+861576468+863847093+865263574+865571846+864693533+862538457+858830220
782+853174471+844955656+832910935+815158874+790252109+758444352+721948559
772+683948016+646915115+611388025+576490518+541708701+507843997+476534231
762+449778258+430266144+421664922+427816824+450864242+489347829+537503498
752+586503133+627397029+654443039+667482965+672244217+677543425+690111685
742+710619817+734358090+755711531+772104920+784342788+794294343+802941148
732+810227091+815894218+820097230+823439245+826623377+830018325+833357512
722+835814217+836711117+836502492+836634013+837847383+839006123+838227246
713+835079439+831110280+827724449+822673866+807204444+767843886+697297132
703+609040651+537516148+515402345+547490388+609738679+673089102+722974507
693+758547321+783248996+800199847+811970148+820459496+826695463+831134026
683+834125577+836315494+838482372+840878793+843155213+844984914+846384010
673+847538934+848578239+849321709+849164323+847954769+846696240+846035102
663+846011003+846824793+848795061+851846542+855317957+858332830+860348187
653+861381837+861885517+862355558+862826093+862936200+862673299+862554712
643+862815068+862931747+862259726+860773562+858904002+856929634+855016540
633+853660130+853322246+853714971+854267910+855005515+856079590+856913097
623+856534860+854109534+848586578+838030424+819792704+793871865+768304951
613+757341089+769024393+796031039+822839874+840335325+849742703+855579797
603+860098431+863402636+865166753+865603931+865606829+866093336+867344868
594+869059091+870819393+872446760+873929885+875173997+876087152+876738113
584+877128929+877151403+877010978+877194867+877822364+878508449+878939973
574+879221319+879579344+880041752+880557305+881204874+882000642+882634217
564+882807081+882776763+883113798+883933948+884830071+885570008+886363656
554+887274903+887698229+886622033+883249984+877232605+868518944+857642575
544+846658501+839137573+837927667+842356406+848000494+849343476+842212730
534+824141867+794322753+754645160+709966666+665969875+627286356+597485687
524+578726796+571704566+577382506+597206179+629967374+669395424+707390525
514+739415175+764654736+782986237+794265508+799080047+798412195+793151009
504+784291693+773378856+763317407+758019188+759874049+768243749+780440486
494+793312353+804223564+811987887+817877348+824435298+832506054+840504302
484+846636663+850756566+853658858+855600433+856139237+854835549+851571839
475+845709657+835108697+817735297+795512235+775283894+765539692+770964767
465+788486437+809902706+827892861+839354537+845057919+847582610+848916617
455+848857252+846100262+840245218+832009936+821813998+809479309+795349689
445+780131154+764139677+748723189+737479748+734014977+739036373+749260014
435+759212982+766061252+771557848+778385694+785811638+789619735+786507970
425+777915229+769012662+764245261+766436380+778275940+796340725+810207090
415+815306791+812601603+802978745+786990732+765112832+738256718+711074027
405+693102530+692304500+707680634+730819749+753425217+772784645+791578625
395+811372969+829818959+844038120+852626126+855737537+854528690+850169916
385+844154517+840653773+845138556+858040176+873682674+885230358+889576128
375+890013306+893613839
##END=
