##TITLE=NiW-x10064
##JCAMP-DX=4.24
##DATA TYPE=INFRARED SPECTRUM
##DATE=5/3/2018
##SAMPLING PROCEDURE=Diamant-ATR
##ORIGIN=Angelika Moesle
##XUNITS=1/CM
##YUNITS=TRANSMITTANCE
##RESOLUTION=4
##FIRSTX=3997.453
##LASTX=373.96442
##DELTAX=-1.4165319
##MAXY=1.0091218
##MINY=0.50592715
##XFACTOR=1
##YFACTOR=9.3981789e-010
##NPOINTS=2559
##FIRSTY=1.0000601
##XYDATA=(X++(Y..Y))
3997+1064099855+1064940443+1065872105+1066340409+1066201516+1065704545
3989+1065189436+1064843282+1064541649+1064043790+1063485047+1063307721
3980+1063572315+1063860819+1063973710+1064096050+1064175326+1063796447
3972+1062945774+1062360140+1062748533+1063867542+1064737114+1064786202
3963+1064400219+1064190040+1064170760+1064043029+1063837924+1063768668
3955+1063808814+1063855048+1063965148+1064094654+1063965274+1063540351
3946+1063264023+1063488282+1064035926+1064494717+1064656949+1064483301
3938+1063894179+1062928967+1061957604+1061467673+1061610054+1062047726
3929+1062389441+1062620105+1062856350+1062918249+1062487300+1061660474
3921+1060939816+1060706488+1060996959+1061631935+1062303568+1062633550
3912+1062380118+1061689331+1061102682+1061155195+1061939592+1063058601
3904+1063883778+1064035926+1063747041+1063520246+1063537560+1063509401
3895+1063181258+1062721706+1062546155+1062758617+1062940066+1062808784
3887+1062550785+1062358999+1062144063+1061829112+1061470464+1061014273
3878+1060452422+1060105506+1060257591+1060682452+1060843859+1060641925
3870+1060515780+1060758240+1061230857+1061739624+1062160933+1062368829
3861+1062324307+1062094531+1061767340+1061463804+1061364042+1061619187
3853+1062026797+1062094531+1061763344+1061278487+1060893582+1060900875
3844+1061517903+1062565436+1063473187+1063832533+1063765497+1063664276
3836+1063647343+1063472426+1062969747+1062239639+1061470083+1060795976
3827+1060405363+1060459969+1060805236+1061139594+1061372668+1061442875
3819+1061122026+1060463013+1059921711+1059826515+1059950631+1059897484
3810+1059529322+1059071039+1059079283+1059784721+1060522439+1060657146
3802+1060356719+1060072147+1059780535+1059348888+1059055691+1059156784
3793+1059502241+1059907378+1060342069+1060587066+1060335980+1059785165
3785+1059562428+1059907568+1060444177+1060761348+1060659113+1060086226
3776+1059242023+1058464983+1058017798+1058118575+1058839106+1059714640
3768+1060019887+1059729227+1059445860+1059532684+1059891903+1060302176
3759+1060509565+1060288097+1059700243+1058995948+1058471579+1058688417
3751+1060043353+1061415160+1061240624+1059749966+1058197915+1057522920
3742+1057532243+1057595538+1057626424+1057798740+1058168995+1058527009
3734+1058655882+1058792491+1059209551+1059638597+1059635300+1059118541
3725+1058394522+1057838062+1057660355+1057862669+1058188782+1058288925
3717+1058010441+1057437048+1056811141+1056531072+1056902658+1057649192
3708+1058188148+1058260195+1057932116+1057514993+1057439901+1057763224
3700+1057930720+1057516515+1056722731+1056026490+1055832801+1056363893
3691+1057555265+1058935507+1059813451+1059989699+1059826198+1059571434
3683+1059274304+1059020619+1058932907+1059079220+1059514672+1060076967
3674+1060070498+1059222299+1058359196+1058369597+1059095139+1059550949
3666+1059422711+1059072434+1058762366+1058493079+1058189417+1057877827
3657+1057749398+1057923934+1058110964+1057909664+1057323460+1056825030
3649+1057105353+1058173244+1059171181+1059574098+1059487210+1059145686
3640+1058620175+1057937380+1057318576+1057084044+1057297647+1057641074
3632+1057809839+1057929959+1058263429+1058489527+1058174830+1057672912
3623+1057490829+1057764619+1058437141+1059294155+1059725865+1059247477
3615+1058183455+1057290227+1057039395+1057308682+1057637586+1057586786
3606+1057088990+1056596142+1056597220+1057027535+1057270122+1056932974
3598+1056503230+1056728693+1057552158+1058141470+1058017608+1057568647
3589+1057376861+1057581966+1057827407+1057734494+1057275196+1056585868
3581+1055827410+1055212158+1054912048+1054914648+1055065845+1055263720
3572+1055573724+1056146484+1057026457+1058013232+1058689368+1058769279
3564+1058382852+1057817323+1057273801+1056855663+1056596396+1056514645
3555+1056676814+1057127107+1057668155+1057869075+1057493112+1056713599
3547+1055831913+1055101234+1054782288+1054977436+1055451511+1055886836
3538+1056193733+1056419260+1056506020+1056350891+1056008796+1055656870
3530+1055397413+1055227760+1055208734+1055454048+1055862673+1056134243
3521+1056147562+1056058835+1056003341+1055917279+1055583174+1054846851
3513+1053993705+1053724544+1054363452+1055301836+1055712491+1055519879
3504+1055227697+1055198650+1055400837+1055660739+1055924889+1056222590
3496+1056480842+1056508620+1056184981+1055580954+1054940397+1054608132
3488+1054812667+1055381811+1055846564+1055959073+1055967255+1056254173
3479+1056802579+1057222873+1057237016+1056955361+1056692670+1056648211
3471+1056815263+1057087532+1057368362+1057659974+1058017925+1058327168
3462+1058266283+1057737982+1057112647+1056746388+1056573374+1056464162
3454+1056587390+1057108144+1057870343+1058572546+1058993664+1059065331
3445+1058938107+1058842024+1058778792+1058546099+1058086864+1057670185
3437+1057679762+1058192080+1058824773+1059180124+1059319524+1059521521
3428+1059786052+1059930653+1059961286+1060064980+1060412974+1061097609
3420+1062042969+1062954209+1063490818+1063519675+1063220389+1062979451
3411+1063098937+1063530964+1063937623+1064035926+1063850608+1063560519
3403+1063334421+1063277405+1063438622+1063661168+1063597049+1063091580
3394+1062365277+1061679437+1061123358+1060770861+1060643891+1060534363
3386+1060230764+1059823281+1059453026+1058997660+1058375749+1057890892
3377+1057882837+1058224362+1058463588+1058308078+1057706145+1056669013
3369+1055359423+1054191643+1053465848+1052941352+1051994533+1050117194
3360+1047126934+1043137913+1038552984+1033894866+1029366382+1024657908
3352+1019295811+1012962098+1005280678+995516560+982830805+966811680+947523114
3342+925099878+899657335+871793931+843054359+815680314+791860601+773276901
3332+761122744+756018139+757685490+764991074+776445692+790545302+805810853
3322+820972140+835236583+848168033+859309919+868172881+874594750+878847097
3312+881341084+882527065+883164071+884312697+886800785+890816063+895980030
3302+901519453+906402971+909618250+910537607+909189393+906351155+903384806
3292+901830535+902839635+906610232+912289753+918648708+924900037+930789799
3282+936222611+941172340+945739765+950000611+953925703+957532102+960920205
3272+964157998+967315817+970521646+973794258+976892144+979490269+981490899
3262+983091087+984582887+986126502+987667264+989050550+990274648+991592483
3252+993229011+995027327+996592569+997799987+998937896+1000264166+1001620878
3242+1002635939+1003164240+1003330785+1003216943+1002762845+1002043202
3234+1001396620+1001077863+1000881891+1000304692+999095181+997573192+996390445
3224+995988860+996312119+997050980+997978519+998836358+999214730+999029286
3214+998864517+999266736+999949151+1000221420+999847043+998973158+997659826
3204+996021459+994494079+993531024+993226093+993460880+994169678+995250824
3194+996369516+997059732+997023518+996313324+995334668+994706161+994945894
3184+996148999+998012576+1000190343+1002526093+1004972577+1007404283+1009540255
3174+1011079304+1011957248+1012429358+1012856438+1013439725+1014179473
3166+1014982707+1015753151+1016391678+1016740813+1016645174+1016195008
3157+1015816826+1015905299+1016417935+1017029825+1017585207+1018126002
3149+1018591896+1018823829+1018813935+1018669714+1018363072+1017749469
3140+1016846664+1015945128+1015387970+1015222503+1015111198+1014658623
3132+1013791588+1012738981+1011702040+1010654634+1009423940+1007893390
3123+1006113529+1004183487+1002029122+999395165+996121474+992353160+988429907
3114+984680810+981421833+978988668+977609505+977380426+978412484+980745760
3104+984030676+987543021+990619597+993040142+995079269+997228560+999700920
3094+1002211586+1004381298+1006183166+1007800921+1009277690+1010525381
3085+1011522621+1012320526+1012933939+1013363810+1013695821+1014065061
3077+1014527467+1015045621+1015574112+1016080088+1016543129+1017000715
3068+1017514175+1018065308+1018576802+1019006039+1019334118+1019519753
3060+1019531549+1019340967+1018821989+1017757206+1016085987+1014106222
3051+1012264335+1010730486+1009345678+1007961060+1006647411+1005619286
3043+1005163856+1005518255+1006559319+1007701984+1008373744+1008610496
3034+1009021658+1010121133+1011770599+1013304194+1014144845+1014316971
3026+1014404303+1014933618+1015767738+1016311894+1016327940+1016166912
3017+1016148837+1016150359+1015908724+1015385560+1014727308+1014037092
3009+1013148684+1011525094+1008493294+1003632164+996846509+988293297+978826816
2999+970571496+966213108+967027503+971737309+977445433+981252942+980928604
2989+975251050+965038098+953772540+946177310+945333868+950810757+959450412
2979+967860481+974208020+978250505+980489220+981426336+981184891+979664614
2969+977152616+974642774+973312699+973667986+975253840+977128009+978564695
2959+979408011+979967896+980693247+981865403+983472504+985257438+986795789
2949+987601559+987363158+986068472+983777117+980440322+976208904+971807707
2939+968284327+966275895+965516740+965029219+963870128+961825229+959426312
2929+957370060+956017280+955326620+955058537+955043697+955320405+955972187
2919+956910254+957929438+958844483+959373862+959022887+957361815+954525607
2910+951438566+949513597+949914992+952809675+957280319+962065026+966390498
2900+970106236+973288726+976047751+978608964+981168972+983626491+985759165
2890+987623630+989422327+991085492+992379607+993325602+994134353+994832433
2880+995216767+995075527+994357152+993256980+992124335+991174028+990405994
2870+989855622+989642145+989669417+989564010+989081182+988373969+987703731
2860+987001782+985910806+984267746+982397827+980870384+980082118+980107360
2850+980825227+982100887+983870664+986077287+988574318+991157665+993657677
2840+995978713+998099844+1000056778+1001888961+1003597789+1005143624+1006464123
2830+1007552309+1008519550+1009482415+1010417057+1011215788+1011790640
2822+1012063225+1012041979+1011943295+1012003736+1012202118+1012401452
2813+1012644927+1013065539+1013631004+1014210931+1014789208+1015457289
2805+1016237627+1016976551+1017422848+1017461155+1017264802+1017130475
2796+1017167703+1017226622+1017096608+1016711449+1016172430+1015602398
2788+1014996152+1014291793+1013580584+1013061923+1012745831+1012403101
2779+1011875434+1011271028+1010844011+1010822638+1011301216+1012149479
2771+1013066807+1013770151+1014105841+1014061319+1013767741+1013408902
2762+1013073466+1012780713+1012597551+1012596156+1012777034+1013145576
2754+1013746749+1014529306+1015315289+1015988635+1016607502+1017260362
2745+1017894704+1018386411+1018735102+1019080749+1019527997+1020067904
2737+1020665652+1021275767+1021776162+1022049826+1022123839+1022104368
2728+1022018179+1021825567+1021536302+1021233718+1021041044+1021078589
2720+1021380412+1021844974+1022314103+1022713024+1023078015+1023434888
2711+1023693838+1023725358+1023516638+1023171562+1022795472+1022446717
2703+1022158213+1021943595+1021829563+1021861591+1022019257+1022193793
2694+1022312201+1022403401+1022508046+1022615672+1022688036+1022685182
2686+1022629308+1022644719+1022818114+1023046748+1023181265+1023255912
2677+1023395883+1023551583+1023513403+1023174542+1022669644+1022235334
2669+1021984058+1021840345+1021690987+1021530531+1021411108+1021329168
2660+1021255662+1021187421+1021095523+1020940711+1020787802+1020749622
2652+1020800486+1020820527+1020798393+1020801818+1020808604+1020756725
2643+1020708969+1020802642+1021078145+1021466475+1021907825+1022414816
2635+1023022458+1023697960+1024327926+1024806187+1025110483+1025294215
2626+1025455686+1025698908+1026022040+1026261139+1026296402+1026291201
2618+1026525417+1026999619+1027443886+1027707847+1027874011+1027988487
2609+1028000917+1028008084+1028210272+1028542790+1028692465+1028592259
2601+1028545962+1028742188+1029004879+1029131088+1029107115+1028916597
2592+1028524906+1028096684+1027886759+1027909146+1027963055+1027913459
2584+1027752242+1027462279+1026966957+1026222325+1025378439+1024790712
2575+1024731413+1025112132+1025633267+1026136135+1026659807+1027229649
2567+1027725288+1027975105+1027997429+1028095732+1028549259+1029227742
2558+1029687168+1029628883+1029155125+1028664306+1028524715+1028722020
2550+1028874929+1028715614+1028376119+1028118754+1028054065+1028153700
2541+1028284094+1028274327+1028128965+1028002313+1027912761+1027781416
2533+1027716789+1027933944+1028454825+1029109652+1029722303+1030176021
2524+1030436302+1030582425+1030770787+1031143896+1031673021+1032071118
2516+1032091032+1031946812+1032135808+1032785878+1033480660+1033783561
2507+1033688619+1033497594+1033437597+1033495057+1033549409+1033539833
2499+1033480407+1033421108+1033438295+1033530954+1033500892+1033140721
2490+1032579948+1032194599+1032121157+1032101560+1031861129+1031404748
2482+1030901879+1030515579+1030385058+1030544055+1030758103+1030625933
2473+1030033322+1029464749+1029641504+1030710220+1031950617+1032515449
2465+1032351885+1032127626+1032313451+1032671910+1032728418+1032472639
2456+1032338566+1032604683+1033126451+1033608264+1033826815+1033644922
2448+1033155118+1032742181+1032734063+1033075334+1033480787+1033721345
2439+1033746460+1033709739+1033783752+1033828464+1033509454+1032827736
2431+1032164474+1031739931+1031392571+1030946718+1030463383+1030095983
2422+1029965588+1030141583+1030452665+1030431990+1029831388+1029059168
2414+1028662594+1028581541+1028415757+1028168350+1028157822+1028402185
2405+1028592259+1028557758+1028435037+1028438779+1028641601+1028945707
2397+1029203896+1029336827+1029328709+1029168317+1028878734+1028622384
2388+1028681049+1029202754+1029984678+1030621430+1030872388+1030850825
2380+1030918559+1031371452+1032092174+1032602336+1032598467+1032224217
2371+1031739106+1031334668+1031326486+1031964062+1032975445+1033707582
2363+1033676125+1032910945+1031993490+1031615878+1031852060+1032191936
2354+1032345035+1032496803+1032788034+1033084213+1033275175+1033494359
2346+1034022153+1034918742+1035776264+1036147597+1036046186+1035749818
2337+1035402712+1035009625+1034600240+1034211276+1033799924+1033313291
2329+1032782200+1032253328+1031762319+1031457008+1031584041+1032189272
2320+1032964283+1033527846+1033700416+1033480533+1033010771+1032538407
2312+1032224090+1032087988+1032223203+1032749220+1033442163+1033803920
2303+1033689698+1033515415+1033618983+1033747665+1033443242+1032729179
2295+1032118684+1032032621+1032418477+1032883547+1033044955+1032805792
2286+1032427229+1032312310+1032628402+1033111484+1033322614+1033217651
2278+1033339611+1034126989+1035166530+1035664833+1035529491+1035355843
2269+1035457318+1035533677+1035280182+1034944682+1035144586+1036127049
2261+1037390151+1038288072+1038722700+1038880492+1038800074+1038626743
2252+1038714011+1039177939+1039776955+1040160591+1039925425+1038896031
2244+1037627791+1037098729+1037756727+1039279667+1041102718+1042648743
2235+1043292979+1042858985+1042173653+1042382119+1043529668+1044552276
2227+1044832472+1044874647+1045236910+1045781320+1046191594+1046391308
2218+1046393338+1046380907+1046760294+1047546848+1048010839+1047588199
2210+1046851685+1046828726+1047535559+1047937270+1047276799+1045820198
2201+1044402030+1043683655+1043609008+1043428320+1042579931+1041405428
2193+1040679633+1040865902+1042009645+1043705218+1045135690+1045851845
2184+1046229647+1046520117+1046183349+1045005929+1044072048+1044777485
2176+1047353602+1050716971+1053372428+1054295908+1053283257+1050828339
2167+1047820004+1045199238+1043589030+1043106710+1043632157+1044906167
2159+1046073757+1046112698+1045268431+1044745711+1045054066+1045756079
2150+1046243917+1045921101+1044388141+1042298213+1041167027+1041630384
2142+1042817254+1043776567+1044474457+1045034152+1044988869+1043962456
2133+1042489428+1041449189+1041046970+1040954438+1041179965+1042083658
2125+1043502016+1044550056+1044562296+1043754116+1042753198+1042019412
2116+1041856672+1042317620+1042840403+1042621408+1041669959+1040902052
2108+1040903764+1041166266+1040879855+1040035017+1039395538+1039660767
2099+1040873893+1042432032+1043543303+1043895800+1043920027+1044233646
2091+1044908387+1045422799+1045211415+1044207833+1042949615+1042154943
2082+1042138771+1042667199+1043293423+1043694817+1043854829+1044069321
2074+1044599081+1045301537+1045867701+1046282033+1046651083+1046775579
2065+1046390674+1045853114+1046108322+1047632086+1049643752+1050790032
2057+1050480218+1049113105+1047347387+1045918882+1045829965+1047619592
2048+1050153598+1051163141+1049800974+1047734131+1047000725+1047687453
2040+1048541297+1049242041+1050708028+1053302982+1056041204+1057723839
2031+1057968900+1057229279+1056544707+1056834036+1057793413+1058170961
2023+1057508524+1056552635+1055776927+1055065591+1054991325+1056379050
2014+1058305034+1058829022+1057945434+1057670312+1059100212+1061120440
2006+1062054512+1061279184+1059226104+1056797252+1054803217+1053571889
1997+1053031728+1052943509+1052904568+1052497719+1051584957+1050457450
1989+1049993839+1051386257+1054794972+1058386467+1059751424+1058200198
1980+1054914204+1051440673+1048951316+1048231419+1049157753+1050476857
1972+1050927340+1050561842+1050587400+1051924198+1054169065+1056059596
1963+1056634449+1055725175+1053723529+1051235758+1048994824+1047809096
1955+1048135019+1049646226+1051413021+1052502349+1052590378+1052276505
1946+1052538309+1053571825+1054473235+1054237117+1052765928+1050755721
1938+1049128833+1048703529+1049696963+1051416573+1052828525+1053462804
1929+1053537958+1053376614+1053085002+1052764153+1052623991+1052807977
1921+1053358729+1054299587+1055504088+1056687088+1057763605+1058807903
1912+1059553042+1059433746+1058289623+1056685883+1055375659+1054783873
1904+1055015425+1055877830+1056827440+1057237967+1056813361+1055737986
1895+1054677832+1054440573+1055134975+1055913029+1055959327+1055476943
1887+1055198269+1055342616+1055710524+1056195953+1056739665+1057123872
1878+1057162686+1057003308+1057013899+1057345530+1057774006+1057993000
1870+1057883662+1057564588+1057337412+1057417641+1057677034+1057815103
1861+1057775211+1057807239+1058010885+1058121175+1057966363+1057810854
1853+1057993888+1058504241+1059124313+1059733666+1060308519+1060803587
1844+1061068371+1060895738+1060327101+1059714196+1059355738+1059205873
1836+1058944576+1058343341+1057484297+1056652714+1056137224+1056070124
1827+1056462323+1057261180+1058209268+1058928911+1059317621+1059540865
1819+1059750600+1059961032+1060013799+1059734998+1059174352+1058472086
1810+1057614564+1056624555+1055787962+1055400267+1055499331+1055909287
1802+1056412093+1056941409+1057581712+1058267679+1058789955+1059133699
1793+1059480424+1059878965+1060167659+1060243004+1060145652+1059993314
1785+1059928307+1060020141+1060257020+1060590047+1060940894+1061300811
1776+1061753133+1062331664+1063000761+1063658378+1064035926+1064112412
1768+1063920562+1063773171+1063809004+1064057870+1064462753+1064761975
1759+1064698554+1064240397+1063482954+1062622705+1061809832+1060909501
1751+1059616844+1057810981+1055600869+1053056843+1050160701+1046897031
1742+1043410943+1040167251+1037720196+1036190597+1035402522+1035439750
1734+1036448152+1037906085+1039186374+1040308237+1041439359+1042516065
1725+1043221122+1043216365+1042460128+1041077920+1038944611+1035492453
1717+1029696935+1020778352+1008457777+991484413+967670216+935900493+897040438
1707+854385875+815599072+789007205+777151827+780653073+799599544+827012021
1697+856090518+883221784+900165024+901906641+890195547+867209382+836470384
1687+801125782+756140733+695085315+632923319+588856994+561078575+544223935
1677+538324659+544690971+559850925+577140826+595199777+616920239+640901805
1667+661241772+676731899+690888018+706535620+722937747+737575236+749671171
1657+759674388+768886232+781659509+801814919+819598684+827319425+829984840
1647+831649781+832526900+832329342+832427328+834176619+837859822+843131606
1638+850517355+861535315+874471649+884800472+892319152+899504109+907598466
1628+915961096+923514277+930310967+936947772+942911865+947149752+949927422
1618+952117810+952724119+948749939+938228378+920354746+896022015+870884974
1608+854060459+850936000+858794683+868874576+870905649+857471394+826625721
1598+782402491+734786847+697758531+682609104+690976364+715132212+744098833
1588+769904654+790620330+808851026+828088601+849830881+872528922+893819134
1578+913834763+933999117+951887019+963782353+971132649+977368439+984155172
1568+990807579+996270578+1000591040+1003935572+1006176380+1007695768+1009647438
1558+1012098995+1013524900+1014392316+1015636645+1017146204+1018530948
1550+1019458044+1019540047+1018681574+1016912051+1013909552+1008983224
1541+999885413+983539540+962974426+941963967+916584148+880564805+834975730
1531+789356657+747464991+705326997+661860005+623102819+595718120+582464870
1521+583839467+596004278+613240779+632493512+649605642+660181619+664930937
1511+667503439+669850922+671472799+670525219+666801617+663848395+664172479
1502+668497127+677258107+690320078+706294682+722064751+734938234+745721788
1492+757701536+773293137+790812053+806287783+818682687+829116790+837708689
1482+842334715+839599283+828324909+812282572+799389492+798099689+811709749
1472+833057674+850868393+862342988+870912752+879537186+888535109+896081695
1462+900896147+903344787+903561117+899342067+888634174+875383460+864842238
1452+859674529+861103035+867926362+875671964+879545304+878967154+877499517
1442+878877857+884123447+892471364+903796221+917320281+929485790+938261167
1432+945223007+952116478+958985215+965042601+970281469+975352461+980351279
1422+984599376+987425121+987761381+983203343+971700398+953088539+928607974
1412+901740413+878069677+861822171+852728418+846919137+840338714+831632466
1402+822272724+814408143+809662821+808717714+811085618+815866266+822057091
1392+828529444+834883832+841384154+847502868+851104130+850218640+845343240
1383+838662928+831876259+824898056+815887322+802031821+780759114+752869770
1373+725069090+705435891+697343754+699343370+707797644+720518408+738767623
1363+763959207+793064404+820906815+845453466+867319925+887123791+904894744
1353+920629170+934589254+947095590+958323412+968402608+977472831+985589322
1343+992788358+999175155+1004781234+1009412778+1012754964+1014623741+1015084435
1333+1014288749+1012117831+1007874871+1000083858+986375051+964095845+932489812
1323+895405749+861281503+838941602+832090116+837220216+847157728+856055763
1313+860566806+858340078+847161344+825173369+792213414+753013927+719374475
1303+705461831+717113943+745933743+775884665+795105941+800673079+795249591
1293+782696260+766220119+748021134+729437815+711400175+694654810+679328882
1283+664239389+647029652+625850682+601526323+578032025+560667794+553469265
1273+557539148+570834955+589212662+608232891+624865873+638160728+648595719
1264+656653672+661641011+661559514+654095757+638146015+615151478+589562051
1254+567666798+554809234+552897394+560261516+573572607+589862288+607373530
1244+625387578+643645545+661673546+677916232+688825361+689332923+676227318
1234+652512249+627676586+612014271+610083467+619488746+634764064+651380049
1224+666993403+680910296+693308309+704604689+715044500+724656089+733489877
1214+741819718+750042948+758379004+766765227+775033295+783043746+790675951
1204+797871055+804729390+811483461+818331776+825315052+832412487+839789357
1194+847840905+856920388+867099409+878224108+890125657+902730740+915946065
1184+929311318+941566378+950338520+951902304+940921064+911072631+858392020
1174+786890386+711128414+650576816+618933428+617536823+637371511+666048423
1164+693715918+715077986+728763772+736548949+742735081+752067615+766554794
1154+784345662+802012477+817527782+831020893+843578093+855954352+868032466
1145+878726787+885967681+886689671+876934559+852718270+812525159+760485549
1135+706809854+663373242+637451486+628897513+632334831+641500821+652454789
1125+664308835+677790974+693066292+708411945+720213224+723927186+716028674
1115+696593605+670521857+645557576+628337248+621649009+624445959+633612203
1105+645874303+659003057+672039534+684754209+697024110+708677363+719683337
1095+730181496+740226697+749672883+758401836+766518454+774227716+781615431
1085+788581139+794925951+800541416+805530784+810111781+814455455+818665627
1075+822834955+827056099+831371233+835696198+839862165+843795882+847560899
1065+851205351+854736786+858226553+861730146+865135816+868249684+870998371
1055+873483415+875888168+878325011+880715114+882866053+884670458+886094968
1045+886957246+886907143+885714439+883466211+880512418+877428232+874995891
1035+873883542+874137101+875000013+875163451+873137895+867602722+857736495
1026+843421315+825350125+805238538+785919276+770598548+761204241+757137212
1016+755635010+753302558+747810258+739366322+730937353+725954517+725275527
1006+727098641+729734374+733256042+738468781+745568372+754112895+763490268
996+773096594+782345602+790666628+797668803+803534403+809080738+815102545
986+821677450+828288315+834507426+840312394+845772857+850753092+855068544
976+858729422+861843100+864340638+865938796+866453017+866185379+865962896
966+866675944+868666871+871498577+874259694+875977085+875613933+872130952
956+865563721+858284901+854160094+855637942+861926055+870180678+877936999
946+884247690+889254499+893409494+897106776+900596861+903936763+907033824
936+909811622+912300725+914585864+916744668+918777200+920548054+921932355
926+923092080+924483231+926472065+928933453+931307192+933141722+934506869
916+935758429+937085016+938493544+939997711+941554011+943008075+944338658
907+945771793+947464449+949262765+950989986+952780247+954826478+956955537
897+958807445+960328228+961752231+963174648+964394877+965167414+965471077
887+965460993+965123590+963915221+960372624+951985576+936803107+916624104
877+897463713+884198095+874043491+856681289+822434449+771977268+718889871
867+681424581+669877495+681146668+704509557+730945978+757027112+782621422
857+807414719+829844234+847946311+860140677+865933405+867199742+868208460
847+872566594+879792711+885943581+888025010+887264270+887741707+892195734
837+899600636+906607885+910709289+911964464+912329708+913737031+916696214
827+920432500+923930956+926597893+928274377+929132406+929683602+930771154
817+933290191+937536640+942750901+947595858+951243291+953871097+956080511
807+958083932+959663254+960746493+961689444+962961235+964748135+966860768
798+968933572+970738167+972306264+973728744+974998696+976072168+976794285
788+976494301+973464403+964271142+942893092+901410495+835036551+750099076
778+666639638+608915560+590309346+607257152+646194391+693393166+739330045
768+778864270+810718979+836329842+857643456+875551590+890215144+901990357
758+911426333+918856477+924562127+929078307+932988242+936562233+939694937
748+942079775+943486527+943914558+943431033+942041976+939816769+936813255
738+932793601+927429032+920841125+913461782+905268297+895556121+883588551
728+869166252+852502003+833931685+813896649+792865324+771234539+749693622
718+729533391+712051830+697902751+687331658+680603654+677781144+677608384
708+676287885+669293066+657209498+648682099+653832240+674227321+700825023
698+720846614+725916464+716090320+699097548+685645915+683343335+693343634
688+711626209+732793002+752997691+770696598+785899108+799158384+811058791
679+821989357+831956550+840735542+848175707+854329366+859766236+865986362
669+874521435+883728902+890367166+894906558+899082229+903356964+907475682
659+911439778+915317938+918790645+921520115+923664142+925774619+928225986
649+930834385+933223345+935488887+938090120+941025837+943567389+945073142
639+945365008+943255673+935867387+922430150+908511101+902329218+906049903
629+914113437+920429266+923909456+926733361+930545183+935408723+940505907
619+944992343+948774420+952519712+956788105+961453262+965830550+969008854
609+970102811+968017703+960492427+943614004+913943658+873475424+833119066
599+808429907+808307757+828460187+857133420+884723351+907212356+924193204
589+936811986+946798016+955398921+962946140+969515972+975202279+979167073
579+978587400+969491174+950942547+929707195+917444905+920405927+934475349
569+950973052+964480433+974370633+981705264+987379140+992108417+996226437
560+999607056+1002190593+1004227755+1006165471+1008657999+1012129755+1015835028
550+1018127144+1018362184+1017776994+1017893436+1018966210+1020374103
541+1021515056+1022085596+1022315816+1022922442+1024355070+1026449374
533+1028939111+1031531718+1033293123+1032648253+1027644615+1014702130+987455626
523+940973197+880940006+827909879+806259307+823068981+862139912+901550720
513+928411938+937200570+925220188+894069522+853258495+818774585+804417864
503+813552841+838182003+866088217+890205314+909884430+926137580+939454062
493+950594680+960571386+969541404+976902038+982633310+987748824+993048957
483+997948267+1001536908+1004398866+1007934804+1012043882+1015047396+1016331238
473+1017418789+1019563196+1021913406+1023445479+1024732681+1026906072
465+1030279715+1034180199+1037460739+1039542169+1041085594+1042773810
456+1043902966+1044045982+1044769938+1047862687+1052862836+1057407557
448+1059718318+1060054008+1060070688+1060966390+1062526178+1063850038
439+1064035926+1062904233+1059149364+1051744145+1037289374+1010651083+969504937
429+918148756+866600218+826925768+808942797+813734670+832834113+858203024
419+886136953+910883445+928458553+942491507+956311429+968989003+978944654
409+986981234+994851586+1003361164+1011807637+1017814603+1019142522+1016815017
399+1016245745+1024049442+1039448558+1053610005+1061568767+1064035926
391+1063207071+1059960779+1058585737+1062565499+1069783181+1073741823
382+1071136342+1064291768+1056772644+1051490776+1050656720+1055218247
374+1064035926
##END=
