##TITLE=STM-116
##JCAMP-DX=5.0
##DATA TYPE=LINK
##BLOCKS=1


$$ === CHEMSPECTRA SPECTRUM ORIG ===
##TITLE=STM-116
##JCAMP-DX=5.00
##DATA TYPE=INFRARED SPECTRUM
##DATA CLASS=XYDATA
##$CSCATEGORY=SPECTRUM
##ORIGIN=Angelika Moesle
##OWNER=
##XUNITS=1/CM
##YUNITS=TRANSMITTANCE
##XFACTOR=1
##YFACTOR=7.9272783e-010
##FIRSTX=3997.453
##LASTX=373.96442
##MAXX=3997.453
##MAXY=0.8511850245343062
##MINX=373.96442
##MINY=0.511190117066111
##NPOINTS=2559
##XYDATA= (X++(Y..Y))
2559I75847543I75627089I75752580I75982208I76356726I77108093I77896453I77929611
2551I77038242I75961456I75439718I75540246I75871530I76015141I75775137I75323099
2543I75052643I75176630I75588517I76111684I76672220I77173959I77337195I76882450
2535I75993562I75357987I75439266I75947321I76378981I76662972I76939443I77101701
2527I76969293I76748763I76869065I77218997I77206892I76938691I77362007I78743385
2519I79916488I79895811I78980156I77839685I76883954I76652446I77660433I79220235
2511I79629791I78380220I76838464I76499511I77075309I77033730I76064089I75434980
2503I76182061I77881715I79287154I79774155I79634603I79281665I78582856I77211553
2495I75589720I74971739I76200708I78509245I80585146I82027052I82656987I82043593
2487I80255817I78312099I77756600I78843387I79336478I77896979I76362215I77015835
2479I78916095I79727312I80040099I80913724I80654396I78275331I75695737I74676095
2471I74770758I75604758I78161044I81161397I81822913I80739585I80643719I82147279
2463I83145417I82286530I79739417I76033939I72730497I73915255I81975472I88848298
2455I89015520I85750200I82029984I78809175I76465826I75274602I74939482I75121817
2447I76358832I78766317I80793571I81503283I81625841I81670128I81114629I79904007
2439I79120910I79084519I78400747I76701845I76443645I78930456I80784473I80713119
2431I81539148I83863099I84848831I83460159I80926055I78704211I78088110I78858124
2423I78845191I77860963I78689775I82001562I84187992I84123930I83845881I83964905
2415I83499859I82452172I81691031I81474636I81529825I81873289I82414878I82393900
2407I81539825I80962146I81640503I82657514I82586535I81471553I80091078I79287079
2399I79962278I81835093I83063386I83067897I82985264I82967969I82285552I81532832
2391I82053217I83140154I82402096I79239784I75225353I73125842I75665737I80652742
2383I82559016I81566367I82191641I86373594I89202441I87233459I82487285I77977507
2375I76304921I79053240I84382431I87815725I87402860I84560179I81609149I80357397
2367I81161172I82670747I83705502I84467395I85163648I85185979I83887460I81352980
2359I78907222I79212190I83737307I88733335I89772677I87460155I84198819I81833138
2351I81812310I84129194I86404196I86716382I85473577I83712420I81787799I79783553
2343I78593608I80123559I84511682I88074451I88414382I86580290I84227691I82160813
2335I80196719I78021116I77142830I80692742I86708412I88611228I86804955I86338781
2327I88442127I89158455I87122480I84451831I82882104I82465029I82147279I81344859
2319I80942446I81725167I82054796I80152506I77258471I77001625I81792311I87424740
2311I88911383I87219172I84893117I83311886I82529842I81953065I81418695I81354183
2303I81765017I81596067I80033406I78621879I80823872I86124041I88981234I88127008
2295I85622528I82921428I81176961I81499447I83035566I83759112I83820316I84380777
2287I84986878I84578375I83856106I84132352I84846423I84621082I83644298I83130003
2279I83531138I83978439I83681667I83161583I83390910I84148442I84027989I82451270
2271I80833121I81529900I84551757I86546078I85864036I83952198I82556760I82327583
2263I82959774I83894754I84767476I85212596I84665745I82969399I81182977I81342002
2255I84217316I87103231I87327746I85618393I83965056I83395948I83482867I83251660
2247I82471871I81933140I82432547I83474220I83747307I83039475I82545707I83176997
2239I84296865I84826725I84592209I83951446I83236246I82734884I82529316I82317207
2231I81799980I81135382I80759586I80904024I81466891I82308560I83315646I84092501
2223I84108216I83380083I82565933I82227882I82295177I82371945I82342771I82441645
2215I82726763I82714958I81904943I80624470I79922278I80467400I81634037I82184949
2207I81768250I81056358I80740337I80860039I81078990I81193578I81136134I80824324
2199I80272058I79708966I79478962I79819268I80618981I81392830I81723813I81639376
2191I81388243I81067486I80610034I80080476I79901225I80521236I81695316I82507286
2183I82481646I82085248I81763662I81320798I80668005I80269502I80409204I80764924
2175I80912295I80739209I80449956I80514920I81238842I82114572I82289086I81815619
2167I81495388I81581856I81570953I81210797I80871317I80885227I81159367I81440500
2159I81577645I81586668I81639902I81857199I82118933I82262018I82317057I82339463
2151I82240664I81958704I81510802I80824850I79900999I79092113I78796092I78923989
2143I79044743I78945268I78740527I78603082I78658045I79016547I79689040I80484017
2135I81103201I81357115I81303956I81190571I81252301I81515088I81825394I82114497
2127I82474954I82839396I82879472I82508338I82128332I82065924I82152918I82113820
2119I81922388I81629676I81343054I81420048I82106000I82945940I83117296I82461946
2111I81714339I81609450I82170813I82951203I83563996I83814451I83624072I83083912
2103I82446909I81933666I81572382I81236435I80808083I80273637I79626859I78742934
2095I77481107I75905816I74299547I72971479I72067101I71483783I70958661I70270980
2087I69299760I67933420I66122937I64029216I61927374I59982754I58251972I56803450
2079I55745687I55235828I55470193I56470888I57860085I59063866I59843278I60484267
2071I61358416I62451444I63516876I64531179I65721877I67220400I68906520I70463690
2063I71450324I71601304I71270697I71231523I71810330I72539892I72872078I72905162
2055I73142685I73762395I74458422I74949935I75289038I75628818I75993487I76324395
2047I76513195I76436352I76166723I75981456I76005818I76119429I76325146I76806057
2039I77448700I77760434I77515392I77095461I76950571I77086965I77316442I77646973
2031I78121419I78565562I78774363I78759850I78688873I78731956I78996171I79422043
2023I79726786I79610092I79095496I78566164I78371724I78477440I78616766I78694737
2015I78849176I79158730I79503398I79719868I79785658I79862878I80176793I80779812
2007I81414859I81714941I81603285I81386589I81370273I81530201I81680654I81788701
1999I81958103I82214724I82450593I82548414I82542023I82615107I82865412I83134815
1991I83204140I83052408I82823381I82657514I82642626I82811276I83114589I83443919
1983I83714223I83907160I84018891I83998740I83834301I83679636I83720089I83873776
1975I83846858I83591214I83484596I83847610I84453335I84814694I84844018I84858304
1967I85009360I85160941I85306357I85653732I86271337I86976011I87503012I87586022
1959I87098269I86317804I85743132I85463653I85064774I84269723I83220381I81997728
1951I80430407I78602104I77072904I76357779I76482443I77097490I77699457I77842767
1943I77449678I76793501I76029427I75004221I73617956I72066500I70617452I69353595
1935I68261095I67440780I67066112I67131226I67435667I67880938I68604109I69740520
1927I71214230I72797716I74283305I75599420I76756357I77650132I78044200I77887505
1919I77497122I77271554I77287870I77210576I76586505I75345656I74026535I73332688
1911I73464645I74090220I74891287I75834085I76904930I77876979I78462929I78607217
1903I78530147I78501802I78628120I78822257I78861432I78474658I77540055I76305673
1895I75316858I74954746I75067606I75209939I75186856I75123470I75078057I74919859
1887I74628651I74427294I74569627I75147833I76065443I77069521I77821113I78042771
1879I77673140I76899292I75979049I75033620I74128492I73492992I73409456I73894051
1871I74694517I75592803I76533271I77467874I78236684I78710001I79039554I79590768
1863I80497250I81415913I81882688I81781709I81328393I80764022I80237321I79850021
1855I79575805I79165798I78345182I77112228I75669195I74067588I72075222I69408634
1847I66005266I62098731I58052645I54140320I50578979I47699455I45801452I44824818
1839I44420074I44333456I44484662I44713463I44693312I44121797I42898544I41127836
1831I38971632I36542266I33971168I31491275I29338455I27639027I26443066I25763505
1823I25604781I26034187I27110597I28656338I30209973I31263752I31519922I31034801
1815I30180651I29280710I28226180I26615776I24207012I21007783I17065231I12438308
1807I07322429I01990455H96668557H91605761H87175308H83699833H81200390H79513368
1799H78645909H78821476H80185485H82606205H85719342H89050678H92181636H94886346
1791H97099016H98826941I00218996I01625111I03381006I05471645I07517320I09176747
1783I10517222I11908374I13647127I15807841I18323373I21026655I23689634I26145542
1775I28327460I30205012I31810379I33258900I34588097I35613829I36080003I35928120
1767I35319538I34431327I33380557I32378960I31760002I31655413I31733985I31441049
1759I30481332I28954464I27042851I24700028I21742983I18223373I14589023I11460096
1751I09331412I08476133I08965616I10685947I13369302I16667631I20278446I24054152
1743I27931288I31753160I35294349I38449894I41250769I43741716I46005215I48195479
1735I50360479I52298709I53734223I54612960I55178910I55796740I56688033I57785046
1727I58823860I59582445I60034409I60323737I60646149I61132473I61752785I62300539
1719I62579340I62662200I62858820I63357024I64053201I64781485I65499543I66167600
1711I66675578I67003780I67280852I67610106I67985376I68412902I68917272I69366302
1703I69525779I69429010I69464500I69890823I70472412I70795651I70769335I70620084
1695I70574519I70711364I70999113I71340397I71645967I71923415I72252819I72677789
1687I73145767I73532692I73732470I73781719I73876758I74161876I74539777I74816398
1679I74972040I75111892I75235728I75274602I75303700I75483326I75780400I75937997
1671I75767166I75349114I74916400I74632936I74541130I74631809I74847903I75042643
1663I75041064I74803690I74483235I74275712I74270073I74463159I74766397I74926325
1655I74669629I74055107I73460960I73136369I73016591I72980351I72996893I73006818
1647I72929072I72799446I72767866I72972155I73408253I73879916I74176086I74349924
1639I74661131I75218887I75860402I76372591I76674100I76834705I77032828I77403060
1631I77848858I78126306I78141795I78034350I77976228I78032094I78209315I78524058
1623I78971359I79456330I79812050I79950925I79960925I79956037I79898668I79716409
1615I79502797I79413547I79454525I79552948I79747763I80129650I80652742I81145983
1607I81456290I81533735I81445462I81340121I81318618I81357040I81427492I81628473
1599I82048480I82553677I82870901I82869924I82622400I82219837I81698474I81110418
1591I80507702I79863104I79163994I78566087I78324806I78536088I79004967I79387983
1583I79500766I79442344I79369787I79283921I79202791I79337906I79841675I80535070
1575I81134404I81606969I82099760I82601498I82881052I82825111I82683379I82797140
1567I83218802I83830467I84630030I85567866I86349609I86737736I86816835I86755180
1559I86597433I86433670I86479912I86870821I87522562I88187686I88569723
1552I88528219I88271447I88170092I88331373I88553632I88684161I88776343
1545I88906195I89066799I89178756I89059656I88593859I88055879I87939261
1538I88300621I88601754I88402502I87957081I87848733I88180167I88463857
1531I88301824I87785875I87165262I86556153I86073439I85818096I85699146
1524I85612303I85710274I86164042I86813978I87328348I87592713I87745196
1517I87930163I88182949I88507917I88931684I89444851I89953206I90295392
1510I90336445I90149826I90070877I90372311I90924426I91412555I91780305
1503I92167080I92566560I92854986I93010478I93081081I93103637I93164165
1496I93325596I93472892I93438454I93241685I93018673I92833858I92708518
1489I92726262I93015891I93646128I94449375I95006152I95046604I94764043
1482I94497271I94365539I94432759I94759155I95078785I94983821I94592009
1475I94463210I94747275I94947580I94630807I93980570I93510938I93454771
1468I93588984I93592669I93419884I93336046I93700716I94612010I95595035
1461I95840077I95037205I93843876I93256873I93616128I94425240I95055627
1454I95358264I95568794I95880377I96243843I96438658I96256099I95755188
1447I95317060I95296232I95659096I96093765I96360311I96441290I96461741
1440I96571969I96841823I97204762I97497700I97542738I97217845I96519412
1433I95591952I94714868I94186363I94093655I94234710I94401405I94626972
1426I94985400I95341647I95511725I95454055I95145553I94565016I93891245
1419I93395823I93089577I92768668I92391745I92148132I92211065I92628742
1412I93357025I94264335I95187133I95989102I96513622I96651219I96566555
1405I96704453I97427923I98557418I99335176I99213068I98663284I98608471
1398I99044419I99001636I97891615I96117976I94597047I94170799I95007355
1391I96303468I97029120I96828514I96047298I95267811I94886225I94976076
1384I95393377I95917973I96350311I96587833I96636632I96557307I96411440
1377I96298882I96462493I97162882I98237186I99032088I99089758I98702157
1370I98552605I98921183I99405478I99434877I98943891I98408994I98277638
1363I98603057I99200286I99867441A000417676A000670086A000432563I99638113
1356I98631479I98000115I97906353I97994250I98018837I98027332I97993347
1349I97881165I97932595I98375159I99019005I99445478I99452997I99239986
1342I99226978I99649091A000370231A001144531A001816046A002207181A002141917
1335A001704992A001311601A001465138A002319514A003423969A004137591A004321429
1328A004281202A004149546A003770066A003083136A002349214A002045223A002459967
1321A003267801A003832923A003993002A004035709A004057965A004125485A004726098
1314A006110859A007537274A008033674A007623968A007181629A007265090A007422611
1307A006850270A005905366A006323945A009048429A012475181A014139872A013624450
1300A012479467A011842012A011468397A010878537A010334467A010400859A011019366
1293A011574413A011919457A012712855A014340552A016057725A016700218A015922610
1286A014389125A013032484A012393977A012547664A013412566A014893194A016563674
1279A017547601A017228723A016006822A014885449A014249573A013381062A011478246
1272A009183695A008501728A010530033A013892725A016305399A017072555A016895409
1265A015964867A013977914A011705017A010878161A012369390A015456436A018922513
1258A021880834A023567707A023464397A021982040A020484495A020067721A020583219
1251A021179921A021236012A020564722A019476733A018644012A018113852A017011953
1244A015157183A013877086A014093405A014879058A014871990A013981674A013029251
1237A012598191A012793758A013508583A014390328A014837779A014475216A013596254
1230A012866015A012701050A013158877A014093706A015046429A015392601A014981090
1223A014265363A013737609A013640164A014018366A014630858A015165229A015702606
1216A016447131A017118946A017307371A017170828A017154587A017242257A016987440
1209A016236601A015423805A015012369A014910638A014764770A014613941A014795974
1202A015315081A015741704A015728847A015377864A015081092A015176131A015718998
1195A016396904A016726685A016523072A016029830A015554634A015358390A015802307
1188A016944658A018123025A018684539A018929579A019605983A020681641A021194508
1181A020449607A019105975A018729652A020006442A021700907A022102193A021142702
1174A020419607A021566770A024797578A028604563A030942423A031051222A029947293
1167A028941936A028103501A026696484A024869760A023943428A024807428A027007693
1160A029637889A031925298A032822381A031818830A030290758A030257223A031660480
1153A032444480A031319498A029052841A027332134A027328976A028914266A030774902
1146A031522283A030661139A028432830A025463229A022746490A021086761A020542391
1139A021055407A022998374A026010983A027847181A026196024A022015650A019367257
1132A020888562A025095554A029091113A031714542A033152462A033383218A032396509
1125A031123930A030733923A031172954A031346190A030546853A029222168A028264933
1118A027906656A027564168A026618137A025090366A023457104A021992867A020578031
1111A019127628A017968436A017590610A017987609A018636191A019387333A020680738
1104A022669195A024711863A025943613A026100759A025733760A025704210A026316553
1097A027061754A027343488A027049573A026429712A026012111A026518511A028031545
1090A029348862A029302921A028253805A027411233A027559657A028575464A029769395
1083A030585951A030936559A031047989A031213030A031518223A031729279A031696572
1076A031656195A031703489A031423785A030731593A030399632A031030996A032023721
1069A032459291A032455533A032709071A033394572A034064584A034382107A034483087
1062A034664519A034979863A035140016A034843770A034367972A034673842A036248607
1055A037929539A038464962A038136911A037809385A037816003A037908260A037789912
1048A037503591A037312009A037310881A037341107A037310129A037330354A037469531
1041A037696302A038174731A039128883A040157473A040567630A040369507A040043486
1034A039858068A039612350A038966474A037947810A037018245A036617561A036603650
1027A036673276A037051027A037796904A038259243A038121121A037991269A038460751
1020A039343925A039985515A040020403A039749721A039855212A040584999A041388697
1013A041756373A041821788A041986678A042551425A043561894A044671838A045383354
1006A045490048A045152222A044940865A045705991A047452413A048735067A048847776
999A048661907A049046727A050005315A050998566A051840159A052804462A053868767
992A054621336A055035629A055709927A057355143A059914362A062197334A063401641
985A063856311A064024885A064187520A064844900A066378310A068060370A068964897
978A069570923A070563797A071429527A071578250A071490881A071995401A073057676
971A073741822A073438209A072229466A070409960A068166086A065619650A062883662
964A059914586A056613100A052911757A048363106A042400445A035207010A026967841
957A017698732A007586599I96410312I83515424I68793886I52008854I30297796
950H97754065H52956059H07473904G71543800G46323957G31507682G26527519
943G30518266G43567518G63184404G81884582G96394162H11724206H31214097
936H48800497H61649896H73239649H82721846H88412923H92571042H97479399
929I02458058I06224816I10668804I19012484I28069260I32611145I33987109
922I34514035I35064721I35952256I36833249I37025433I37360627I39927514
915I44446090I47691786I49040982I50541610I53566701I57106763I59235147
908I59540791I58539495I57112703I57839182I64032975I70301883I71235583
901I70296996I71527017I75412950I78363378I79193844I79212792I79028728
894I78697820I79024743I81471252I84947028I86386903I86061032I86006821
887I87519780I90251407I92970703I95569921I98646742A001417317A002642753
880A002857117A003675327A005281746A005022419A000865804I92379414I78984517
873I61087661I42141387I27489476I20934097I23003382I31134502I41218890
866I50279350I57739406I64316815I70597076I76467179I81283505I84331904
859I85037480I82972482I78176683I71750405I65906618I62859271I63217247
852I66082335I70990166I77894648I83750916I84786574I81324332I74119394
845I63044612I50487624I40330528I33741992I29631392I26372388I23356095
838I22419086I25709971I29589738I32660769I36712946I42024242I48092169
831I54448295I60044484I64156662I67489351I70978737I74780533I79792200
824I86279833I90093208I90159601I89402444I90377800I93387176I96102262
817I97387021I98446664A000419631A002777642A004456394A005861155A007826528
810A009676636A010710263A011508999A012406759A012984739A013061357A012873910
803A012755111A013596329A016847890A020515998A021089543A019746738A018366413
796A017919187A018975521A021579477A024420053A025969178A026516330A027540258
789A030158574A033335097A034408048A032543579A028512456A022777167A015210568
782A005520021I93410335I78780303I62359412I45314000I27743390I10192403
775H95565681H85786637H81654835H84868575H95382069I07617848I16207247
768I21236584I25524704I31923012I39181561I43039975I43719084I43107119
761I42094018I41148286I40920614I41833111I43849914I47117039I51671104
754I56812849I62189259I68854187I77205387I84632962I89566056I93644173
747I98568320A004085485A008743913A012223523A015382977A018564311A021270599
740A023445149A025415785A026028502A023128451A015905317A004231126I88320019
733I69842777I51843739I36794000I25324550I16941245I10916853I06664823
726I04406513I05244047I09888564I17909382I28332723I39037047I47313133
719I52788342I57284511I62489941I68421699I73727357I77629531I80362285
712I82163370I82945038I82667589I81536216I79712500I76773424I71489272
705I62568965I49858214I35436833I23346696I17043803I18044723I25926591
698I37294385I47569903I54353106I56791720I54417318I48150741I41121144
691I37288971I39029754I45837919I55269363I64995399I73754726I81255459
684I87918133I94256740A000134211A005072344A009141739A012815939A016335474
677A019596284A022472274A025094050A027805075A030935431A034607300A038682259
670A042963161A047442488A052120164A056615056A060239330A062279140A061819508
663A057325745A046821274A029680973A009620770I94980212I93149954A004069770
656A020541338A034619105A042622479A044695974A041869157A034560908A022930252
649A007665247I90314339I72899071I57078492I43546525I31994517I21269592
642I09472768H94362276H74262599H48984860H20208265G91072790G65040227
635G44675056G31072486G23990783G22251579G24156500G27960627G32397471
628G36989507G41881398G47365104G53552430G60302549G67172744G73472104
621G78635653G82648957G86096912G89863445G94763681H01268683H09367472
614H18576882H28107802H37124577H44943362H51055198H55011659H56368751
607H54983839H51572426H47792209H45436077H45499386H48026047H52481163
600H57973591H63401581H67895269H71359465H74519897H78308911H83162831
593H88848946H94825517I00676523I06266997I11602804I16668533I21429593
586I25872981I29946662I33518679I36418504I38454781I39398106I38964941
579I36768736I32302041I24959807I14106533H99437027H81498064H61630045
572H41622777H24222245H13471905H12637455H21139108H34652053H48544026
565H60523335H70387945H78615458H85532046H91120189H95209735H97856473
558H99412967I00178920I00213280H99638008H98939799H98727391H99292363
551I00662086I03020248I06766479I12136499I18938046I26652392I34665241
544I42411768I49459261I55598015I60798182I64903743I67347921I67204535
537I63325519I54417694I39645629I19861296H98216028H79112760H66172908
530H60645818H61046427H63944297H65301614H61712153H51313398H34425056
523H13695669G93319596G77365857G68095243G65275644G66509500G68003737
516G65969341G58878237G48980170G40924990G38250883G41182138G47575634
509G55262160G63245984G71369135G79610032G87717768G95136696H01171013
502H05248453H06930287H05881396H02496675G98745105G97623882H01049131
495H08358808H17124752H25209781H31882380H37372176H41956016H45610441
488H48202366H49696753H50289395H50611130H51658292H54149313H57944568
481H62239079H66169825H69113937H70740958H71198636H71301645H72302865
474H75172991H79930744H85689868H91388991H96459080I00865097I04482378
467I06164589I03397999H93337972H74641403H48718616H19858033G94091264
460G76489075G68305246G67070337G69853093G75682895G84609593G95797083
453H07564433H18706735H29043231H38931075H48648916H58134646H67110143
446H75450665H83383963H91194250H98668367I04708172I07279346I03987784
439H93747378H78727114H64175654H55047600H52024689H50736621H45093139
432H32282537H15808864H03912414H03957827H17270167H38908218H61709145
425H79583294H87339897H80018114H55530540H18827488G81642774G55843298
418G45858536G47130062G51668262G55137496G58957638G66613863G79263033
411G95052709H11289085H26164159H38937241H49550059H58314573H65628237
404H71738119H76677529H80373308H82830194H84235707H84923388H85252417
397H85388284H85121136H84170743H82898390H82453270H83928032H87531179
390H92658110H98364226I03509430I06908587I07989057I07430175I06880316
383I07836498I10714744I14818651I18995567I22411867I24991161I27268720
376I29846585I32973181I36471061I39868340I42690194I44814818I46522442
369I48166155I49884832I51621103I53271057I54713263I55714634I55848471
362I54287315I49507382I40055636I26886683I14472780I07874694I08543578
355I13911718I20365892I25277557I26697958I22717437I12280937H97415262
348H84362702H80472032H88503826I04580877I21953137I35479165I42481093
341I41949204I35042465I25349287I16790941I11385809I09722772I12416128
334I19634299I29831772I40234587I48539244I53693170I55318311I53119024
327I47707124I42150034I41159039I47203507I57999411I68762307I76168001
320I79589640I79794155I77590432I73195392I65832255I53583694I34138164
313I06524445H72432492H35819742H01411092G72998036G51617735G34936765
306G19726422G05709784F96273152F95115763G02818755G16478545G31384973
299G42524642G45676878G39178117G25811717G12132228G04522771G05723243
292G15204162G31462718G52672265G76139294G98945710H19506072H38008202
285H55280460H71486235H85837314H96958262I02666181H99092284H81258586
278H47086181H02472163G61240310G37591247G37319739G55989239G84347709
271H14345605H41439841H64159715H82864104H98475807I11700175I22831649
264I31658271I37032876I36032558I24100995H98710398H64685589H33403760
257H13590178H03979107G96953946G87866192G78756633G74616560G78863327
250G91933782H11394726H31704557H44076880H38589265H10303128G65235117
243G17658867F80030535F56676365F45854972F44849465F51831393F64294394
236F78160503F89534988F97209108G03182522G10428890G19983043G30349391
229G39694893G47948196G56354435G65599334G74853858G82124512G85407953
222G84619669G82860841G84522073G91317230H00886346H09675523H16101501
215H20672559H24550597H28469463H32258778H35415525H38223995H41732102
208H45853002H49141556H51507086H53733291H56170928H58783530H61624332
201H64855215H68406331H71880828H74753059H76403765H75759016H71405030
194H63308121H54484357H49495021H50686996H56515670H63182104H66609382
187H64005953H56488677H49928111H50211951H57568621H67439472H75657285
180H80704216H81324302H73889059H54994365H28273745H05791244G98915409
173H08195798H24530446H39353564H50381051H58730897H65179808H69931470
166H73551082H76767230H79711191H82000554H83555620H84918650H86697705
159H88860901H90756198H92043437H93394064H95573952H98029032H99525901
152H99949141I00262380I01136831I02371966I03313936I03502813I03119573
145I02764905I02766108I03079648I03858533I05469990I07686044I09303968
138I08958923I06126768I01184426H95315225H90597473H88714508H89027596
131H89376098H89125041H89894228H92938942H97293681I01030514I03367698
124I05059231I07114907I09578258I11654310I12701847I12769818I12381616
117I12106348I12227929I12598762I12657560I11579572I08571473I03209274
110H95631020H86888836H79382764H75699767H76335568H79625927H83581335
103H87241023H90588901H93641662H96353138H98993485I01729925I04248164
96I06235117I07570930I07799881I06200905I02529939H97312629H91547339
89H86400933H83049746H82084692H82714628H83261329H82947865H82665454
82H83649380H86199877H89869791H93936630H97546392I00043729I01262322
75I01500221I01627141I02839643I05568488I08758845I10769858I11194527
68I10869333I10391430I09762021I08970729I08084397I06596326I03232207
61H97101572H89441889H83342609H80632937H81057981H83756751H87872914
54H92925033H98599042I04046883I08460870I11791305I13978862I15170687
47I16918312I20829509I26047946I29706657I30384865I29215822I27704216
40I26404193I25364551I24856647I25305601I26415923I26752320I24195432
33I16730865I05702175H95554252H87282001H79359155H70953518H62630515
26H55392944H49445020H44607115H41833908H42780090H47582506H54708120
19H62601041H69628006H73438449H73569955H71992259H70656670H70687499
12H72377378H75196450H77698374H77476566H73276792H67477668H62785179
5H58751349H53237944H44945166H35520188H29553918
$$ === CHEMSPECTRA ===
##$OBSERVEDINTEGRALS= (X Y Z)
##$OBSERVEDMULTIPLETS=
##$OBSERVEDMULTIPLETSPEAKS=
##END=


$$ === CHEMSPECTRA PEAK TABLE EDIT ===
##TITLE=STM-116
##JCAMP-DX=5.00
##DATA TYPE=INFRAREDPEAKTABLE
##DATA CLASS=PEAKTABLE
##$CSCATEGORY=EDIT_PEAK
##$CSTHRESHOLD=0.93
##MAXX=3997.453
##MAXY=0.8511850245343062
##MINX=373.96442
##MINY=0.511190117066111
##$CSSOLVENTNAME=- - -
##$CSSOLVENTVALUE=0
##$CSSOLVENTX=0
##NPOINTS=53
##PEAKTABLE= (XY..XY)
392.3793345973413, 0.6901937734768538
405.12812162627006, 0.6673451671092596
426.3761000078184, 0.733159602837386
454.7067378498823, 0.6981022371745367
490.1200351524626, 0.6997134699653847
495.7861627208754, 0.6992530837653783
524.1168005629397, 0.6941915760254156
538.2821194839717, 0.7230520859792648
556.6970340813132, 0.704834164350591
560.9466297576228, 0.7045087234163576
577.9450124628615, 0.7156468641408061
619.0244373338542, 0.6333224785301325
634.6062881469898, 0.6737616670890291
644.5220113917121, 0.6734183445931344
685.6014362627047, 0.620595575677905
711.0990103205627, 0.511190117066111
729.5139249179042, 0.6140601046908648
760.6776265441749, 0.5844938767136364
789.0082643862388, 0.5584948074404169
801.757051415168, 0.5510376104017842
832.9207530414383, 0.7460829626713553
848.5026038545734, 0.7211625589491447
864.084454667709, 0.6979746833030506
878.2497735887409, 0.719697536086534
916.4961346755276, 0.7189092649723943
929.2449217044564, 0.6995452658035041
964.6582190070367, 0.5912628187302569
981.656601712275, 0.6372837434602816
1021.3194946911649, 0.6080780037073786
1076.56423848319, 0.632298649134036
1097.8122168647378, 0.5852320204761738
1107.7279401094602, 0.6066553006199725
1123.3097909225953, 0.6822578917017149
1155.8900244409692, 0.7124462144289915
1178.5545347146208, 0.6442003262788726
1228.1331509382326, 0.6702007067239228
1267.7960439171225, 0.5725489269347436
1351.3714255512118, 0.743015052063763
1365.5367444722438, 0.7269661439671374
1400.950041774824, 0.7169482124883567
1447.6955942142295, 0.7458939565384876
1467.5270407036746, 0.698912324158558
1559.6016136903827, 0.7312272803953633
1582.2661239640343, 0.7632853404952119
1604.9306342376854, 0.7300500882878195
1655.9257823534008, 0.7587298761146245
1709.7539942533226, 0.5759385835721538
2851.4786992885065, 0.7201743135198814
2868.477081993745, 0.7385491738552438
2920.888762001564, 0.6965270647799474
2954.8855274120406, 0.7337526694797551
2976.1335057935885, 0.7485994113712805
3316.1011598983578, 0.7572420250686932
##END=


$$ === CHEMSPECTRA PEAK TABLE AUTO ===
##TITLE=STM-116
##JCAMP-DX=5.00
##DATA TYPE=INFRAREDPEAKTABLE
##DATA CLASS=PEAKTABLE
##$CSCATEGORY=AUTO_PEAK
##$CSTHRESHOLD=0.93
##MAXX=3997.453
##MAXY=0.8511850245343062
##MINX=373.96442
##MINY=0.511190117066111
##NPOINTS=176
##PEAKTABLE= (XY..XY)
3996.036468107897, 0.7734067451521869
3983.287681078968, 0.7732582109459519
3974.788489726349, 0.7729513658211546
3962.0397026974197, 0.7731934205076781
3950.707447560594, 0.7742959273481742
3945.0413199921813, 0.7744464885594705
3933.709064855356, 0.7742195741817721
3925.2098735027366, 0.7740983383510911
3919.543745934324, 0.7732544550014934
3905.3784270132915, 0.7728872309687963
3892.6296399843627, 0.775094867786178
3886.96351241595, 0.7739894999909435
3874.214725387021, 0.7726528657422238
3864.299002142299, 0.7773835673659998
3855.799810789679, 0.7711105360616315
3841.6344918686473, 0.772861659947184
3821.8030453792026, 0.7740540518181404
3817.553449702893, 0.7774385826774017
3807.6377264581706, 0.7753576649891013
3803.3881307818606, 0.7751775992407003
3796.3054713213446, 0.7799220102995682
3789.2228118608286, 0.7780422583963198
3780.7236205082095, 0.7776359933107232
3772.2244291555903, 0.7763081210827085
3760.8921740187648, 0.7780883919851145
3752.392982666145, 0.7714239370455829
3746.7268550977324, 0.7781149761128936
3736.81113185301, 0.7739440814426514
3726.8954086082877, 0.7771565919482585
3714.146621579359, 0.7760069978673882
3702.8143664425334, 0.7783099419735873
3691.4821113057073, 0.7757583873217107
3677.3167923846754, 0.7746083152259589
3670.2341329241594, 0.7818982015069752
3657.4853458952307, 0.7776203765724722
3650.4026864347147, 0.7744963780927238
3636.2373675136823, 0.7779467719510128
3630.5712399452696, 0.7757807985301926
3620.655516700547, 0.7778062831395246
3609.3232615637216, 0.77993011594163
3602.2406021032057, 0.7793545138860835
3596.574474534793, 0.7793795482309549
3589.491815074277, 0.7775337116024574
3579.576091829554, 0.7787184132207349
3569.6603685848318, 0.7778110521901499
3559.7446453401094, 0.7795653358888328
3554.0785177716966, 0.7784057272772862
3546.9958583111807, 0.7788913261859258
3529.997475605942, 0.7774754183614784
3517.248688577013, 0.778639377463356
3512.9990929007035, 0.7787304531710169
3504.4999015480844, 0.7768116610075967
3496.000710195465, 0.7774601591434787
3484.6684550586397, 0.7764602320769124
3470.5031361376073, 0.7767949717085917
3457.7543491086785, 0.7770869151356407
3450.6716896481626, 0.7772299660434755
3442.1724982955434, 0.778058709084248
3436.5063707271306, 0.7775639906346521
3411.0087966692727, 0.7759189020236403
3403.9261372087567, 0.775765897625172
3392.593882071931, 0.777817072165291
3378.428563150899, 0.7785109888494649
3371.3459036903832, 0.7779379496829928
3361.430180445661, 0.7781491292059934
3316.1011598983578, 0.7572420250686932
3290.6035858405003, 0.769922257655385
3267.939075566849, 0.7736876617351205
3255.1902885379204, 0.774455906166091
3243.8580334010944, 0.7758339065384355
3232.525778264269, 0.7755824936998789
3209.8612679906173, 0.7779595269417976
3198.5290128537918, 0.7788884057766
3187.196757716966, 0.7789681565744816
3174.4479706880375, 0.7797902232614699
3167.3653112275215, 0.7796356096255066
3131.952013924941, 0.7739859834502896
3110.7040355433933, 0.7666202204322969
3089.456057161845, 0.7747103583231478
3080.9568658092257, 0.771587909626307
3066.791546888194, 0.7756856101505496
3055.4592917513683, 0.7728737601447812
3044.1270366145427, 0.772455634265392
3025.7121220172007, 0.7716487657563604
2976.1335057935885, 0.7485994113712805
2954.8855274120406, 0.7337526694797551
2920.888762001564, 0.6965270647799474
2868.477081993745, 0.7385491738552438
2851.4786992885065, 0.7201743135198814
2783.4851684675527, 0.7684933554363482
2773.56944522283, 0.7694014323001638
2733.9065522439405, 0.7725458752306479
2722.574297107115, 0.7723310008032316
2709.825510078186, 0.7713086022808683
2702.7428506176702, 0.7711401595079107
2677.2452765598123, 0.7752689730140252
2658.8303619624703, 0.7764083757859129
2643.248511149335, 0.7779185785857389
2620.584000875684, 0.7755453004955509
2609.2517457388585, 0.7762413036393735
2595.0864268178266, 0.7790004626117375
2579.504576004691, 0.781973422658036
2568.1723208678654, 0.7833499327020603
2552.59047005473, 0.7831669465443336
2545.507810594214, 0.7830951824793394
2531.342491673182, 0.7813223021784924
2508.677981399531, 0.7848567378704069
2483.1804073416733, 0.7869476692966559
2470.431620312744, 0.7882612359582504
2461.932428960125, 0.7883386624781342
2453.433237607506, 0.7875392448179769
2447.7671100390926, 0.7874451282063601
2437.8513867943702, 0.7873823655658756
2420.853004089132, 0.7889990222005365
2398.188493815481, 0.7880457059449186
2376.940515433933, 0.7865034357189136
2364.1917284050037, 0.7900060425957256
2345.776813807662, 0.7881068601406361
2335.8610905629394, 0.7886739982411417
2323.1123035340106, 0.789793850759286
2313.1965802892882, 0.7915804397024971
2304.697388936669, 0.7913624657092655
2290.532070015637, 0.791068137756904
2283.449410555121, 0.7910481705283219
1709.7539942533226, 0.5759385835721538
1655.9257823534008, 0.7587298761146245
1648.8431228928848, 0.7691814320945987
1638.9273996481625, 0.7758409990743306
1630.4282082955433, 0.7816350475765284
1604.9306342376854, 0.7300500882878195
1582.2661239640343, 0.7632853404952119
1559.6016136903827, 0.7312272803953633
1535.5205715246284, 0.7843268524288165
1467.5270407036746, 0.698912324158558
1447.6955942142295, 0.7458939565384876
1400.950041774824, 0.7169482124883567
1365.5367444722438, 0.7269661439671374
1351.3714255512118, 0.743015052063763
1304.625873111806, 0.7872976078990198
1267.7960439171225, 0.5725489269347436
1228.1331509382326, 0.6702007067239228
1178.5545347146208, 0.6442003262788726
1155.8900244409692, 0.7124462144289915
1123.3097909225953, 0.6822578917017149
1107.7279401094602, 0.6066553006199725
1097.8122168647378, 0.5852320204761738
1076.56423848319, 0.632298649134036
1021.3194946911649, 0.6080780037073786
981.656601712275, 0.6372837434602816
964.6582190070367, 0.5912628187302569
929.2449217044564, 0.6995452658035041
916.4961346755276, 0.7189092649723943
878.2497735887409, 0.719697536086534
864.084454667709, 0.6979746833030506
848.5026038545734, 0.7211625589491447
832.9207530414383, 0.7460829626713553
801.757051415168, 0.5510376104017842
789.0082643862388, 0.5584948074404169
760.6776265441749, 0.5844938767136364
729.5139249179042, 0.6140601046908648
711.0990103205627, 0.511190117066111
685.6014362627047, 0.620595575677905
644.5220113917121, 0.6734183445931344
634.6062881469898, 0.6737616670890291
619.0244373338542, 0.6333224785301325
577.9450124628615, 0.7156468641408061
560.9466297576228, 0.7045087234163576
556.6970340813132, 0.704834164350591
538.2821194839717, 0.7230520859792648
524.1168005629397, 0.6941915760254156
495.7861627208754, 0.6992530837653783
490.1200351524626, 0.6997134699653847
454.7067378498823, 0.6981022371745367
426.3761000078184, 0.733159602837386
405.12812162627006, 0.6673451671092596
392.3793345973413, 0.6901937726841261
##END=

##END=

