##TITLE=HMS-Q257
##JCAMP-DX=5.0
##DATA TYPE=LINK
##BLOCKS=1


$$ === CHEMSPECTRA SPECTRUM ORIG ===
##TITLE=HMS-Q257
##JCAMP-DX=5.00
##DATA TYPE=INFRARED SPECTRUM
##DATA CLASS=XYDATA
##$CSCATEGORY=SPECTRUM
##ORIGIN=Angelika Moesle
##OWNER=
##XUNITS=1/CM
##YUNITS=TRANSMITTANCE
##XFACTOR=1.0
##YFACTOR=7.7979429e-10
##FIRSTX=3997.453
##LASTX=373.96442
##MAXX=3997.453
##MAXY=0.8372977417297964
##MINX=373.96442
##MINY=0.3480218672325754
##NPOINTS=2559
##XYDATA= (X++(Y..Y))
2559I62545631I62651725I62710046I62626424I62311201I61984741I61938879I62137843
2551I62316322I62343457I62326717I62442977I62710657I62904041I62831197I62665636
2543I62706988I62865135I62799247I62485781I62230637I62249440I62509018I62841669
2535I63065398I63093986I62957012I62732136I62589276I62766226I63279191I63790245
2527I63918199I63586924I63104380I62933928I63184716I63472346I63443147I63174473
2519I62893340I62627112I62379764I62282155I62376247I62478595I62403536I62307073
2511I62545478I63008071I63034518I62227426I61124220I60539559I60507990I60608810
2503I60699158I60856540I61085161I61358116I61618229I61790516I61984130I62402694
2495I62883556I62892805I62256778I61618687I61512594I61706359I62015086I62617099
2487I63434203I63931652I63572477I62582856I61971365I62058655I62093739I61477968
2479I60739744I60745325I61344051I61774159I61813828I61891183I62243171I62723651
2471I63098724I63209405I62906181I62288117I61810313I61686563I61686486I61557462
2463I61417125I61505485I61848149I62329010I62726632I62576206I61558302I60629524
2455I60649245I61296737I62164825I63049194I63833584I64424437I64671785I64339440
2447I63343703I62218024I61820709I62290028I63055309I63568885I63694774I63514844
2439I63042850I62468507I62255402I62513221I62698886I62372808I61938650I61649568
2431I61170006I60599332I60533826I61092041I61886902I62415842I62307073I61868787
2423I62009965I62945470I63823264I63770906I63179212I62753997I62481653I62364248
2415I62697739I63373361I63754242I63478231I62954795I62724492I62723575I62627341
2407I62503285I62601277I62884856I63130828I63280873I63405846I63553750I63759058
2399I64004113I64123201I63863471I63130522I62207629I61682970I61874749I62515286
2391I63107744I63454460I63782066I64250850I64637465I64403646I63194958I61896380
2383I61744960I62439461I62972528I63041627I63404852I64409073I65583748I66413464
2375I66422713I65288702I63611078I62570091I62294385I62124237I61808402I61685951
2367I62028539I62465984I62462851I62150455I62134402I62797106I64075429I65588257
2359I66722649I66816284I65850434I64966447I64967593I65481323I66034034I66421567
2351I66464524I65981752I65098988I64306343I64061670I64442247I65133384I65802356
2343I66207086I65809770I64292584I62788240I62437015I63075640I64205141I65539491
2335I66794882I67567653I67449712I66223214I64621184I63904746I64103022I64671556
2327I65418798I66341461I67160936I67477076I67141826I66392215I65706351I65461067
2319I65707345I66259904I66987349I67861704I68637304I68621176I67126769I65057483
2311I64187484I64753190I65882002I66569624I66358124I65735243I65526420I65903634
2303I66328543I66318225I65959814I65661254I65686937I65904933I66050315I66111464
2295I66296670I66883242I67900152I68774966I68764800I68014424I67232327I66837762
2287I66800843I66718293I66190423I65409549I65233669I66215265I67886164I69146447
2279I69100279I67936306I66714471I66150600I66248591I66742905I67371518I68007239
2271I68697842I69314760I69293510I68524790I67761420I67493740I67420743I66969157
2263I66125146I65591009I66014161I67246544I68478011I69022696I68764111I68061127
2255I67596470I67835410I68427639I68768775I68625456I68166303I67797498I67880508
2247I68458214I69188563I69593522I69557522I69488881I69747084I70099608I69989387
2239I69381871I68906284I69035079I69668201I70385480I70790364I70781039I70633822
2231I70673645I70866418I70845551I70367823I69732714I69561954I70072703I70813218
2223I71224293I71189132I70871616I70430731I70105800I70201192I70781574I71622603
2215I72552222I73610331I74743729I75582083I75711643I75109248I74198509I73269807
2207I71965420I69499430I65221133I58925910I50636615I40223383I27558410I13320837
2199H99584305H89051450H83368100H82403626H84842787H88982275H93401443H97518536
2191I01578148I05996246I10690968I15096912I18749120I21643764I24087971I26420656
2183I28912023I31667631I34420869I36604732I37893984I38584893I39272744I40265805
2175I41409217I42421998I43261729I44102452I45058365I46080625I47089433I48046187
2167I48918173I49666485I50226534I50540611I50741027I51159898I51964239I52902877
2159I53580791I53909162I54173479I54665194I55325910I55850951I56078961I56113815
2151I56118250I56178481I56302767I56468940I56770175I57425617I58444590I59421906
2143I59879454I59718326I59283785I59078248I59283480I59453627I58819511I56878944
2135I53489985I48355066I40541435I28786209I12816358H94655382H78280189H67582231
2127H64328106H67674872H75295196H84722705H94080886I02416196I09624374I15857226
2119I21035407I24992060I27821276I29865108I31445506I32750810I33974251I35378158
2111I37054102I38774990I40275283I41491768I42415731I43026610I43450832I43868557
2103I44344603I44965572I45804155I46612546I47055036I47243987I47531693I47949953
2095I48352009I48781963I49309527I49842136I50333622I50834815I51269203I51496983
2087I51583738I51704354I51816564I51732942I51531456I51570591I52012852I52634509
2079I53195170I53644998I53874613I53711345I53306843I53078681I53138836I53230789
2071I53274817I53477373I53898460I54345537I54606873I54489084I53909926I53195399
2063I52903565I53229719I53975203I54975832I56069636I56850739I56949342I56427740
2055I55695098I55209345I55248022I55740425I56354973I56827197I57123846I57308210
2047I57355754I57120942I56549962I55937707I55764196I56177258I56809082I57152357
2039I57009803I56638781I56510292I56820853I57273203I57446102I57263419I56987178
2031I56895072I57062927I57338021I57497085I57493569I57494334I57649499I57938658
2023I58252353I58497255I58614432I58619630I58621464I58720679I58933401I59231426
2015I59533656I59636004I59384223I59000130I58976358I59499947I60181683I60508984
2007I60381794I60066341I59804011I59648846I59597022I59676667I59880906I60114343
1999I60259496I60229074I59937316I59332858I58542429I57870324I57536832I57519328
1991I57720127I58084117I58453839I58590431I58488006I58404613I58467063I58505281
1983I58345453I58022891I57676940I57412316I57231087I57022415I56742353I56603315
1975I56844776I57306300I57559992I57527966I57576350I57897153I58237830I58427775
1967I58694767I59166226I59480838I59250153I58619095I58073492I57911829I58102767
1959I58452999I58761037I58947771I59104924I59322462I59532662I59687064I59940374
1951I60400674I60820539I60843240I60533520I60343958I60504933I60747923I60718267
1943I60413286I60041193I59668031I59271403I58971466I58890902I58888992I58710742
1935I58342472I57979246I57721120I57518182I57399246I57573598I58179127I58944483
1927I59267963I58817371I57988036I57506105I57591178I57732891I57307675I56240624
1919I55020165I54220487I54101400I54569113I55384613I56313315I57106266I57501977
1911I57391144I56944068I56452200I56033787I55624776I55284023I55276685I55661619
1903I55979747I55615833I54408597I52723634I50965292I49234849I47568689I46326445
1895I46042330I46885348I48480192I50186482I51331422I51484448I50923252I50544127
1887I50931736I51811060I52572213I52888125I52686333I51997947I51102342I50527388
1879I50585021I50990898I51221124I51225175I51446153I52093034I52751992I52735099
1871I51560807I49172781I46009922I42915013I40809344I40255639I41169130I42953843
1863I44992707I46951770I48696660I50207807I51554387I52690002I53328628I53251886
1855I52667759I52105492I51964315I52207230I52518097I52732577I52973887I53359355
1847I53812852I54221328I54575840I54881586I55011604I54719846I53836471I52379594
1839I50371840I47687089I44302410I40564289I36978047I33885355I31515752I30142649
1831I29922512I30688251I32101713I33930606I35985521I37884201I39145248I39553189
1823I39333434I38981520I38940245I39385411I40249906I41333010I42345562I43008189
1815I43157775I42557062I40749036I37589462I33863112I30874450I29406260I29340449
1807I30124304I31292862I32599466I33898502I35087470I36181198I37283716I38387763
1799I39297509I39809709I39927114I39900898I40031604I40396434I40864684I41343252
1791I41800189I42146062I42346250I42520525I42759542I43003832I43156246I43137902
1783I42924338I42690290I42774600I43395874I44511081I45887089I47191169I48175135
1775I48895242I49573384I50210406I50587925I50668413I50705790I50867300I50991586
1767I50853389I50510266I50232038I50193361I50369623I50668948I51059385I51552629
1759I52123685I52653465I52969148I52978931I52776604I52578940I52561971I52760247
1751I53019978I52982142I52266697I50794304I48773861I46284711I43143252I39369818
1743I35601046I32853694I31928355I33006031I35614345I38894460I42031714I44565351
1735I46396995I47664387I48657219I49645083I50586626I51140866I51170447I51073220
1727I51348849I51992444I52587577I52834237I52716602I52314546I51772765I51365513
1719I51328670I51620581I51970048I52141571I52114054I52068192I52204937I52506249
1711I52725239I52690155I52514809I52441201I52631834I53164366I53985522I54803468
1703I55282571I55413965I55474197I55620802I55777420I55891310I56015290I56112823
1695I56055112I55864786I55728042I55724067I55765878I55818618I55939847I56096465
1687I56154633I56040667I55766031I55370549I54983628I54830449I55018712I55365428
1679I55558277I55468923I55227231I55022458I54959627I55098512I55448132I55887182
1671I56241618I56447231I56527490I56504712I56428505I56358107I56260880I56088210
1663I55933197I55951771I56169691I56469704I56706351I56801056I56790354I56747244
1655I56656285I56461449I56187119I55899107I55634790I55446680I55393174I55464642
1647I55638841I55951542I56381344I56774991I57015078I57159619I57301637I57390686
1639I57324798I57185454I57228411I57574974I58018305I58246238I58201676I58095964
1631I58097264I58151381I58142742I58092142I58094971I58130590I58065313I57867571
1623I57736637I57918555I58390856I58828148I58934548I58740629I58519422I58465840
1615I58531575I58561997I58525537I58540060I58672447I58831282I58908254I58897476
1607I58815078I58649440I58452081I58364179I58508186I58912305I59502088I60092175
1599I60425439I60349538I59993497I59683548I59586321I59507209I59173182I58647376
1591I58299744I58425405I59019316I59839172I60561343I60950251I60993514I60872286
1583I60780945I60805863I60942913I61156247I61400538I61647809I61904789I62158939
1575I62308678I62236905I61987340I61793191I61877424I62253415I62746735I63161250
1567I63373437I63281560I62820649I62169488I61798542I62038475I62650731I63077475
1559I63087489I62955406I63061500I63485187I63965819I64215613I64250697
1552I64285933I64332713I64217676I64001438I63968112I64152247I64277909
1545I64255895I64410602I65029659I65865874I66321053I66143644I65679981
1538I65313010I64973097I64433227I63799111I63449797I63641729I64274469
1531I64902088I65013991I64470452I63604581I62804750I62107651I61256150
1524I60058927I58686894I57699183I57705604I58839919I60578541I62154658
1517I63112789I63465619I63536476I63743389I64303515I65063445I65737843
1510I66226807I66568707I66793888I66927040I66933689I66783263I66800232
1503I67532951I68902920I70036625I70319057I70019809I69650010I69370482
1496I69154396I68976146I68823579I68787425I68921800I68981038I68725282
1489I68389803I68368019I68584334I68631189I68373293I68069458I67995009
1482I68166685I68394848I68482979I68428556I68497426I68947254I69579306
1475I69848362I69585038I69196283I68966745I68725741I68420148I68343330
1468I68547643I68649152I68467614I68367942I68696695I69205150I69319269
1461I68895506I68424352I68389420I68658095I68713740I68378261I68031317
1454I68037890I68204368I68055394I67502912I66895854I66531711I66444650
1447I66507405I66476676I66173072I65790355I65746557I66166269I66785939
1440I67338421I67789242I68220420I68643572I68979204I69192003I69341207
1433I69435223I69344952I68993192I68561556I68370618I68528994I68813261
1426I68963611I68954439I68850791I68616284I68266205I68005634I68038578
1419I68401956I69035538I69810373I70456643I70663097I70345045I69789124
1412I69479404I69677679I70177726I70591170I70782261I70835155I70758337
1405I70468108I69986406I69440497I68858817I68164010I67467140I67102156
1398I67224989I67661670I68201464I68731856I69122828I69212258I68962235
1391I68586397I68494368I68974236I69740892I70082333I69739593I69173735
1384I68796903I68559263I68386899I68349980I68307863I67942114I67194644
1377I66405286I66001549I66144560I66694139I67388409I67951593I68183654
1370I68158430I68252676I68717639I69327142I69727745I69990610I70435393
1363I70995901I71202203I70850825I70311031I70039224I70050077I69980062
1356I69539253I68898640I68563084I68693103I68790253I68434365I67979263
1349I68020080I68590066I69325843I69916467I70080652I69715591I69296109
1342I69580376I70724705I72019689I72638442I72567739I72611078I73328892
1335I74310564I74829338I74784088I74507999I74059165I73292967I72471735
1328I72240667I72839470I73754108I74402976I74776062I75089451I75313945
1321I75384648I75386788I75351246I75339780I75624888I76222620I76523856
1314I76060193I75436778I75800309I77385829I79206620I80269162I80414161
1307I79854189I78757174I77565913I76869348I76645543I76337580I75926811
1300I76252048I77805312I79599426I79952333I78498207I76579578I75344748
1293I74489501I73361913I72307779I72224922I73285935I74714225I75734727
1286I76332077I76921096I77545275I77698301I76928586I75550744I74696415
1279I75260668I76820658I78134447I78553624I78381413I78269280I78554082
1272I78578083I77102479I74211961I71789999I71305545I72273535I73435215
1265I74299481I75196003I76624828I78447683I79464669I78957590I78451734
1258I80001634I83252243I85508263I84772181I82090946I80156342I80094810
1251I80831810I81118981I80685893I79688322I78482614I77896577I78606823
1244I80124085I81174015I81203367I80898997I81073731I81597244I81786729
1237I81489086I81251445I81500169I81938991I81858427I80946159I79636802
1230I78548350I77800267I77160571I76609617I76370372I76571934I77101562
1223I77543899I77384223I76696907I76259462I76502912I77006093I77516000
1216I78480703I79949352I81000275I80843734I79641695I78015206I76570711
1209I75987578I76677034I78132001I79264406I79546379I79304076I78933436
1202I78560427I78440498I78772385I79126973I79058180I79101060I80078300
1195I81708382I82884661I82923567I81778627I79756121I77661000I76531041
1188I76846417I78232667I79849067I80934082I81075183I80080669I77952605
1181I75371578I73719482I73881527I75191646I76155203I76291031I76762490
1174I78742269I81555432I83633585I85008446I86917062I89244167I90492755
1167I90093527I89038706I88289401I87745174I86909342I85883106I85137318
1160I84578338I83871761I83487667I83947356I84289256I82974474I80394976
1153I78722241I79083557I80492509I81525164I81839012I82074589I82991137
1146I84787163I86848346I87936265I87075666I84830043I83158074I83451055
1139I85152758I86693333I87453950I88045339I88912969I89829363I90707542
1132I91728426I92529861I92378517I91274547I90279880I90565370I92134379
1125I93707822I94133190I93383655I92082326I90831521I89846486I88839894
1118I87732638I87238782I87930303I89161157I89809796I89580105I88922523
1111I88284891I87884517I87730498I87508067I86722226I85228048I83464125
1104I82035529I81116612I80551135I80546626I81620709I83703066I85856659
1097I87169455I87636405I87941233I88509996I89056440I89067446I88276712
1090I86801949I85179893I83948885I83008565I81652659I79532696I77327583
1083I75926047I75358659I74864269I73542914I71035342I68123193I66477900
1076I67285985I70077518I73271259I75878962I77959331I79623656I80628030
1069I80925750I80729538I80129971I79245067I78477646I78262400I78740511
1062I79795791I81196564I82635326I83828497I84619538I84955628I84979247
1055I85079914I85504747I86197108I87086369I88136528I89146252I89826460
1048I90123874I90215979I90234248I90243267I90377107I90747900I91292891
1041I91788963I91908433I91386679I90512400I89944554I89821568I89768062
1034I89499923I89201898I89265570I89750788I90322761I90576987I90406994
1027I90061425I89837008I89910998I90200921I90340723I90085197I89662427
1020I89576666I89997065I90566517I90889307I90924621I90890912I90952443
1013I91121292I91426961I91935110I92531696I92843097I92573048I91885350
1006I91142694I90430918I89599138I88583681I87767110I87796692I88694131
999I89898463I90948163I91762899I92553480I93455735I94322141I94895567
992I95111194I95169285I95323152I95579443I95577532I95138176I94733291
985I94826392I95371842I96043182I96618748I97056958I97434324I97880178
978I98415156I98892960I99215674I99506438I99930889A000476492A000916383
971A001014298A000728579A000207818I99726957I99503151I99504221I99567281
964I99706319A000078946A000693953A001260652A001555849A001878411A002475685
957A003222086A003869885A004333777A004740877A005268670A005942839A006621823
950A007108417A007320299A007457425A007722354A008120893A008617959A009163103
943A009593286A009634333A009212863A008693478A008332699A007841748A006877426
936A005859523A005447608A005789431A006697113A007853825A009073902A010299483
929A011512069A012754543A014013144A014941234A015217017A015226877A015338092
922A015652704A016241951A017103543A018082234A019010630A019902566A020907704
915A022094914A023314915A024481869A025639804A026712130A027489793A027911110
908A028058174A027995725A027730721A026996626A025578884A024830725A025695144
901A027911110A031574476A036073445A039802775A042542254A044930585A047180490
894A049236781A051157322A053012126A054644731A056025707A057326501A058559190
887A059496530A059757636A059008407A056562596A050860060A041060230A027332258
880A005598646I65026985I02011542H37728784G90032259G56979797G34577673
873G21725891G15936447G12704565G08815711G04913710G05524285G15651951
866G36121229G62486502G87781055H06513087H18072101H26553175H36550899
859H49529948H63944319H77765695H90100844I00919878I10439187I18839620
852I26339251I33699615I41977215I50311073I56091879I56902257I47537579
845I22710511H90793511H68759886H62744268H68907409H80638863H94604475
838I13331539I35703394I50552000I58668014I65202483I71479514I77649916
831I83835606I89690556I94909707I99776641A004453247A008590977A012297682
824A015903339A018445612A019611649A020040152A020224593A020717836A022030249
817A024256535A027595734A032480324A038795726A046102967A054787208A064504488
810A071936090A073741822A068281209A054037444A029358433I92683040I44835477
803H89832171H29431310G67215850G29138918G25243492G36036843G51519564
796G69841057G89848124H08127041H17994671H14142201G94650621G58102724
789G11808807F83625112F93947538G27205614G61817608G90015214H11981269
782H29017713H42162017H52699688H61736530H70168685H79096453H88321100
775H95938672I01296403I04699427I05253361I00365408H88270117H69796669
768H45053528H11125869G68795408G36785996G28157247G31958886G39589147
761G50567015G67643129G90732034H11549327H18928112H09609601G91366761
754G77649873G77786541G92815919H15824107H35620363H48480018H57875424
747H66540862H74619881H81260825H86447415H90765535H94469259H97589391
740I00383447I02857081I04176602I04022353I03663255I04643858I07605231
733I11842100I16048011I19608570I22689873I25498451I28021310I30295979
726I32506443I34776833I37045159I39296745I41765945I44501297I47115956
719I49381836I51436904I53384044I55166158I56801666I58359288I59784597
712I61017057I62094733I63106827I64162643I65325163I66481797I67505434
705I68588155I70110004I72207570I74590780I76907337I79176351I81611537
698I84118421I86346465I88162363I89687957I91123355I92652312I94364793
691I96300620I98565888A001283966A004463642A007967256A011552428A015016524
684A018399063A021912231A025602350A029304928A032966612A036694414A040564999
677A044461495A047868265A049762664A048791616A043632161A033558765A019030809
670A001430494I81985770I61414144I40628725I20662781I01294263H80893014
663H59338645H40991088H32332529H35696111H47148191H61780481H78679875
656H98744193I20472913I40486095I56403587I67276660I72152613I68949470
649I53981929I23661609H79843313H34002129H02232345G93514164H04495396
642H25716885H50031752H74755937H98968763I21562666I41653889I59284397
635I75110242I89475158A001575494A009177550A008830605I96655667I70786160
628I35347048I01755327H82520344H81208161H89593994H94590335H86200449
621H60222173H17237416G61674137G01698033F47916486F09812802E91751958
614E91709612F03739436F21703167F41325760F60271890F77547885F92957610
607G06669454G18965926G30174173G40634873G50666459G60521782G70281789
600G79791926G88820666G97308772H05418671H13326167H20988760H28192734
593H34835132H41042759H46989891H52759232H58401077H63991938H69593043
586H75193459H80753976H86390164H92406318H98976865I05865693I12504727
579I18004476I20595592I16955004I03314706H79679739H53757261H38466471
572H43192226H65522423H88498127H87108284H46234929G77978244G16124557
565F87853495F93812551G16805452G41532464G62045617G77521689G87435257
558G90333036G85776053G77335414G72108160G75379101G86066129G98309248
551H06876848H10106514H08759323H04569616H00428752G99815733H04430502
544H12839038H22020575H29938236H36437468H42149863H47192982H51076866
537H53340530H53857240H52773372H50479364H47669639H45381517H44737158
530H46324894H49842038H54421111H59203964H63682524H67694593H71102202
523H73159717H71170689H59731374H34806773H01845424G76703362G73106419
516G90030883H14796191H36191266H51008151H60814555H67546382H72387021
509H76144863H79460367H82693778H85791438H88496139H90741305H92765722
502H94912820H97285022H99548991I01271103I02431483I03344057I04210540
495I05053557I05940524I07062610I08676335I10953680I13770742I16702612
488I19273702I21133170I22111938I22390166I22611067I23556127I25562275
481I28308940I31185699I33769325I35952959I37799662I39401539I40817599
474I42036530I42974557I43504566I43422092I42304287I39323650I32926690
467I20220366H96903681H59410189H08786152G52338428G00322484F60690761
460F36958567F29568279F37189061F56419802F81884885G08074661G31387907
453G50486527G65382753G76869305G86525817G96144647H06438027H16559731
446H25241221H32118431H37727102H42656942H47171045H51398817H55450021
439H59352862H63065071H66524581H69644026H72338943H74615906H76623124
432H78575004H80583828H82579276H84423304H86065310H87586776H89122994
425H90564584H91146112H89670890H85822930H81314254H78970332H80142791
418H83431236H86400177H88120531H89524820H91757603H94895239H98163659
411I00898323I03037777I04801240I06187796I06445921I03142800H92738358
404H74840705H55783666H44597509H44800142H52791641H63644305H74861572
397H85009265H92659705H97533594I00677804I03138060I05283095I07146155
390I08756516I10154156I11325849I12246295I12942325I13392077I13521407
383I13475087I13636673I14212927I15038134I15841708I16554020I17405062
376I18699436I20338461I21763464I22601207I23087188I23652819I24382098
369I25059936I25540415I25872225I26128516I26361494I26777002I27634542
362I28847281I30072327I31332381I33126342I35764849I38884982I41710758
355I43613336I44148390I42349843I36703947I27147030I16937043I10873728
348I11173434I15984722I21776229I26164441I28839638I31096116I34629540
341I40068905I46485127I52475445I57426993I61473535I64746311I67260379
334I69170218I70407341I69846527I64336153I47679751I11287936H48535434
327G61063028F62253961E74447987E19981340E10358460E40250622E89805162
320F33518205F52992548F48472560F37882110F40010710F58875550F85991505
313G13041267G37483172G59326011G78365623G94607817H08511669H20399435
306H30492705H39247116H47051345H53778205H59089615H63128895H66512657
299H69714194H72883628H76195158H79928004H84164872H88659637H93075213
292H97274398I01314136I05272547I09281864I13574759I18197173I22888761
285I27475019I31908558I35621149I36896490I32400807I17745816H91489388
278H60457138H37994706H33074726H41386340H47972175H36663643G96861390
271G26794998F36238269E45712727D77996409D46299584D48947912D74173864
264E09141477E45449098E79182608F08961683F34794501F57337268F76847421
257F92814751G05003294G14584823G23593461G33183473G42910231G51777842
250G59471164G66414873G73047563G79167364G83760808G85742497G85372010
243G84654579G85782015G89222416G93543134G97058520G99351840H01132272
236H03036991H04894471H06135950H06690420H07149801H08074300H09471633
229H10949913H12073222H12658648H13016294H13742745H15116918H16944741
222H19020600H21348470H23909012H26534372H28978042H30982585H32429602
215H33470819H34371087H35284043H36320673H37644016H39280060H40811080
208H41755452H42657324H44303534H46636678H48581296H48202630H43960565
201H36421569H28544419H23665103H23069358H25760148H30065731H34854776
194H39487279H42956114H43095916H37777244H28273223H20197109H18800234
187H23894871H31148835H37144428H41386417H44725998H47873877H50976965
180H53547214H55071432H55828840H56540539H57480018H58638411H60289819
173H62565406H64844510H66476655H67842650H69760056H72085173H73884869
166H74866464H75548277H76100682H76197604H76008959H76335571H77664036
159H79643661H81519486H82876461H83980049H85340311H86992865H88576168
152H89697184H89534910H87044383H82733143H79296946H79163564H82027329
145H85826064H89331207H92664215H96102399H99629632I03316539I07188654
138I10834439I13708140I15305738I13766538I04275358H80542629H40055659
131G89119991G42297670G14754588G12443610G28850066G51693227G72142633
124G87880958H00003155H09281230H15288594H17538422H16175103H10746592
117G97842986G71575475G30036664F82414971F46397924F35508914F49252670
110F76657707G06867578G34118825G56395441G73641244G87024030G98154082
103H08277086H17901723H26870921H34241069H38109743H36245842H26764751
96H08247352G81503642G52091844G27829564G12912089G05949806G03515613
89G04805476G11629563G24620154G41056114G56155201G64588579G60897314
82G41489202G08350367F71078464F43172692F32892917F38299835F52510999
75F69979920F86851797G00262329G09670805G17045615G24703852G33299351
68G41915641G48985698G53362981G55584069G57342105G59627324G62330954
61G65213064G68156476G70769147G73071411G75961776G79923091G84159882
54G87916501G91339780G93876779G93552766G89537716G84271021G81053967
47G80541766G81287709G81951712G82103056G81934667G81768112G81840191
40G82327703G82983221G82815290G80854468G77573284G74735049G73448395
33G73099234G72517706G72215859G73294070G75776035G78646068G80260710
26G79500933G76866095G73969309G71887870G70598083G69628488G67788435
19G62637006G52740483G40912031G30165230G19919699G09329364F98952744
12F90276452F84878210F83408873F85621324F91242760F99252451G06666931
5G09991685G07204203F99076648F91249945F89985458
$$ === CHEMSPECTRA INTEGRALS AND MULTIPLETS ===
##$OBSERVEDINTEGRALS= (X Y Z)
##$OBSERVEDMULTIPLETS=
##$OBSERVEDMULTIPLETSPEAKS=
$$ === CHEMSPECTRA SIMULATION ===
##$CSSIMULATIONPEAKS=
##END=


$$ === CHEMSPECTRA PEAK TABLE EDIT ===
##TITLE=HMS-Q257
##JCAMP-DX=5.00
##DATA TYPE=INFRAREDPEAKTABLE
##DATA CLASS=PEAKTABLE
##$CSCATEGORY=EDIT_PEAK
##$CSTHRESHOLD=0.93
##MAXX=3997.453
##MAXY=0.8372977417297964
##MINX=373.96442
##MINY=0.3480218672325754
##$CSSOLVENTNAME=- - -
##$CSSOLVENTVALUE=0
##$CSSOLVENTX=0
##NPOINTS=48
##PEAKTABLE= (XY..XY)
386.71320702892854, 0.5329183369007352
416.46037676309606, 0.6021695174956452
432.0422275762312, 0.6096183098416805
439.12488703674717, 0.6086620130131104
483.03737569194664, 0.49352628285804395
500.03575839718496, 0.5485974579432498
531.1994600234557, 0.4955662223813011
553.8639702971068, 0.5555594598047812
580.7780762470679, 0.6855667271832496
602.0260546286158, 0.6831067842170442
638.8558838232993, 0.6384957471238639
653.0212027443313, 0.6418247856423659
716.7651378889755, 0.6118691603265539
750.7619032994526, 0.3480218672325754
763.5106903283813, 0.6496269144781146
821.5884979046127, 0.4974168270711519
830.0876892572319, 0.3979746129611934
866.9175184519154, 0.7102941320054131
915.0796027834244, 0.7123226568998533
941.9937087333851, 0.6586123148664237
967.4912827912431, 0.6854160467527985
1022.7360265832681, 0.4909337491293269
1104.8948763252538, 0.6028639710985475
1124.726322814699, 0.6587212123592279
1145.9743011962469, 0.6236917416455646
1158.7230882251756, 0.6020855344304065
1172.8884071462076, 0.5363842277575436
1184.2206622830336, 0.6538313664422506
1242.298469859265, 0.4614117767757155
1257.8803206724, 0.6871610922492007
1284.7944266223608, 0.6187778149011178
1308.8754687881155, 0.6490481534954594
1415.115360695856, 0.704671446331814
1440.6129347537135, 0.6064069305846252
1454.7782536747459, 0.5678128634327196
1488.7750190852225, 0.5330869588382106
1504.3568698983577, 0.5655407339212607
1565.267741258796, 0.6727630539166297
1603.5141023455822, 0.5496876867805102
2838.7299122595778, 0.7267124099180929
2896.807719835809, 0.7351045053804441
2916.6391663252543, 0.7329293534262724
2933.6375490304927, 0.7246943755962363
2952.052463627834, 0.7321802417022011
2966.217782548866, 0.7251482650000565
3015.7963987724784, 0.7332059784325013
3385.511222611415, 0.6739981217453148
3483.2519231665365, 0.6880933090300956
##END=


$$ === CHEMSPECTRA PEAK TABLE AUTO ===
##TITLE=HMS-Q257
##JCAMP-DX=5.00
##DATA TYPE=INFRAREDPEAKTABLE
##DATA CLASS=PEAKTABLE
##$CSCATEGORY=AUTO_PEAK
##$CSTHRESHOLD=0.93
##MAXX=3997.453
##MAXY=0.8372977417297964
##MINX=373.96442
##MINY=0.3480218672325754
##NPOINTS=100
##PEAKTABLE= (XY..XY)
3901.128831336982, 0.7497820305642883
3861.465938358092, 0.7497075843832163
2614.9178733072713, 0.749211494851804
3884.1304486317435, 0.749179367327056
3851.5502151133696, 0.749093417620618
3813.3038540265834, 0.7490187928666536
3920.960277826427, 0.7489986461013771
3130.535482032838, 0.7488707348843998
3209.8612679906173, 0.7482882784566044
3403.9261372087567, 0.7478837414536039
3221.1935231274433, 0.7478042882133958
2657.413830070367, 0.7474527405717838
2661.6634257466767, 0.7474061891920536
3185.780225824863, 0.747358445506854
2644.6650430414384, 0.747326914524738
2626.250128444097, 0.7472766684796618
2684.3279360203283, 0.7471177619992456
2678.6618084519155, 0.7471147816254692
3150.366928522283, 0.7469741745776565
2671.5791489913995, 0.7468375608564027
2528.5094278889756, 0.7468083544410651
3165.9487793354183, 0.7466748404021142
3194.279417177482, 0.7466681045390372
3097.955248514464, 0.7466577933191405
3243.8580334010944, 0.746648017817921
3107.870971759187, 0.7465744660608996
2692.8271273729474, 0.7464077515002577
3249.524160969507, 0.7461813132747389
3171.614906903831, 0.7459538028320714
3258.023352322127, 0.7458812640278327
2728.2404246755277, 0.7454312486420451
3266.522543674746, 0.7452994626272409
2769.3198495465203, 0.7452681702621775
2708.408978186083, 0.7450101417901765
3071.0411425645034, 0.7449193043331287
3282.104394487881, 0.7448667929856401
2745.238807380766, 0.7446720643151299
2755.1545306254884, 0.7445713328281305
3088.0395252697417, 0.744002823801006
3310.435032329945, 0.7432053133645316
3294.85318151681, 0.7430687589076439
2855.728294964816, 0.7428023858569456
2791.984359820172, 0.7427082108803366
2800.483551172791, 0.7424173398122237
2997.381484175137, 0.7423363371207614
3323.183819358874, 0.7419987961441863
2807.5662106333075, 0.7418406647792943
2820.3149976622362, 0.7416414663279138
3046.960100398749, 0.7412288826276349
3035.6278452619235, 0.7412158296510145
2871.310145777951, 0.7409553573037088
3056.8758236434714, 0.73771840781209
2896.807719835809, 0.7351045053804441
3015.7963987724784, 0.7332059784325013
2916.6391663252543, 0.7329293534262724
2952.052463627834, 0.7321802417022011
2838.7299122595778, 0.7267124099180929
2966.217782548866, 0.7251482650000565
2933.6375490304927, 0.7246943755962363
915.0796027834244, 0.7123226568998533
866.9175184519154, 0.7102941320054131
1415.115360695856, 0.704671446331814
3483.2519231665365, 0.6880933090300956
1257.8803206724, 0.6871610922492007
580.7780762470679, 0.6855667271832496
967.4912827912431, 0.6854160467527985
602.0260546286158, 0.6831067842170442
3385.511222611415, 0.6739981217453148
1565.267741258796, 0.6727630539166297
1124.726322814699, 0.6587212123592279
941.9937087333851, 0.6586123148664237
1184.2206622830336, 0.6538313664422506
763.5106903283813, 0.6496269144781146
1308.8754687881155, 0.6490481534954594
653.0212027443313, 0.6418247856423659
638.8558838232993, 0.6384957471238639
1145.9743011962469, 0.6236917416455646
1284.7944266223608, 0.6187778149011178
716.7651378889755, 0.6118691603265539
432.0422275762312, 0.6096183098416805
439.12488703674717, 0.6086620130131104
1440.6129347537135, 0.6064069305846252
1104.8948763252538, 0.6028639710985475
416.46037676309606, 0.6021695174956452
1158.7230882251756, 0.6020855344304065
1454.7782536747459, 0.5678128634327196
1504.3568698983577, 0.5655407339212607
553.8639702971068, 0.5555594598047812
1603.5141023455822, 0.5496876867805102
500.03575839718496, 0.5485974579432498
1172.8884071462076, 0.5363842277575436
1488.7750190852225, 0.5330869588382106
386.71320702892854, 0.5329183369007352
821.5884979046127, 0.4974168270711519
531.1994600234557, 0.4955662223813011
483.03737569194664, 0.49352628285804395
1022.7360265832681, 0.4909337491293269
1242.298469859265, 0.4614117767757155
830.0876892572319, 0.3979746129611934
750.7619032994526, 0.3480218672325754
##END=

##END=

