##TITLE=YM-197
##JCAMP-DX=5.0
##DATA TYPE=LINK
##BLOCKS=1


$$ === CHEMSPECTRA SPECTRUM ORIG ===
##TITLE=YM-197
##JCAMP-DX=5.00
##DATA TYPE=INFRARED SPECTRUM
##DATA CLASS=XYDATA
##$CSCATEGORY=SPECTRUM
##ORIGIN=Lisa
##OWNER=
##XUNITS=1/CM
##YUNITS=TRANSMITTANCE
##XFACTOR=1.0
##YFACTOR=8.0071633e-10
##FIRSTX=3997.453
##LASTX=373.96442
##MAXX=3997.453
##MAXY=0.8597626110793533
##MINX=373.96442
##MINY=0.4706572313499426
##NPOINTS=2559
##XYDATA= (X++(Y..Y))
2559I89676572I89957207I90208439I90277742I90189159I90097599I90125365I90275360
2551I90428481I90462202I90431459I90527411I90784673I91001663I91044465I91052207
2543I91195056I91394702I91474724I91414279I91253416I90981937I90719092I90737999
2535I91124190I91633651I91995574I92136116I92073289I91815058I91383387I90838492
2527I90323448I90080106I90241341I90602222I90835142I90937199I91207562I91767567
2519I92276953I92273009I91630897I90646216I89875473I89861999I90728321I91859127
2511I92316482I91850120I91161633I91091511I91572461I91769055I91492887I91638489
2503I92922193I94660422I95440693I94868478I93781741I93060278I92813140I92675874
2495I92581113I92810237I93310764I93539888I93343965I93169927I93177892I93064595
2487I92723068I92487692I92802793I93563336I93852309I93107844I92037037I91834711
2479I92598456I93368009I93909033I94562757I95013263I94923713I94767614I94957062
2471I95176732I95157377I95150008I95092615I94720941I94516159I95141224I96217763
2463I96652934I96051243I94765976I93358704I92689645I93884989I96559290I97934479
2455I97322291I96180246I95357917I94989368I95004628I95173010I95118074I94791137
2447I94687890I95225043I96163199I97055204I97644241I97708482I97215918I96561746
2439I96169303I95910999I95404590I94993611I95684704I97332266I98226727I98107327
2431I98398012I99589038A000528533A000404370I99484377I98488530I98063780
2424I98032292I97523648I96533460I96070820I96602241I97405142I98121768I98941864
2416I99462789I99109426I98192856I97508910I97361372I97489854I97732823I98172461
2408I98672320I98935016I99002160I99138160I99307435I99224063I98782787I98152213
2400I97806071I98317468I99587698A000733689A001255209A001220670A000573792
2393I99527179I98979828I99529933A000376530A000371319I99579733I98680508
2386I98173577I98353944I98894893I99163916I99609062A001206675A003284570
2379A003532229A001754250I99541397I98006983I97653843I98520836I99818980
2372A000396033I99992275I99228976I98800504I99035806I99766129A000551238
2365A001122410A001382798A001322800A001182110A001153079A001025490A000668257
2358A000690440A001910870A003795669A004914936A004878759A004217367A003492404
2351A002979592A002706029A002653177A002828928A003044801A002896816A002138504
2344A000956485I99950067I99968305A001358307A003088348A003953852A003836313
2337A003191372A002483307A001992976A001929182A002797663A004928409A006936257
2330A007266097A007018735A008003863A009785713A010286316A009180672A007678415
2323A006661725A006152115A005713891A005202792A005022501A005406681A005691634
2316A005240086A004492345A004641000A006429252A008695849A009806779A009772165
2309A009342949A008944030A008583074A008224277A008009818A008092595A008444244
2302A008871675A009245657A009820476A011095247A012741841A013548836A013098181
2295A011742420A010162450A009414857A010180538A011602401A012366891A012496340
2288A012535495A012359075A011675128A010965722A011029815A011757234A012168436
2281A011678329A010618836A009749833A009513042A009871690A010760792A012053800
2274A013111803A013173290A012309424A011526025A011978765A013523898A014453718
2267A013905771A012766331A012190842A012410512A012846577A013032898A013059473
2260A013172322A013267083A012981088A012318282A012007424A012752783A013937929
2253A014397740A014093283A013741186A013788306A014118072A014424389A014610933
2246A014760407A014829189A014566343A013873986A013103541A012830423A013294924
2239A014057925A014476422A014368411A013981253A013663844A013774386A014506570
2232A015538445A016236461A016375587A016276212A016216809A016150856A016042175
2225A016022300A016164627A016418465A016679523A016741680A016364124A015560479
2218A014706439A014260251A014412851A014944346A015361577A015312969A014943825
2211A014736140A014965859A015372595A015512540A015300761A014926928A014441510
2204A013774684A013148055A013103987A013935249A015235776A016144901A016069196
2197A015141461A013989441A013157881A012775189A012708939A012860421A013158774
2190A013439633A013509457A013277505A012775338A012095038A011291394A010402738
2183A009638100A009324563A009442027A009489966A009070651A008309734A007566384
2176A007079105A006920997A006949581A006819834A006273823A005397302A004506339
2169A003821574A003265439A002590499A001737129A000954699A000389929I99756005
2162I98701053I97328023I96031740I94946417I93872632I92685477I91531967I90619269
2154I90021374I89671361I89359684I88750251I87594062I85929007I83990016I82033010
2146I80288454I78911330I77836652I76764728I75421399I73826243I72253418I70933164
2138I69848884I68814552I67657694I66271637I64567724I62469880I59991130I57335365
2130I54859072I52803956I51071683I49371195I47544756I45596460I43503528I41239536
2122I38902593I36574806I34159182I31582396I29002930I26585296I24231604I21798263
2114I19409212I17274000I15303819I13166522I10668045I07882161I04966528I02006009
2106H99042586H96174073H93557835H91260345H89110764H86801142H84187136H81428719
2098H78749059H76131108H73387876H70471350H67526388H64667702H61915910H59354384
2090H57136096H55284051H53605821H51827395H49804287H47648604H45645893H44022971
2082H42793757H41809225H40906278H40006532H39092642H38163865H37302083H36662204
2074H36229637H35751143H35121983H34608056H34420022H34338660H34071945H33762576
2066H33778133H34097997H34267869H33974429H33406533H33001956H33009400H33350853
2058H33853540H34506967H35342100H36131304H36545632H36633694H36763366H37095961
2050H37502845H37931392H38467056H39076191H39579623H39902317H40236846H40890125
2042H41927583H43055411H43993121H44828179H45810180H46911656H47813933H48317812
2034H48598448H49004290H49752329H50897575H52364324H53829957H54854016H55350079
2026H55714384H56352402H57346537H58605898H60044435H61536196H62859500H63803240
2018H64412897H65065058H66101549H67449419H68783368H69890651H70701219H71259661
2010H71836043H72752016H73994183H75245059H76270160H77068148H77762442H78541225
2002H79594612H80933848H82291989H83317762H83960320H84606527H85695869H87243608
1994H88909407H90408910H91617355H92457177H93012642H93583442H94339446H95144952
1986H95924330H96850576H97971109H99055092H99984390I00898131I01852589I02714967
1978I03449533I04224444I05207190I06347002I07335331I07900696I08246615I08940090
1970I10200643I11629428I12810703I13792481I14777608I15692689I16305323I16563776
1962I16677891I16982422I17703365I18723107I19660817I20312011I20849536I21481152
1954I22148648I22722871I23265905I23933922I24745383I25560715I26279574I26996200
1946I27849124I28758919I29513732I30101950I30714510I31427711I32123717I32715881
1938I33278939I33953432I34784024I35637841I36303327I36729863I37107865I37633108
1930I38242020I38654413I38629476I38098650I37146349I35966043I34788565I33794503
1922I33110557I32809674I32828880I33021751I33375188I34012760I34929776I35903514
1914I36683190I37166672I37498373I38067758I39206007I40773547I42193920I42967269
1906I43035455I42552494I41333925I38749025I34447112I29165282I24439288I21323043
1898I19673174I18780946I18329994I18525099I19597544I21514054I24120913I27307802
1890I30886092I34406692I37327386I39382130I40547773I40636356I39278660I36405309
1882I32394750I27650148I22404047I17061699I12435827I09502775I08982668I11011583
1874I14979264I19743519I24293835I28289282I31875462I35152423I38060240I40590799
1866I42770973I44498929I45678566I46469631I47173379I47907572I48570229I49065845
1858I49379011I49472506I49240852I48496237I46915149I44146757I40107019I35125996
1850I29844763I25063164I21527974I19582507I18989078I19176069I19553252I19555039
1842I18581226I16046722I11550076I05199076H97876124H90952613H85582945H82362931
1834H81577598H83387288H87583572H93367717H99623211I05493036I10696407I15305381
1826I19334401I22723913I25634261I28385085I31015021I33203085I34712711I35658088
1818I36297296I36788745I37116947I37081737I36425482I35095105I33284670I31180052
1810I28817428I26186153I23289279I20098072I16687643I13515046I11349089I10688294
1802I11326014I12705818I14588831I17032891I19841332I22504914I24716873I26562443
1794I28164225I29457307I30385117I31111568I31919010I32893791I33757582I34131044
1786I33922614I33275886I32241927I30823638I29233096I27751980I26398602I24975102
1778I23382998I21813299I20676465I20237720I20264444I20266082I20095988I20020432
1770I20262583I20798173I21470581I22058352I22415735I22712897I23290916I24189099
1762I25079540I25744430I26338679I27082549I27935994I28709640I29321828I29843795
1754I30413106I31149159I32056499I33013191I33943383I34954638I36211840I37736876
1746I39394562I40997683I42382028I43464225I44309556I45066304I45776305I46358568
1738I46827534I47355755I48031141I48720001I49234003I49491861I49504664I49359954
1730I49246210I49368960I49749941I50143203I50285680I50239527I50305704I50603833
1722I50977815I51278251I51471570I51554048I51632731I51943142I52516993I53001294
1714I53069332I52886881I52945017I53504503I54363456I55126011I55604729I55939929
1706I56335275I56758462I57083240I57458710I58172880I59101806I59709006I59718683
1698I59472885I59513603I60038772I60840035I61614872I62229069I62695431I63040233
1690I63286403I63469077I63600388I63696637I63806733I63919508I63964693I63971169
1682I64055062I64211756I64289843I64179673I63953899I63839263I64025584I64444230
1674I64815309I64947513I64896150I64828410I64852380I65004980I65301024I65687364
1666I65990182I66062388I66016236I66137869I66511852I66870574I66883229I66520263
1658I66065366I65777211I65645231I65526054I65339733I65034681I64570925I64060422
1650I63737653I63725594I63936108I64168954I64257611I64203047I64151461I64176100
1642I64193295I64155555I64176397I64391452I64804143I65296707I65731953I66022786
1634I66141814I66142857I66169357I66320543I66496145I66528526I66457734I66486319
1626I66670854I66862237I66966824I67083842I67310509I67529509I67514919I67213664
1618I66809385I66498974I66300593I66134073I66021670I66108019I66448802I66866778
1610I67082130I66952159I66571254I66190126I66028742I66108317I66305654I66587631
1602I67047814I67673847I68228791I68428958I68179884I67678983I67341848I67484846
1594I67964457I68306282I68310823I68302188I68622797I69153176I69536016I69662265
1586I69747126I70050466I70616427I71246926I71735470I72106996I72527131I73043217
1578I73557890I73985543I74294688I74460241I74498801I74555597I74842635I75379565
1570I75849871I75916271I75666081I75533728I75791064I76306406I76790112I77157395
1562I77604104I78313584I79126236I79645598I79698375I79542797I79596096I80055237
1554I80762930I81357029I81589428I81544764I81514914I81664313I81898350
1547I82043655I82081545I82200722I82613859I83257832I83756947I83880441
1540I83919075I84253009I84674335I84671506I84295663I84127133I84408736
1533I84795820I84947601I84826712I84490171I84077184I83892873I84094677
1526I84406949I84455856I84231571I83983465I83840468I83768187I83820295
1519I84203879I85001495I85915236I86447252I86333658I85676733I84750709
1512I83926147I83668736I84237675I85330069I86294801I86761162I86875426
1505I86919271I86977557I87047381I87133135I87087950I86707566I86134161
1498I85780129I85738964I85711868I85588745I85615618I85913747I86266142
1491I86452016I86485216I86498541I86553924I86543576I86314378I85999277
1484I86054213I86710618I87573368I88039580I87964397I87678625I87518506
1477I87568604I87764602I88056552I88433438I88842481I89158847I89317477
1470I89425786I89612926I89779893I89690045I89370031I89191452I89391470
1463I89716620I89783986I89603993I89502533I89717662I90269702I91017593
1456I91701390I92077904I92055572I91659258I91070817I90718794I90941516
1449I91510529I91897389I91976667I91996542I92026764I92019395I92218520
1442I92852071I93578746I93845090I93631747I93355876I93257914I93296175
1435I93429496I93682812I94041013I94406138I94649405I94737243I94779971
1428I94885675I95044677I95150603I95010658I94500526I93872260I93624451
1421I93933672I94567149I95312806I95981196I96119503I95430420I94449089
1414I94061335I94315471I94462414I94252196I94334676I95073559I95740459
1407I95472553I94586578I94278400I95204497I96879974I98303027I98746089
1400I98174917I97246066I96649361I96371480I95941296I95197351I94500601
1393I94435020I95284594I96646830I97812548I98379104I98297593I97727389
1386I97052077I96745462I96969971I97429856I97706323I97538909I96766008
1379I95395359I93878140I93014200I93310914I94433307I95452454I95634830
1372I94978351I94141655I93918040I94603699I95747159I96593904I96834864
1365I96807768I96961038I97330554I97622430I97587295I97203411I96679584
1358I96338280I96314609I96365450I96181436I95822715I95567909I95469947
1351I95369603I95217375I95113235I95231370I95818248I96934463I98173577
1344I99004839I99245725I98962335I98382082I98102414I98684156I99877340
1337A000914947A001559442A002173713A002851929A003173804A002918925A002536158
1330A002642458A003275414A003950205A004263445A004010947A003070036A001727675
1323A000741356A000549824A000876240A001408108A002200066A003120282A003668452
1316A003698302A003673589A003879264A003994868A003826338A003844129A004447681
1309A005155300A005085402A003949311A002227831A000763018A000444269A001745317
1302A004078314A005976513A006455528A005955073A005465265A005195125A004936374
1295A005152918A006417565A008067285A008752200A008213856A007428523A007065334
1288A006771076A006150849A005695207A006126061A007134414A007632784A007279421
1281A006882288A007322894A008870409A011230875A013362365A013804087A012206995
1274A010122252A009552792A011019616A013513104A015982475A018049203A019319359
1267A019180455A017742663A016068079A015030993A014737703A015065310A015704072
1260A016073365A016351693A017503937A019612872A021443703A021992692A021557670
1253A021046570A021022378A021493353A022012716A022108519A021943785A022046214
1246A022156309A021243239A019134675A017181615A016629500A017113578A017264168
1239A016271448A014506272A012879925A011935144A011561012A011310003A010824809
1232A010074760A009347341A009058145A009530387A010775307A012367114A013734932
1225A014667209A015301059A015602761A015246346A014073780A012422422A010990808
1218A010452539A011034876A012355799A013716919A014572076A014831943A014773508
1211A014465330A013479682A011686293A009994738A009556068A010451274A011792295
1204A012831689A013448417A013809745A014000086A014015048A013895349A013682230
1197A013342118A013021657A013125202A013762699A014499945A015016031A015460656
1190A015952401A016307402A016311198A015833448A014864250A013788083A013436432
1183A014564558A017152360A020175186A022172537A022432181A021792153A021799969
1176A022859908A023820917A023611222A022594011A021832648A021736398A022004602
1169A022105691A021526926A020427609A019913084A020722462A022082540A022878592
1162A023405473A024727586A026490379A026780023A024723641A022096162A021479955
1155A023317188A025650185A026668364A026423906A025915114A025652270A025483292
1148A025090849A024263012A022954669A021517547A020776803A021304204A022498878
1141A023064913A022359230A020744943A018912102A017420565A016858996A017771248
1134A020025116A022509821A023941062A023852703A022460765A020178908A017826481
1127A016529454A016527593A016432608A014752218A011926434A009803355A009488774
1120A010488642A011584907A011805024A010909968A009637207A009075191A009402724
1113A009664377A008956163A007585589A006994394A008381791A011139910A013304824
1106A014021673A014216331A014865813A015911236A016803390A017222929A017002142
1099A015913023A013996587A011912291A010460132A009697726A008987725A008061107
1092A007308527A006904248A006402528A005390677A003972983A002664938A002250460
1085A003256729A005199666A006882586A007654818A007896820A008231647A008672848
1078A008724211A008124157A007139997A006137822A005308124A004955282A005466827
1071A006596516A007311653A006984568A006067031A005272467A004889776A004913298
1064A005267554A005798975A006412280A007241234A008432930A009866256A011302560
1057A012656385A013930262A014990275A015702211A016190011A016750166A017575324
1050A018514597A019129911A019218345A019196906A019572154A020174069A020443539
1043A020257887A019944573A019814305A020065388A020632837A020953298A020710180
1036A020372076A020437881A020825038A021049548A020741816A019912192A018874360
1029A017974466A017325431A016902170A016687264A016443253A015826004A014973153
1022A014443371A014534484A014946654A015114663A014823457A014395209A014261665
1015A014425208A014482377A014163926A013527769A012741990A011990675A011464910
1008A011210925A011021180A010655907A010118977A009683583A009747154A010425443
1001A011173408A011416749A011247028A011110581A011285662A011716144A012307860
994A013124011A014115764A014948962A015336863A015396415A015601123A016253880
987A017028419A017561404A017890722A018011016A017855959A017579790A017313893
980A016878201A016204080A015559958A015001962A014279605A013454372A012976398
973A013045627A013257927A013203289A012946325A012606510A012221734A012050078
966A012472892A013347403A014035965A014505081A015529661A017317988A018572585
959A018788905A018936295A019489527A020058093A020261833A020129108A019815644
952A019484167A019464813A020194242A021521641A022401809A022315013A021659949
945A020872978A020148685A019664086A019667362A020051839A020240692A020112210
938A020346917A021306735A022169113A022528505A022733733A022488606A021452636
931A020057051A018802676A017651103A016382809A015187911A014346228A013440452
924A012053204A010453804A009001050A008057979A007990762A008601461A009173079
917A009596042A010375941A011464167A012172307A012594823A013642852A015850420
910A018390656A019954995A020321905A019946657A019382631A019749915A022198963
903A024598732A024858227A024246188A024279686A025141468A025708099A025529445
896A024979414A024309015A023739630A023947538A025748519A028289649A029565536
889A029479931A029082947A029055330A029291525A029270087A028916650A028647850
882A028571699A028354634A027947601A027626470A027289410A026337631A024712847
875A022995759A021756943A021159494A020814841A020164615A018977757A017363842
868A015473534A013276612A010640795A007786650A005695058A005697291A008271025
861A012470360A016785227A020154864A022167103A022854697A022615078A022183256
854A022258812A022956902A023954164A025231688A026980562A028388875A028123947
847A025734748A020509343A011559449A000765623I92398066I89083143I90496519
840I94423556I99701664A007907837A018319939A025044920A027983555A029841110
833A031446315A032830884A034055259A035041726A035741454A036337042A036862434
826A037184234A037830068A039418748A040603150A040300704A039287364A038610935
819A038372283A037598265A035841947A033689167A031910667A030874026A030683612
812A031783525A034474872A037831036A040984576A044255656A047734866A050851114
805A053471521A055927268A058455669A061668537A066575640A071573262A073741822
798A073621082A072328669A069733945A064715778A055722040A042622908A027469553
791A011123608I91339393I64968356I33130060I02868163H80413667H67834418
784H64769832H69267446H78181162H88683857H99453341I10143771I20755445
777I31255160I40172525I45423760I47286824I47603786I48018859I49336878
770I51126768I52563071I53556238I54408120I54299513I50266772I41229189
763I30072844I21001913I18470832I24829722I37330214I49615578I57777385
756I62461096I65623793I68370151I71388956I75491743I80460186I84332808
749I86113244I86695879I86988648I87030334I86403929I84978344I82883478
742I80156547I76670265I72035162I65524714I56882701I46945893I36459649
735I25805546I15690009I06869639H99511404H93243850H87635232H82654658
728H78820520H76804708H77113854H79818749H83962554H88036906H91299351
721H93792839H95923809H98595355I03057983I10172058I19207780I27842647
714I34200719I37598717I37840868I35585138I32966815I32681937I36308017
707I43135501I50341435I55102786I55783607I51278698I41745127I30149145
700I21682435I20895539I27657741I37255702I45662636I51535066I54555137
693I54628683I52198915I48154189I43327257I38391196I34073949I31084770
686I29703180I29663727I30526700I31850004I32894237I32683425I30801529
679I28037157I26306298I27748556I33259212I41626173I50199181I56467330
672I59184210I58621599I56454899I55310620I57424990I62921205I69677526
665I75008634I77134393I75676726I71457217I65689597I59434400I53854888
658I50220620I49012472I49327052I49480844I47946206I43753793I36669270
651I27389610I17438883I08723695I02963519I01076487I02740053I06526549
644I10728937I14294275I17030360I19018332I20053707I19800167I18426243
637I17066761I17536770I21117144I27271625I33904524I39200201I42906972
630I45716529I47953650I49279486I49388762I48480530I47046609I45582986
623I44475405I43746572I42859852I41079120I38140113I34547754I31351709
616I29697001I30374249I33521983I38620916I44812392I51330433I57700043
609I63611851I68800483I73106863I76469652I78741088I79582325I78550226
602I75286739I69799010I62708160I55235064I48897017I45050224I44438559
595I47001499I52015124I58397016I65095572I71425878I77065909I81774930
588I85193920I86802029I85858960I81421865I72714941I59953092I45071068
581I31460837I22565954I20343870I24634394I33501734I43730270I51178353
574I52296951I47156853I40550825I38358815I42715218I51484373I61405624
567I70165771I75924013I76587414I70876145I60797679I52364170I51766051
560I60021055I72512094I83844785I91830543I97094805A000821304A003519945
553A005082126A005557793A005907657A007597872A011156212A015526163A019180753
546A021516132A022866682A023596930A023699507A023149625A022233800A021416012
539A021006150A020977863A020926350A020108414A017660854A012986076A006020655
532I97339487I88306966I81072150I77918833I80093201I86988648I96446664
525A006044773A014300299A020862631A025911616A029581615A031786726A032408814
518A031693230A030423968A029509632A029251030A028908908A026841733A020981362
511A009297988I90408457I64436041I33165568H98872046H63641186H30838978
504H06156890G94701003G96264225H04566646H11555813H11965973H04470918
497G90600299G73683703G57787074G46059482G39517100G37443225G38878040
490G43774424G52996765G67279628G86080651H07444390H28972267H48853848
483H66229212H81119052H94172107I06102172I17146932I27124980I35890339
476I43451049I49429034I52356726I50157198I42569392I33256086I28038571
469I30127929I37742831I46552631I53247614I56375696I55122660I48528543
462I35959567I18421926H99839085H86663950H84568190H93711179I06973333
455I14405859I11280234I01943703H94183421H89059402H78199549H53323771
448H17709177G85903858G71968476G79422962H01750986H29330766H54635165
441H73706327H86301580H95217828I03887086I13742085I23944492I33188942
434I41045026I47743955I53478077I58230719I62028008I65089841I67719478
427I70165921I72570826I74918563I77076480I78987035I80707845I82235708
420I83561991I84960851I86870290I89367426I92026988I94377702I96286471
413I97878650I99290090A000505161A001294811A001354214A000526599I98750183
406I96046181I93172234I92010165I94235895I99470382A005558909A010638711
399A014270895A016892419A019045571A021124061A023329991A025676983A028030451
392A030204224A032157135A034039329A035886388A037352616A037842500A036693381
385A032972019A024989017A010252074I86773668I55592968I22244972H94607501
378H77831224H70897142H68478987H65963241H61863505H55906288H46936072
371H34081324H19265476H07238342H02680954H07353574H19711143H36526799
364H54657124H71953434H87411319I00931628I12933378I23853900I33759071
357I42496664I50092063I56634744I62022352I66352105I70251302I74256501
350I78169991I81487148I84180580I86658287I89106740I91250290I92812172
343I93888488I94765828I95695870I96852952I98062365I98627359I97868450
336I95747457I92675948I88659062I82307319I69996572I45347237I00099845
329H29453962G41773872F62352284F20423501F28000252F72776445G31325444
322G85843562H29583264H62948306H88543167I08608612I24438619I36919683
315I47044152I55620064I62837237I68572773I72978976I76485730I79436647
308I81986039I84203135I86155674I87951072I89627293I91038957I92074033
301I92867555I93523661I93802808I93360342I92193359I90755939I89813465
294I90262110I92780089I97281648A002762379A007958678A012146700A015281258
287A017713781A019822493A021479881A021816048A019600069A013518539A001611103
280I79863556I41546746H80931763H01036444G16492177F45696151F01082087
273E87795220F05919590F48622652G01865181G51596416G91091895H20570916
266H42512228H58917128H71116440H80135116H86769431H91448452H94227415
259H94864763H92577248H85828594H72629788H50618354H16804592G69426603
252G13117701F62297794F35526794F42687246F77671936G24435951G68627647
245H03597523H29114521H47529948H61138988H71272613H78104713H80596936
238H77250971H68168575H56560087H47221844H43026007H43191709H44779645
231H44861230H40998508H30661292H11110816G80441960G39759846F94912043
224F54989656F27792791F16582738F20493957F36252205F58905751F82691144
217G03378604G19890027G33240316G44630772G54545621G62749485G69086490
210G74478565G80532552G86687256G90442115G92023873G93321571G95306342
203G97444979G98822698G99550341H00549687H02349179H04511636H06188899
196H07100481H07898990H09538884H12360203H15780756H18577807H19486634
189H18160054H15863086H14685831H15735721H18459002H21671573H24593831
182H26953477H28938993H31100929H33729376H36505286H39129043H41799399
175H44698655H47528608H49908428H51928036H54019628H56274166H57874013
168H57339912H53881469H48648173H44157036H42428334H43903570H47690588
161H52348915H56875039H61269555H65772156H69941269H73286341H76157385
154H79077261H81847216H84077934H85922388H87802125H89865653H91966177
147H94080100H96490961H99209851I01463421I02237961I01029144H97692483
140H91886452H82573147H68118254H48569863H28284524H13872732H08876153
133H12408067H22534768H37884941H55720413H71709869H83119009H90769642
126H97118408I03441194I09346751I14214402I18197418I21760299I24970785
119I27730468I30302564I33054877I35812699I38010514I39476519I40453682
112I40778981I39833232I37539091I34746283I32285772I29709581I25141548
105I16513083I02906201H84788232H63258271H39889811H17300506G98550400
98G85128946G75658946G67581926G60835729G58780836G64292311G75620164
91G86968338G93716173G96301071G98556206H04248494H14885700H29243375
84H44701111H58996630H70795310H79489207H85575650H90925666H97344033
77I04711425I11506231I16856471I21093770I24609085I27284056I29277462
70I31357664I33922242I36525900I38631560I40198579I41613518I43304032
63I45545246I48523258I51944631I54328768I54091158I51734787I49278667
56I48429391I49591460I51360804I51384476I48609905I44305536I40356241
49I37516909I35616105I34112359I31872113I27121630I19046395I09756836
42I02771169H99262405H97515243H96401113H97270338I01347520I07074645
35I11798851I15362105I20415853I27127212I30190533I26692041I19536429
28I14061429I13495543I16689355I20625623I23460712I25086612I26203199
21I27142324I27823814I28674505I29767123I28125963I21163148I12592447
14I08567299I10626584I14696544I16684070I16869870I17529475I18629462
7I18797695I18761294I20421808I24029725I27334451I27912397I28150453
$$ === CHEMSPECTRA INTEGRALS AND MULTIPLETS ===
##$OBSERVEDINTEGRALS= (X Y Z)

##$OBSERVEDMULTIPLETS=
##$OBSERVEDMULTIPLETSPEAKS=
$$ === CHEMSPECTRA SIMULATION ===
##$CSSIMULATIONPEAKS=
##END=


$$ === CHEMSPECTRA PEAK TABLE EDIT ===
##TITLE=YM-197
##JCAMP-DX=5.00
##DATA TYPE=INFRAREDPEAKTABLE
##DATA CLASS=PEAKTABLE
##$CSCATEGORY=EDIT_PEAK
##$CSTHRESHOLD=0.93
##MAXX=3997.453
##MAXY=0.8597626110793533
##MINX=373.96442
##MINY=0.4706572313499426
##$CSSOLVENTNAME=- - -
##$CSSOLVENTVALUE=0
##$CSSOLVENTX=0
##NPOINTS=33
##PEAKTABLE= (XY..XY)
381.04707946051576, 0.735667171477731
392.3793345973413, 0.7275046732132927
410.79424919468283, 0.7314507986623172
427.7926318999216, 0.7177630094092753
505.70188596559774, 0.6075682062762519
562.363161649726, 0.6476803446546785
604.8591184128222, 0.6745461246892105
637.4393519311961, 0.6523322487013202
687.0179681548084, 0.49370786711271153
704.0163508600467, 0.6750246904195943
726.6808611336978, 0.5088766829090623
759.2610946520717, 0.4706572313499426
834.3372849335415, 0.4967832287664713
893.8316244018761, 0.6427197476477788
1004.3211119859261, 0.618127764978413
1021.3194946911649, 0.7082881947315427
1069.481579022674, 0.5904828327053643
1085.063429835809, 0.636330070569479
1167.2222795778184, 0.7620946193753129
1182.8041303909536, 0.7531144047724723
1192.7198536356527, 0.7369343659243971
1274.8787033776384, 0.7343103312329071
1289.0440222986708, 0.7215066577199327
1362.7036806880374, 0.7373760963014518
1402.3665736669273, 0.7020718479164816
1450.5286579984358, 0.7354345946118028
1483.1088915168098, 0.6924353261737566
2881.2258690226736, 0.7366753838360546
2926.5548895699767, 0.729202988545641
2970.4673782251757, 0.7058935788807753
3029.9617176935103, 0.7278372667552847
3058.2923555355746, 0.735321822524602
3300.5193090852226, 0.6676073099460661
##END=


$$ === CHEMSPECTRA PEAK TABLE AUTO ===
##TITLE=YM-197
##JCAMP-DX=5.00
##DATA TYPE=INFRAREDPEAKTABLE
##DATA CLASS=PEAKTABLE
##$CSCATEGORY=AUTO_PEAK
##$CSTHRESHOLD=0.93
##MAXX=3997.453
##MAXY=0.8597626110793533
##MINX=373.96442
##MINY=0.4706572313499426
##NPOINTS=115
##PEAKTABLE= (XY..XY)
3990.370340539484, 0.7927873158130917
3983.287681078968, 0.7930546429670254
3966.2892983737293, 0.7932849554071724
3950.707447560594, 0.792773308882331
3933.709064855356, 0.7925986670457437
3925.2098735027366, 0.7935831573820746
3920.960277826427, 0.7939045456997447
3906.7949589053947, 0.7947759060286753
3899.7122994448787, 0.7952473790138079
3894.046171876466, 0.7947011023084104
3885.5469805238467, 0.7941782497585306
3875.6312572791244, 0.7965266730849366
3865.715534034402, 0.7963253289601765
3855.799810789679, 0.7948628093734028
3845.884087544957, 0.7967042351339795
3838.801428084441, 0.7964628367762437
3823.2195772713058, 0.7967076325733676
3817.553449702893, 0.7992008358215499
3801.9715988897574, 0.7975701714104906
3789.2228118608286, 0.7986035374716047
3772.2244291555903, 0.7989596152228394
3752.392982666145, 0.7992538832784124
3736.81113185301, 0.7988377237773562
3300.5193090852226, 0.6676073099460661
3292.0201177326035, 0.6669982690911415
3093.7056528381545, 0.7469159387537764
3058.2923555355746, 0.735321822524602
3029.9617176935103, 0.7278372659545684
2987.465760930414, 0.7358495618462437
2970.4673782251757, 0.7058935788807753
2926.5548895699767, 0.729202988545641
2886.8919965910864, 0.7368493698859676
2881.2258690226736, 0.7366753838360546
2823.1480614464426, 0.7600769415376093
2816.0654019859267, 0.7608723066803759
2799.067019280688, 0.7629920862594667
2777.8190408991395, 0.768265607211712
2748.0718711649724, 0.7717618373792647
2739.5726798123533, 0.7725538635349353
2729.656956567631, 0.7735049752103339
2708.408978186083, 0.77167082075475
2701.326318725567, 0.7720118194160581
2697.076723049257, 0.7720150975487131
2678.6618084519155, 0.7738584898685962
2658.8303619624703, 0.7735093263028711
2647.4981068256448, 0.7735149889687568
2633.332787904613, 0.7745664143859778
2626.250128444097, 0.77533537430633
2592.25336303362, 0.7811257864753782
2578.088044112588, 0.784335913491775
2568.1723208678654, 0.7859150197783457
2546.924342486317, 0.7880066661891819
2537.0086192415947, 0.787819090381716
2527.0928959968724, 0.7877192522653937
2512.9275770758404, 0.7876396202256589
2490.2630668021893, 0.7891770027857058
2476.097747881157, 0.7895057224620934
2466.1820246364346, 0.790722193931403
2447.7671100390926, 0.7920617491128111
2440.6844505785766, 0.7923108367494639
2427.935663549648, 0.793284716793706
2418.0199403049255, 0.7943261292532203
2408.104217060203, 0.7953178316415356
2386.8562386786552, 0.7956113238029848
2375.5239835418297, 0.7959611439561005
2371.27438786552, 0.7961139694755607
2362.7751965129005, 0.796134951446272
2345.776813807662, 0.7962603596378766
2334.444558670836, 0.7981103682767945
2323.1123035340106, 0.795122685861886
2313.1965802892882, 0.7958464053095932
2306.1139208287723, 0.7981602577084514
2294.7816656919467, 0.797765377243865
2283.449410555121, 0.7968034174636276
2270.7006235261924, 0.7991969019022206
1565.267741258796, 0.7919750243278252
1483.1088915168098, 0.6924353261737566
1450.5286579984358, 0.7354345938110866
1402.3665736669273, 0.7020718479164816
1376.8689996090693, 0.7468136576519312
1362.7036806880374, 0.7373760963014518
1342.8722341985927, 0.7443969276175619
1332.9565109538698, 0.7417085793904463
1320.207723924941, 0.7649328136564246
1303.2093412197028, 0.7598897837040678
1289.0440222986708, 0.7215066577199327
1274.8787033776384, 0.7343103312329071
1245.1315336434714, 0.7444235706527264
1216.800895801407, 0.7562273768729685
1192.7198536356527, 0.7369343659243971
1181.3875984988272, 0.7513592265699489
1167.2222795777948, 0.7620946193753129
1121.8932590304921, 0.7830355789976429
1085.063429835809, 0.636330070569479
1069.481579022674, 0.5904828327053643
1038.3178773964032, 0.7430956386695644
1021.3194946911649, 0.7082881947315427
1004.3211119859261, 0.618127764978413
944.8267725175915, 0.7943187386414945
893.8316244018761, 0.6427197476477788
834.3372849335415, 0.4967832287664713
790.424796278342, 0.7925598050793834
759.2610946520717, 0.4706572313499426
726.6808611336978, 0.508876682108346
704.0163508600467, 0.6750246904195943
687.0179681548084, 0.49370786711271153
637.4393519311961, 0.6523322487013202
604.8591184128222, 0.6745461238884942
562.363161649726, 0.6476803446546785
505.70188596559774, 0.6075682062762519
451.8736740656759, 0.759422901225655
427.7926318999216, 0.7177630094092753
410.79424919468283, 0.7314507986623172
392.3793345973413, 0.7275046732132927
381.04707946051576, 0.735667171477731
##END=

##END=

