##TITLE=X7705
##JCAMP-DX=4.24
##DATA TYPE=INFRARED SPECTRUM
##DATE=30/10/2018
##SAMPLING PROCEDURE=Diamant-ATR
##ORIGIN=ComPlat
##XUNITS=1/CM
##YUNITS=TRANSMITTANCE
##RESOLUTION=4
##FIRSTX=3997.453
##LASTX=373.96442
##DELTAX=-1.4165319
##MAXY=0.95797825
##MINY=0.46958563
##XFACTOR=1
##YFACTOR=8.9218677e-010
##NPOINTS=2559
##FIRSTY=0.92739338
##XYDATA=(X++(Y..Y))
3997+1039461028+1040213412+1040591342+1040179942+1039395490+1038795025
3989+1038481766+1038394181+1038664283+1039329818+1040082938+1040617263
3980+1040882555+1040831514+1040357316+1039606468+1038920289+1038437539
3972+1038155879+1038254487+1038879136+1039751373+1040389450+1040592878
3963+1040497678+1040334668+1040263518+1040301064+1040248820+1039733068
3955+1038546168+1037087162+1036202298+1036423765+1037490545+1038562269
3946+1038857423+1038316551+1037763052+1038092145+1039096260+1039873831
3938+1040171792+1040172326+1039665993+1038548773+1037673931+1038007767
3929+1039086974+1039661717+1039350328+1038799902+1038724610+1039044885
3921+1039136211+1038745321+1038310672+1038408077+1039013886+1039695522
3912+1040341215+1041145642+1041915196+1041904574+1040624144+1038529867
3904+1036719454+1035919035+1036121395+1037146821+1038585718+1039688841
3895+1040038177+1039860937+1039720040+1039976246+1040288504+1040057618
3887+1039138415+1037797725+1036361634+1035065772+1034415268+1035067909
3878+1036569271+1037569979+1037483998+1036663670+1035716542+1035178476
3870+1035656148+1037246164+1038940999+1039753444+1039555026+1038887420
3861+1038321361+1037916709+1037478854+1036917739+1036209447+1035332133
3853+1034725254+1035195979+1036462914+1037780422+1038758081+1039125789
3844+1038570619+1037049950+1035217692+1034065799+1034138485+1035280891
3836+1036924486+1038432328+1039177230+1038897040+1038155879+1037827454
3827+1038132564+1038559596+1038499470+1037753432+1036596796+1035713736
3819+1035589207+1036191943+1037456874+1039012884+1040067772+1040200452
3810+1039478532+1038298914+1037551005+1037932676+1038549776+1037894195
3802+1035940213+1034558704+1035314829+1037697915+1040397333+1042144546
3793+1042384318+1041670481+1040890906+1040563349+1040732973+1041146043
3785+1041423427+1041198086+1040307878+1039032526+1038142451+1038153140
3776+1038599347+1038846801+1038816137+1038616783+1038261368+1037821976
3768+1037454937+1037370292+1037857250+1038783000+1039314319+1038795760
3759+1037595766+1036768357+1036765685+1037081684+1036997039+1036067548
3751+1034621035+1033765700+1033687736+1033570289+1033135640+1032858323
3742+1033061284+1033221955+1032615411+1030941085+1028720742+1027281779
3734+1027500974+1029085043+1031504405+1034159463+1036232696+1037125042
3725+1036853804+1036003413+1035283163+1035181282+1035798181+1036781986
3717+1037517067+1037409908+1036203100+1034438183+1033624002+1034763602
3708+1036906181+1038679315+1039449069+1039137680+1038271523+1037870946
3700+1038397388+1039254727+1039845772+1040230849+1040758494+1041500189
3691+1042121832+1042222443+1041776237+1041125934+1040478838+1039823324
3683+1039064927+1038087001+1036951409+1035854833+1034801014+1033964653
3674+1034027118+1034737213+1034910445+1034352336+1034590036+1036637415
3666+1039216446+1040659819+1040316296+1038667691+1036689925+1035003908
3657+1033913679+1033717131+1034134410+1034180574+1033148334+1030980234
3649+1028253759+1026229563+1025904411+1027058041+1028771850+1030168324
3640+1030987917+1031651849+1032411649+1032715221+1031875854+1030030768
3632+1027827528+1025621682+1024115510+1024755258+1027150836+1029352673
3623+1030497484+1030907882+1031293962+1031963104+1032437303+1032158315
3615+1031238712+1030346433+1030293789+1031422098+1033540092+1036193213
3606+1038459118+1039321668+1038629143+1037098653+1035579119+1034485750
3598+1033848608+1033570289+1033478562+1033536551+1033874797+1034305103
3589+1034303099+1033820082+1033827497+1035010322+1036572545+1037468031
3581+1037595766+1037727577+1038398056+1039118974+1039283254+1039186116
3572+1039233683+1038904857+1037518404+1035610920+1034816513+1035672850
3564+1036858948+1037395678+1037382718+1037357865+1037800665+1038658805
3555+1039196204+1038672367+1037325397+1036219668+1035778673+1035322312
3547+1034231481+1032812627+1031943997+1032289859+1033909737+1036063940
3538+1037501702+1037511589+1036575885+1035624682+1035027558+1034654572
3530+1034361088+1034103746+1033845869+1033603225+1033605964+1034213376
3521+1035366605+1036330101+1036418955+1035874942+1035610318+1035995262
3513+1036327763+1035820762+1034802016+1034403310+1035049070+1036002411
3504+1036467791+1036423097+1036331905+1036431782+1036572344+1036614366
3496+1036745643+1037297204+1038211797+1038930243+1038999590+1038612708
3488+1038362515+1038524456+1038773380+1038621460+1037976568+1037196726
3479+1036627060+1036306451+1036200361+1036356557+1036696072+1036992429
3471+1037143547+1037111948+1036716849+1035939278+1035217959+1034979256
3462+1035151619+1035481046+1035960189+1036691796+1037647342+1038630412
3454+1039304031+1039445662+1039276706+1039194734+1039141555+1038666555
3445+1037686624+1036729542+1036335713+1036520569+1036806571+1036758603
3437+1036462380+1036321015+1036429911+1036493111+1036390628+1036417218
3428+1036847591+1037573453+1038210528+1038358439+1037863597+1037029040
3420+1036416216+1036341792+1036731212+1037371962+1038034357+1038459586
3411+1038511228+1038334923+1038259631+1038484238+1038886151+1039195135
3403+1039298753+1039251520+1039085303+1038773714+1038271322+1037509518
3394+1036564194+1035823768+1035704250+1036209848+1036985949+1037628235
3386+1037762651+1037167598+1036137696+1035405487+1035297660+1035248891
3377+1034582554+1033501945+1032799198+1032859258+1033373608+1033806520
3369+1033921896+1034046425+1034659984+1035583128+1036171968+1036490839
3360+1037315376+1038727015+1039786113+1039881580+1039443057+1039051900
3352+1038731425+1038377613+1038201642+1038434466+1038945275+1039341777
3343+1039302962+1038809790+1038161157+1037681480+1037373966+1037036455
3335+1036690994+1036647369+1037133393+1038015918+1038885950+1039391281
3326+1039545406+1039666060+1039960346+1040250157+1040174063+1039661584
3318+1039085437+1038837916+1038938862+1039223595+1039563711+1039687037
3309+1039277308+1038505683+1038000085+1038147796+1038774983+1039389344
3301+1039543535+1039182241+1038663749+1038257694+1037895798+1037569578
3292+1037506245+1037786769+1038226294+1038673770+1039038471+1039104410
3284+1038760419+1038403801+1038690539+1039735807+1040807664+1041047035
3275+1040380297+1039500845+1039032125+1039022104+1039234217+1039475124
3267+1039487150+1039052033+1038508889+1038624065+1039544003+1040417509
3258+1040447973+1039797670+1039103876+1038591998+1038049121+1037398083
3250+1036991293+1037280436+1038222887+1039132737+1039358746+1039148169
3241+1039398964+1040367270+1041188065+1041104021+1040547650+1040334200
3233+1040431739+1040264721+1039700198+1039121112+1038898510+1039157255
3224+1039752843+1040292112+1040420983+1040202657+1040037241+1040140325
3216+1040318968+1040385241+1040495340+1040835589+1041257010+1041508406
3207+1041611423+1041754324+1041933769+1041901367+1041511079+1041041824
3199+1040996061+1041576550+1042492546+1043226625+1043380081+1042939353
3190+1042255780+1041571740+1040775730+1039918391+1039537923+1040008514
3182+1040950498+1041682440+1041939848+1041877985+1041645495+1041286539
3173+1040922439+1040723754+1040738786+1040964394+1041424964+1041996835
3165+1042442908+1042752894+1043040366+1043118330+1042677535+1041731877
3156+1040456391+1039014421+1037883439+1037705999+1038491052+1039519752
3148+1040137586+1040192969+1039861271+1039432167+1039072142+1038697821
3139+1038344811+1038391709+1038969326+1039535986+1039538792+1039129129
3131+1038815535+1038804779+1039005736+1039274168+1039413795+1039240096
3122+1038827694+1038515503+1038545366+1038810257+1039085303+1039363623
3114+1039692716+1039799608+1039340240+1038535679+1038111853+1038472813
3105+1039223728+1039624038+1039400300+1038979280+1038845999+1038918686
3097+1038895905+1038904456+1039188721+1039410789+1038984357+1038023935
3088+1037389933+1037750960+1038893833+1039989073+1040380631+1040033901
3080+1039335363+1038716393+1038502810+1038843728+1039643880+1040611250
3071+1041309989+1041253135+1040308479+1039051365+1038387033+1038711182
3063+1039578342+1040188093+1040139524+1039673676+1039145363+1038487511
3054+1037545861+1036648238+1036312130+1036551634+1036893153+1036980471
3046+1036882932+1036810914+1036742369+1036518364+1036227418+1036148385
3037+1036302710+1036457837+1036547559+1036664271+1036735087+1036582900
3029+1036202098+1035744200+1035346897+1035021412+1034653837+1034235156
3020+1033944076+1033675377+1032805411+1030975624+1028741920+1026832365
3012+1025150624+1023173527+1020997611+1019349540+1018713133+1018879884
3003+1019328830+1019807839+1020397480+1021060477+1021430189+1021280674
2995+1020905684+1020699650+1020567238+1020048880+1018893780+1017379658
2986+1016111320+1015441376+1015110813+1014579361+1013575380+1012203290
2978+1010847301+1010074741+1010142016+1010394214+1009550837+1006792027
2969+1002420421+997522439+993196996+990162472+988873825+989502215+991559414
2959+993956863+995748169+996594284+996550993+995800546+994567950+993067123
2949+991648402+990953004+991501091+993085695+994861903+996009186+996095167
2939+994941737+992547228+989306937+986006386+983217914+980811579+978399366
2929+976113151+974564623+974142668+974645928+975590651+976749825+978334028
2919+980606615+983402569+986188503+988589359+990739488+993059373+995677821
2910+998179222+1000092117+1001495740+1002846518+1004318485+1005638531
2901+1006480505+1006801581+1006891504+1007225874+1008168927+1009712378
2893+1011522256+1013216090+1014603011+1015758912+1016936325+1018294785
2884+1019635008+1020526552+1020791911+1020698715+1020554611+1020338089
2876+1019884266+1019233897+1018636639+1018322845+1018286234+1018207468
2867+1017631789+1016308669+1014373260+1012258874+1010399491+1008847490
2859+1007170625+1004861361+1001796440+998237879+994556393+991142670+988523888
2849+987384956+988259598+991096105+995191597+999612507+1003671990+1007148378
2839+1010215704+1013123161+1015882505+1018328857+1020384453+1022101603
2830+1023534821+1024729136+1025776007+1026784465+1027766666+1028579512
2822+1029064466+1029240704+1029241038+1029153654+1029086379+1029221130
2813+1029619301+1030157101+1030757699+1031492981+1032422939+1033455180
2805+1034313053+1034641211+1034308243+1033606498+1033016255+1032819441
2796+1032992004+1033354902+1033741583+1034057314+1034276910+1034452948
2788+1034693454+1035054080+1035499017+1035986243+1036468927+1036819198
2779+1036915267+1036814521+1036713308+1036710970+1036678435+1036427573
2771+1036025727+1035804260+1035994127+1036544686+1037323994+1038184540
2762+1038822082+1038932916+1038555922+1038018323+1037595432+1037365281
2754+1037268010+1037213161+1037196392+1037288787+1037466494+1037596835
2745+1037638991+1037675601+1037686157+1037503639+1037105734+1036765685
2737+1036748115+1036967978+1037077274+1036817995+1036189939+1035385311
2728+1034695859+1034382533+1034475729+1034727726+1034873500+1034925610
2720+1035130575+1035643321+1036327362+1036875984+1037075471+1036972988
2711+1036851065+1037020956+1037584209+1038367792+1039061587+1039418939
2703+1039385870+1039076485+1038628475+1038130693+1037727644+1037651885
2694+1037980510+1038458183+1038775718+1038956766+1039217114+1039527034
2686+1039633992+1039498975+1039383531+1039450072+1039573398+1039609073
2677+1039569256+1039436911+1039086573+1038531136+1038012310+1037722968
2669+1037636786+1037671058+1037788973+1037908826+1037924525+1037809750
2660+1037602247+1037370626+1037236076+1037300879+1037582338+1038061280
2652+1038608900+1038895570+1038732360+1038458851+1038580240+1039093053
2643+1039550483+1039671805+1039567853+1039457754+1039389945+1039223795
2635+1038873524+1038573826+1038739041+1039460026+1040348430+1041043828
2626+1041639416+1042295397+1042662570+1042225316+1041189668+1040420515
2618+1040400273+1040809869+1041209377+1041530453+1041772897+1041811311
2609+1041702615+1041749715+1042074131+1042443442+1042623221+1042604715
2601+1042368418+1041749314+1040814478+1040130905+1040241071+1040955843
2592+1041575615+1041772496+1041828948+1042036519+1042315707+1042509448
2584+1042703457+1043099758+1043693274+1044228602+1044527899+1044724713
2575+1045002498+1045325044+1045696694+1046308515+1047001842+1047143340
2567+1046630126+1046363832+1046991754+1047826846+1047786161+1046832419
2558+1045706514+1044825926+1044252786+1044215641+1044813968+1045515445
2550+1045585660+1044850311+1043719262+1042760911+1042421730+1042768928
2541+1043380015+1043764625+1043836376+1043793085+1043817870+1044061650
2533+1044614013+1045405948+1046292148+1047070253+1047413242+1047203467
2524+1046839567+1046671747+1046428435+1045852956+1045483110+1046011891
2516+1047216761+1048201034+1048475679+1048305387+1048170437+1048298373
2507+1048628802+1048955757+1049093848+1048986021+1048574955+1047683745
2499+1046319071+1045002498+1044377181+1044503714+1044860666+1044957871
2490+1044695986+1044297814+1044131263+1044487280+1045394390+1046605073
2482+1047632370+1047895257+1047189838+1046036275+1045191429+1044830870
2473+1044534980+1044039737+1043649983+1043836710+1044596310+1045331124
2465+1045440688+1045018599+1044731928+1044942906+1045284425+1045264316
2456+1044883848+1044435170+1044161193+1044335360+1045137716+1046229148
2448+1046946192+1047050879+1046824803+1046474331+1045971205+1045400737
2439+1044993680+1044819580+1044733732+1044617755+1044529836+1044617153
2431+1044930280+1045336201+1045592675+1045534218+1045245009+1045021338
2422+1045060287+1045292776+1045618596+1046048902+1046480745+1046641416
2414+1046414739+1045985969+1045679123+1045783944+1046338512+1046983069
2405+1047316839+1047334676+1047222908+1046987211+1046617767+1046286001
2397+1046096736+1045972007+1045956708+1046315731+1047191308+1048323292
2388+1049096654+1048841049+1047377366+1045373012+1043806379+1042962068
2380+1042308692+1041407460+1040440223+1039705810+1039125655+1038418566
2371+1037372496+1035914225+1034056847+1031706631+1028920764+1026676771
2363+1026281539+1027438308+1028365728+1028344751+1028441755+1029399171
2354+1030587206+1031263097+1031510017+1031713178+1031951012+1032048083
2346+1031890819+1031674897+1031751926+1032133062+1032487742+1032748759
2337+1033390176+1034778767+1036442003+1037520541+1037872549+1038006364
2329+1037927599+1037091304+1035607847+1034426492+1034178503+1034620434
2320+1035438423+1036743505+1038360644+1039561172+1039916120+1039753911
2312+1039571394+1039550082+1039802146+1040546314+1041760671+1042961199
2303+1043592195+1043584913+1043418429+1043644104+1044391010+1045252358
2295+1045588466+1045113131+1044311911+1044041608+1044570589+1045361788
2286+1045928448+1046366103+1046816452+1047111473+1047265063+1047624487
2278+1048241319+1048728412+1048875789+1048854544+1048869976+1049075810
2269+1049616950+1050395122+1051049233+1051416473+1051704479+1051996695
2261+1051902095+1051044088+1049667389+1048380746+1047617806+1047686417
2252+1048668419+1049895737+1050568687+1051129134+1052624283+1054666918
2244+1055728754+1055510161+1055300252+1055857292+1056326480+1055595140
2235+1053959428+1052902068+1053349276+1054619151+1055300519+1054888050
2227+1054231000+1054357667+1055197569+1055932717+1056216582+1056085773
2218+1055098026+1052919371+1050432601+1049135001+1049721236+1051640411
2210+1053696742+1055161159+1056281251+1057232655+1057302001+1056131670
2201+1054633180+1053654052+1053041428+1052527947+1052245686+1052207940
2193+1052136522+1051703210+1050735104+1049334956+1047690092+1046053578
2184+1045344886+1046858941+1050557798+1054712614+1057732775+1059172540
2176+1058981939+1057187961+1054502305+1052307015+1051605137+1052168657
2167+1053010229+1053744375+1055115262+1058142772+1062783345+1067000025
2159+1067718204+1064205540+1059294931+1056194802+1056287999+1059109541
2150+1062516716+1063951672+1062702975+1060250477+1058260419+1057271203
2142+1056844905+1055972868+1054127115+1052573309+1053397044+1056705077
2133+1060273392+1062227775+1062389582+1061201480+1059176215+1057168186
2125+1055906729+1055554855+1056097665+1057291579+1058273914+1058424298
2116+1058310859+1058603141+1058743704+1057894181+1056444194+1055531940
2108+1055614313+1056110291+1056125390+1055456514+1054941830+1055420973
2099+1056437781+1056725119+1055958304+1055164433+1055274331+1056073414
2091+1056759392+1056909574+1056721712+1056633860+1056727190+1056446065
2082+1055256961+1053722462+1053296031+1054665248+1056790591+1058024790
2074+1057881822+1057202391+1056836153+1056855126+1057115742+1057854698
2065+1059219773+1060598410+1061040474+1060169106+1058240377+1055830235
2057+1054032048+1054181362+1056207897+1057784083+1056619430+1053434122
2048+1051415070+1052678397+1056366297+1060256623+1063058992+1064878089
2040+1065880066+1065163490+1062118144+1058559649+1057289575+1058518296
2031+1060096887+1060881272+1061249715+1061373576+1061500242+1062653872
2023+1065012172+1066685162+1065839982+1063259147+1061435038+1061785510
2014+1063835494+1066126185+1066867479+1065262633+1063099143+1063059459
2006+1064888845+1065626399+1064001710+1062145936+1062645655+1065278733
1997+1067192296+1066429423+1064364808+1063618169+1064696106+1066181568
1989+1067080327+1067022138+1065560861+1062924108+1060394647+1059373029
1980+1060730288+1064537773+1069433216+1072983493+1073741823+1072101836
1972+1068880051+1064487801+1060035558+1057877680+1059317445+1062487989
1963+1064558216+1065059739+1065471406+1066544799+1067349160+1066566846
1955+1063913458+1060529665+1058247726+1058213587+1059984450+1061917254
1946+1062626013+1062137651+1061515875+1061614149+1062506361+1063911253
1938+1065541353+1067030957+1067976014+1068064734+1067193432+1065752531
1929+1064610058+1064274418+1064201598+1063555237+1062464874+1061698527
1921+1061240161+1060567278+1060165899+1061077285+1062856966+1063877983
1912+1063520163+1062758759+1062696896+1063224407+1063704952+1064173873
1904+1064851366+1065270917+1064901138+1064052217+1063392628+1063178844
1895+1063373922+1063851193+1064281900+1064253173+1063634070+1062974948
1887+1063320743+1065024464+1067002564+1067773253+1067201850+1066415193
1878+1066250112+1066689170+1067388109+1068012758+1068279586+1068020106
1870+1067164905+1065876592+1064815357+1064711873+1065639693+1066957669
1861+1067785345+1067667831+1066862669+1066000119+1065573220+1065638090
1853+1065860358+1065864099+1065526388+1064996672+1064547527+1064364408
1844+1064455533+1064769527+1065247267+1065752731+1066156047+1066349655
1836+1066101132+1065210790+1063762206+1061958207+1060190484+1059247832
1827+1059413247+1059875354+1059736328+1058813384+1057261916+1055261570
1819+1053286210+1051787320+1050554858+1049001119+1046804627+1044017758
1810+1040944485+1037855113+1034670472+1030962931+1025980906+1018771590
1802+1008762444+996209875+981734390+965634283+947583201+926007763+898223116
1792+864380911+831202170+804896838+785482953+771151304+761104545+754421204
1782+749521351+746016036+745771588+750863043+761427024+776765126+796890711
1772+820524817+843195161+862244144+878696259+893027574+904855283+914963036
1762+924332034+932187578+937090036+938655867+936906249+931473875+920510987
1752+899434534+862918431+812678159+760383360+717421282+690004476+681043003
1742+690480345+715741211+750136313+783421545+811002029+837095916+865572353
1732+890934299+909022192+923519723+936704424+947970082+957139727+964724033
1723+970698147+974780478+977082727+978315790+979586199+980963099+981683549
1713+981505508+980002141+976223985+968492369+953711039+930484591+902750116
1703+871540656+828742590+772881347+723273006+690590243+669549531+659603585
1693+660839054+669865731+684059890+700592374+716791957+734250524+756472457
1683+779149080+796091895+808999679+820429750+831553577+843346880+855332522
1673+865709643+874797515+885045363+897001075+907827743+916135706+923206063
1663+930234465+936575419+940849687+943116260+944385066+945800580+949562235
1653+958279460+967627547+972621197+975434054+979357450+985696267+992113915
1643+996624615+999595806+1001693156+1003161047+1004328974+1006165508+1009219673
1633+1012160133+1013843010+1014243921+1013715942+1012635534+1010914309
1625+1007660323+1001867790+993981382+985632065+977675174+970965711+967882150
1615+969046001+971055300+970541417+965197296+953003950+932944238+905723779
1605+873337039+838690140+805650158+778130268+758560120+747766923+745821225
1595+752068916+764574453+780604813+798028507+815764459+833177798+849737004
1585+865144319+879303872+891972552+902629328+911047323+917964691+924784921
1575+931510485+936250468+938371134+938828697+939097797+940183885+941755995
1565+943098356+943805245+943414087+940744398+933769643+923567958+914141707
1555+902984476+887452700+868536797+848268245+829014630+814118926+805440450
1545+802366042+803993402+810052028+822042280+841427304+860977477+874553601
1536+884696763+895414200+907758464+919174639+928037839+935253568+941825007
1526+947481052+951619167+954933547+958843047+963356419+967607772+971948380
1516+976836675+981429681+984599757+985854333+985137891+983306834+983719838
1506+988943372+994581646+997651310+998695443+998490812+997596729+996620406
1496+995854593+994874529+993007397+989852486+985826875+982426982+980288411
1486+978013220+973974915+967282020+958007154+946997233+934300828+918423057
1476+898024631+873326751+846813314+824689521+811769980+805972971+804001419
1466+805534114+811115401+818316633+823578114+825982311+827078085+831278130
1456+842717956+856918662+867680393+872176128+868127936+854785971+836397044
1446+821738373+817203823+823122421+835948499+850558067+863018909+872286560
1436+878978320+883744156+887279068+890715171+895300026+901367872+907535260
1426+911677116+912121452+908647670+903459410+900093922+901215484+905775020
1417+909129284+909318750+908690493+910991940+918400676+929526908+940973414
1407+950623069+958207242+963691859+966616084+966583616+963433782+957126633
1397+947226316+932896872+914745578+895094393+874934537+853424504+831302248
1387+813722826+806727894+810978379+822895877+838442886+854202743+867739584
1377+878326213+887145052+895970705+904896637+912332563+917238295+919996370
1367+922006804+925029303+930567032+939118374+949236082+958510747+965710377
1357+970841984+974243614+976117561+976290658+974169592+969070987+960592999
1347+948421767+931833632+909630473+880402319+843731691+803816697+771661979
1337+757943622+764153166+784706918+812631861+841846654+868258678+890466246
1327+909021457+924903103+938615983+950158959+959321789+965921621+969855105
1317+971093914+969813952+966682958+963024988+960364986+959449992+959816631
1307+960391041+960314346+959087896+956070542+950268723+940783280+927170278
1298+909349080+887692271+863587974+839813840+820043270+807480746+803381848
1288+806552725+814277794+823855097+833386971+841600269+847837604+852808206
1278+858851332+868383607+881663308+896313895+908887508+916449500+916900984
1268+908720690+891288511+865770437+835445573+804869648+778642280+760488181
1258+752590214+755279545+767189427+785700745+807660525+830258917+851661390
1248+871107878+888464364+903632975+916368730+926499532+934094193+939399232
1238+942652550+943873254+942753429+938799168+931625594+921101096+907113906
1228+889211938+866894404+840777068+813406894+788476657+769199259+757593952
1218+754813563+761179169+775439334+794295779+813220301+828226971+837241088
1208+840155426+838074443+832756978+826323429+820659100+816696020+814422566
1198+813624285+814251940+815959336+817718507+818116211+815845897+810122243
1188+801316765+791512918+784047463+781839546+785583765+793236749+801250292
1179+806421783+806713263+800897081+788333422+769387055+745628286+719382947
1169+693140547+669200329+649492692+635473768+628031228+627367563+632905292
1159+643385964+657319241+673510941+691134255+709409743+727485143+744639203
1149+760411820+774525877+786771199+796927588+804734830+809934648+812251861
1139+811178601+805737342+794570157+776396350+750494267+717018233+677396858
1129+634798012+593982922+560121043+537105606+526331081+526594636+535108633
1119+548864036+565486442+583373445+601498350+619219938+636098885+651657785
1109+665179795+675612901+681622824+682222019+678184917+672968131+671289462
1099+676028109+686611063+700395827+715024902+729357152+742996543+755726152
1089+767443963+778260075+788347385+797690662+806093959+813369147+819414946
1079+824269236+828202787+831477216+833669834+833183009+827508592+814335716
1069+793196397+766751371+740379499+719439466+705690511+696149284+686284909
1060+675068621+666748833+667312620+679375692+700441456+725197325+748760215
1050+768251731+782585317+791763312+796642588+798804408+799623599+798885512
1040+794368599+782880472+762015664+731977537+696733380+663268838+638784875
1030+627685967+630348441+643937058+664199598+687142048+709895633+730536503
1020+747505305+759701257+767246280+771745088+775379608+779500821+783770279
1010+786161114+783425085+771947247+749635725+718624416+686191780+661312050
1000+648706837+646104891+647632708+649582748+652725099+659967485+672895044
990+690444736+709961305+729046498+746606880+762568695+777040172+789950495
980+801239402+811047324+819661666+827341106+834181378+840063566+844567384
970+846827477+845678858+840439557+832003792+823242474+817854794+818141130
960+823568360+831492983+839160196+844984796+848485034+849906294+850305401
950+851475532+855029083+861327347+869407230+877785541+885165149+890662727
941+893588555+892961902+887846596+879156027+870758609+867308076+870566271
931+878500914+887678041+895413465+899742850+898447388+888591498+867645720
921+836792410+803720962+779971412+773262216+782410415+799936124+818464745
911+834330158+846999974+857192706+865759615+873318534+880195550+886493814
901+892186937+897193213+901511374+905361015+909076239+912713299+915902548
891+918372350+920458076+922692247+925061771+927128189+928667364+929753986
881+930449985+930733850+930442837+929147509+926404799+922001727+915456943
871+905546205+891189236+873318266+855782670+843851610+841050244+847043599
861+858518899+871765663+884275743+894789150+902963499+909085258+913523872
851+916126821+915866472+910537316+896430073+869015204+826300046+773951000
841+726508754+700169884+702078838+726466398+760491855+792703760+817492832
832+835161108+849238889+862601764+875249868+885508405+892552974+897176177
822+900627112+903398749+905029917+904556654+900749570+891814419+875305384
812+849416195+815661508+780710569+754441513+744421611+751367840+769761644
802+792458443+814616574+834237362+850726889+864072729+874898461+884047462
792+891785759+897824409+902000137+904415757+904806113+901794570+892837707
782+875800828+852008789+828113933+813594756+814549567+829319806+850546776
772+871053163+887139774+897284071+899433398+890542340+869786495+842987991
762+822062121+817044822+828311215+847938751+867579247+883339237+894846538
752+902726600+907440527+909053057+907257008+901834521+893384192+883298485
742+872797369+862798178+855269522+853404261+859033984+870384822+883377050
732+894834045+903918243+911191761+917337303+922731731+927507989+931623256
722+934939373+937344305+938784337+939215044+938481767+935995464+930592418
713+921432060+909545627+898226924+891446444+891489334+897616638+906538094
703+914329035+918537698+918932864+916591065+912321741+905767003+896393396
693+885810308+878346322+878137148+885573943+897127275+908428876+917020035
683+922686502+926435664+929462372+932470173+935467418+937957195+939175494
673+938327909+934713564+927445257+916031153+902520566+888868214+873377858
663+854982251+836325694+821954227+814427710+813384714+816998858+823175132
653+830419589+838318557+847497488+858672289+871227196+883319529+893561098
643+901834788+908528552+913663166+916768238+917215580+914538609+908679670
633+900539193+892634012+888468239+890192470+896948832+905925270+914593993
623+921649719+926616311+929637741+931636618+933737709+936007022+936989090
613+934297221+924854401+905354668+875170834+840035841+811172388+798667586
603+804779190+823519324+846212114+866876366+883284722+895104014+902339986
594+904952020+902661663+894433735+878169015+852173803+819199225+789171120
584+774367744+779934935+800423150+825348843+847100118+863527180+875322621
574+883169079+886558216+884132508+876037259+866459021+861901089+865820743
564+876153304+888136540+898438903+906205393+911192095+912917796+912198615
554+911737711+913700845+917296417+919788265+919630132+917366164+913476172
544+907347665+899320560+892195889+889371407+892052387+898861260+907287338
534+914925691+920308427+923221429+923779804+921004293+913044529+900052836
524+886360934+877239725+874143471+874502627+875022188+874808471+875195887
514+877271659+880711570+883851516+883355538+874802191+856240968+831242655
504+805370369+780803097+758343597+742537243+739388745+750124221+769944095
494+792310465+813608451+833011380+850123485+864764652+877124616+886826648
484+893156779+896835727+900184246+904806380+910132263+914565265+917460095
475+919380339+920894528+922206291+923757758+926090538+929153722+932290595
465+934686307+935607113+934711026+932794523+931947739+933902990+937719829
455+941120123+943556053+945507496+946568664+945989979+944175357+942244357
445+940723555+939690445+939540730+940383037+941218330+940627419+938156949
435+934906437+931949877+928803919+925177348+922863876+923579316+926222348
425+928226436+928470750+927387936+925900203+926738101+932828394+941033407
415+946126266+946529181+943660339+939950994+936432718+932714888+929418479
405+928308007+929846047+932640331+934700537+933100768+925108870+913666506
395+904105571+896439827+889954034+886556212+885820529+883222525+877164767
385+873311519+875699080+877640502+871929943+860670029+848790812+835974487
375+818739524+801717342
##END=
