##TITLE=LL- 110
##JCAMP-DX=5.0
##DATA TYPE=LINK
##BLOCKS=1


$$ === CHEMSPECTRA SPECTRUM ORIG ===
##TITLE=LL- 110
##JCAMP-DX=5.00
##DATA TYPE=INFRARED SPECTRUM
##DATA CLASS=XYDATA
##ORIGIN=Fabienne
##OWNER=
##XUNITS=1/CM
##YUNITS=TRANSMITTANCE
##XFACTOR=1
##YFACTOR=9.3553776e-010
##FIRSTX=3997.453
##LASTX=373.96442
##MAXX=3997.453
##MAXY=1.0045260199077364
##MINX=373.96442
##MINY=0.5502128008221043
##NPOINTS=2559
##XYDATA= (X++(Y..Y))
2559A073066096A072501230A072245237A072273270A072654648A073222446A073491691
2552A073058834A072077930A071192464A070939020A071307528A071864114A072191719
2545A072225104A072202040A072284864A072343225A072128135A071537782A070786113
2538A070367272A070579305A071091673A071330592A071139585A070747121A070332867
2531A069926770A069493531A068984730A068437001A067959546A067647868A067645893
2524A068035426A068552956A068847622A068903943A068803343A068441015A067841870
2517A067245402A066732969A066348533A066486724A067440423A068594942A068903943
2510A068282054A067313828A066842808A067049871A067292995A066887151A065947086
2503A065317615A065538312A066019399A065865663A065128646A064556643A064470696
2496A064529821A064584422A065022057A065950781A066664670A066685568A066493668
2489A066404408A065887325A064603408A063221056A062821903A063384540A063389828
2482A062147579A060927692A061043265A061848771A062085141A062225052A063016606
2475A063504828A062766983A061501479A060591103A060138814A060510954A062247096
2468A064089701A064332442A063728838A064071925A065320801A065927144A065281554
2461A063736802A061640434A059875813A060613148A064812764A068535499A068903943
2454A067194050A065024988A063323505A062602034A062732452A062946395A062843820
2447A062933780A063653149A064603790A065374701A065956834A066114329A065401332
2440A063986297A062667529A061802644A061010517A060493497A061459684A063709788
2433A064921838A064735227A064951847A065841898A065814184A064454450A062753094
2426A061749636A061992951A062793551A062645804A061654451A061614058A063053431
2419A064227127A064428073A064433616A064342190A063712592A062875867A062486206
2412A062468813A062288382A061838259A061397948A060999686A060577405A060572563
2405A061510908A062891412A063509224A062887080A061515814A060321858A060138369
2398A060926036A061721603A062028565A062108651A061837239A060864809A059760176
2391A059700924A060721903A061292951A060242537A057925600A056053688A056534392
2384A058540735A059222769A058495054A058726773A060867421A062303609A061308751
2377A059187345A057748545A058153751A060466229A063263616A064637493A063918316
2370A061983394A060325936A059965774A060621812A061102453A061003445A061048617
2363A061705993A062553167A062803745A062016205A060702726A060355625A061905921
2356A063890156A064342508A063294133A061794234A060803709A060978343A062146878
2349A063241762A063490429A062869241A061535182A059712647A057916170A056973748
2342A057732872A059947616A061751356A061866802A060836266A059863389A059719592
2335A060165765A060371171A060297902A060824925A061517853A060776441A059245450
2328A059212575A061180436A062968057A063300377A062836302A062386497A062025762
2321A061345322A060359129A059875367A060262033A060290958A058910136A057086581
2314A057067276A059986799A063566055A065074492A064557599A063254887A062058510
2307A061238286A060649400A060125499A059708825A059437540A058970916A057931206
2300A056938961A057662853A060208515A062001297A061741162A060157100A058392032
2293A057723251A059038833A061259885A062158346A061309452A060059939A059479526
2286A059522850A059898558A060500697A060928711A060797274A060351739A060071662
2279A060016616A059900278A059650720A059504565A059616252A059820830A059794071
2272A059480928A059346114A060017444A061248544A061809079A061116087A059763617
2265A058594827A058014286A057994090A058406368A059083113A059593953A059335347
2258A058166557A056926219A057056891A059049855A061286006A061992250A061216943
2251A059936849A058835848A058038815A057403355A056876715A056553187A056444113
2244A056400024A056377024A056518974A056835621A057101044A057211265A057322378
2237A057522369A057683368A057679991A057549255A057409918A057333973A057334356
2230A057424125A057613413A057807351A057754343A057263572A056493489A055856182
2223A055620003A055757046A056109818A056444304A056467686A056104530A055648163
2216A055444987A055559795A055800370A055902628A055733155A055474740A055487737
2209A055814387A056077898A056016608A055749210A055460341A055184661A054997795
2202A055099160A055547626A056088474A056377152A056295410A055989148A055697158
2195A055570053A055577826A055573493A055467859A055279591A055053861A054830170
2188A054674841A054652860A054742948A054779328A054492816A053780711A053036878
2181A052970108A053831426A055014551A055687856A055615543A055118082A054495683
2174A053836332A053236232A052867214A052797067A052864028A052808153A052601409
2167A052614406A053264966A054412476A055332408A055455308A054907515A054196557
2160A053641055A053282295A053067651A052921114A052841411A053009482A053581294
2153A054364437A054913504A054922042A054415152A053725155A053340082A053475342
2146A053769944A053752041A053518602A053495729A053694510A053709800A053335494
2139A052770818A052342803A052251505A052431490A052580639A052498196A052304576
2132A052159059A052019148A051861398A051853562A052096112A052389058A052433656
2125A052183078A051884908A051788767A051946390A052317574A052866195A053433228
2118A053727194A053573266A053025155A052235640A051414206A050844369A050727841
2111A051005178A051429816A051790678A051998315A051991625A051704986A051226639
2104A050886355A051004859A051563100A052208117A052561462A052463537A051976334
2097A051307999A050760525A050556902A050606789A050611822A050468088A050341047
2090A050333848A050378000A050445025A050602138A050870619A051170637A051379866
2083A051434785A051394392A051344123A051282068A051201600A051150950A051123044
2076A051062072A051024418A051120241A051286719A051290287A050978164A050455219
2069A050014907A049892709A050073650A050344615A050461972A050300081A049954254
2062A049691061A049730244A050095057A050624373A051043022A051160889A051106925
2055A051185927A051458996A051700463A051750667A051678992A051623818A051645989
2048A051703202A051671601A051416118A050876225A050104486A049265659A048609429
2041A048356111A048497551A048752971A048874660A048979020A049321024A049791534
2034A050023509A049982351A049994520A050160743A050138890A049572112A048522717
2027A047496068A047087421A047525885A048544825A049671438A050538617A050965931
2020A050936433A050573021A050133156A049967570A050282433A050843541A051148592
2013A051003967A050698342A050548938A050524027A050405587A050170937A050092763
2006A050417692A051033911A051570555A051743277A051470209A050826785A050090342
1999A049630025A049547009A049593009A049588485A049745662A050382141A051410766
1992A052332418A052794264A052926020A053004958A053049302A052974186A052902383
1985A053024072A053303447A053550776A053675587A053708717A053642521A053372256
1978A052847463A052246981A051884780A051859168A051908545A051754363A051476325
1971A051365085A051473012A051547045A051399489A051123363A050890114A050746126
1964A050657631A050585254A050504850A050492299A050699298A051096859A051431281
1957A051588203A051745124A052025392A052313241A052500044A052583761A052521323
1950A052311967A052136505A052126375A052163137A052106815A051975124A051802592
1943A051582023A051358650A051214343A051221096A051450203A051873185A052302283
1936A052568279A052651168A052601982A052509091A052498897A052615999A052788275
1929A052898815A052783306A052350895A051830052A051557749A051485882A051301500
1922A050954463A050670437A050599971A050755237A051045252A051181850A050768935
1915A049594220A047784809A045694494A043574489A041339485A038919207A036808950
1908A035786187A036035618A036975046A037896316A038368356A038091402A036732942
1901A033896946A029209043A022799525A015964285A010986240A009677603A011803278
1894A015182735A017690934A019084627A020584781A022967915A025714396A027998204
1887A029705739A031216278A032823914A034669704A036807293A039147103A041476720
1880A043447639A044531693A044181406A041952391A037426188A030651156A023112476
1873A017565805A016006016A017832374A020414288A021275734A019524810A015640248
1866A010467691A004424961I97466439I89882588I83045054I78819125I77830512
1859I78164679I75736947I66781448I51550607I35710109I26503522I26954346I34607771
1851I45339168I56610012I67303501I76608013I84001812I89502102I93389276I95926783
1843I97446242I98381402I98879818I98342028I95646707I90124246I82359517I74036101
1835I67043812I62611967I61035422I61993645I64965666I69388337I74642636I80025696
1827I84835925I88671429I91630516I94056528I96212912I98348017A000764408
1820A003472663A005973599A007707002A008645729A009242198A009866317A010497062
1813A010879842A010736682A009889380A008419808A006596317A004444010A001623177
1806I97905731I93461908I88605551I83605653I78670677I73728183I68370798I62381076
1798I56266542I51182226I48397390I48694032I51994550I57499872I64213295I71338232
1790I78296881I84587895I89825566I93985235I97441145A000609079A003630859
1783A006429201A008876556A010877484A012401084A013273743A012645737A008730211
1776I99623906I85136644I68154688I53710049I46059237I46474063I53440230I64049110
1768I75102315I84123246I90310666I94411275I97518364A000180618A002449581
1761A004259693A005620127A006604599A007243691A007467637A007233306A006677613
1754A006061458A005585086A005336356A005388726A005831331A006690228A007916167
1747A009452255A011228217A013086176A014814927A016294694A017569373A018748102
1740A019846936A020746417A021339190A021710502A022098697A022682805A023456392
1733A024272793A024945906A025374112A025653870A025997339A026501044A027095027
1726A027698249A028285798A028830724A029316780A029768240A030185488A030498376
1719A030625608A030572791A030482575A030552021A030811710A031062606A031146323
1712A031159957A031263170A031395053A031339560A030996664A030507359A030171535
1705A030229449A030617962A030964554A030944803A030634018A030400260A030494426
1698A030865610A031320957A031728393A032059183A032332698A032554796A032682283
1691A032669159A032575566A032586334A032862778A033342272A033719318A033706512
1684A033337430A032947961A032827546A032951465A033102398A033149353A033103608
1677A032989501A032834809A032777150A033027027A033651656A034449517A035064143
1670A035234890A034998775A034657153A034487298A034498192A034529347A034516032
1663A034527818A034605547A034695061A034700349A034554514A034350190A034358027
1656A034690538A035031140A035001068A034705701A034612045A034972334A035614612
1649A036173617A036363032A036149025A035758218A035457690A035349444A035413346
1642A035599257A035805938A035930239A036016122A036206939A036486633A036625078
1635A036472680A036192858A036113410A036393996A036854631A037100431A036884703
1628A036372079A035921256A035641307A035365754A034988900A034564007A034161094
1621A033900768A033998693A034540178A035309496A035948461A036170942A035898256
1614A035357790A034937421A034790947A034782474A034868293A035194561A035720819
1607A036108823A036107548A035809760A035501141A035440615A035720883A036174191
1600A036503198A036604053A036631449A036712554A036804681A036894706A037127444
1593A037601332A038186459A038653912A038894550A038965143A039039558A039315366
1586A039806901A040225104A040229437A039811234A039314346A039099447A039276948
1579A039719298A040221345A040607119A040746966A040609158A040333478A040139285
1572A040093604A040081116A040028044A040007147A040105709A040330802A040592784
1565A040684593A040443444A040056651A039924131A040084047A040098637A039642143
1558A038840842A037950917A037046212A036091175A035119636A034337958A034038258
1551A034252584A034617843A034824205A035016805A035514011A036313656A037066154
1544A037425360A037372225A037207721A037200076A037371269A037711170A038298655
1537A039018024A039520517A039677312A039756059A040015111A040394386A040719507
1530A041016148A041486659A042212844A043005034A043596661A043897316A043975745
1523A043928216A043841250A043754729A043619215A043390745A043083336A042661501
1516A042068855A041457479A041152045A041258061A041497171A041527625A041293867
1509A040990600A040840304A040999328A041533741A042351671A043221590A043923438
1502A044321635A044355403A044113426A043846984A043759954A043837491A043899418
1495A043731474A043229809A042563003A042058853A041824585A041640140A041271122
1488A040715748A040173816A039919034A040125204A040671787A041218433A041564578
1481A041829491A042147030A042317968A042029482A041414919A041053674A041258953
1474A041626952A041545719A040990791A040531812A040589726A041007738A041417914
1467A041703469A041935571A042120462A042179586A042075864A041919579A041945828
1460A042244891A042607283A042863786A043159153A043576337A043811050A043509758
1453A042683737A041657469A040852983A040564305A040729764A041082472A041593057
1446A042427361A043451525A044212752A044478557A044445682A044350369A044184337
1439A043890945A043587677A043408839A043265742A042993311A042665770A042535352
1432A042659654A042779877A042609449A042118742A041513099A041043926A040908667
1425A041196133A041791774A042410414A042819952A042964004A042887231A042757196
1418A042891309A043428780A044022382A044263849A044357824A044914791A046153154
1411A047684654A048923400A049453417A049179775A048176317A046406790A044040476
1404A041952199A041227288A042160218A044013207A045608419A046173478A045712206
1397A044542141A042888378A041091837A039749178A039303069A039390864A039104417
1390A038227872A037369612A037066345A037384330A038045720A038668502A039009550
1383A039065552A038934625A038588926A037933078A037153566A036730521A036905091
1376A037379870A037769785A038024950A038262850A038620782A039195142A039777084
1369A039926743A039536827A038975592A038604217A038487242A038468829A038329683
1362A038038839A037838403A037824513A037605409A036724341A035332242A034159438
1355A033783157A033998375A034042463A033529776A032952230A033043401A033898984
1348A035038913A036109014A037109924A037970222A038354276A038135299A037765516
1341A037846813A038449652A039077275A039194059A038723994A038216850A038444937
1334A039595506A040995378A041841532A041950161A041630073A041228308A041006209
1327A041076802A041195879A040891401A040004662A038914556A038114338A037769721
1320A037794569A038083820A038489727A038752792A038739859A038746102A039342316
1313A040750598A042442715A043598253A043952172A043920762A043903432A043860108
1306A043575891A043021281A042465142A042403278A043074671A043932485A044067426
1299A043298108A042365433A042048723A042554975A043552954A044449759A045039793
1292A045940166A047642668A049364666A049957185A049661308A049682651A050350668
1285A050967651A051190260A051468043A052281449A053701518A055516535A057283386
1278A058391459A058415861A057377233A055657465A053803775A052325474A051521306
1271A051504294A052112996A052621287A052118029A050667315A049556184A049796122
1264A051037352A052652060A054934465A058152413A061067985A061955998A060675585
1257A058541946A056633591A054903565A053024136A051322207A050175843A049364985
1250A049044898A050231718A053049365A055666958A056406905A055863509A055524690
1243A055475760A054862790A053616208A052474750A051904467A051704222A051436250
1236A050952934A050486182A050130735A049414107A047856485A045886011A044610759
1229A044594066A045297698A045808219A045730491A045288587A044861273A044584764
1222A044365915A044177074A044120179A044182489A044251680A044360117A044401084
1215A043699937A041591783A038371032A035106957A032713566A031540889A031519036
1208A032319955A033478297A034457098A034812737A034683593A034893523A036029629
1201A037636118A038703670A038619890A037511052A036095826A035150409A034755205
1194A034344839A033626936A032957581A032835191A033555069A035048151A036491539
1187A036614375A035149262A033410316A032725798A032898903A033006576A033119409
1180A034033480A036034853A038859573A041917668A044011423A044071631A042677493
1173A041824967A042722919A044349159A044448167A041928754A038292412A036285431
1166A037056470A039453047A041912316A043671394A044197461A043231147A041766098
1159A041422692A042537200A043977656A044891918A045668563A046946236A048465122
1152A049403785A049417929A048853253A048280294A048184345A048862045A050236114
1145A051806224A052951504A053307334A052965330A052457421A052252142A052033483
1138A050982560A049088477A047437644A046854810A046947319A046796387A046167935
1131A045867152A046899281A049245207A051763346A053310392A053441447A052309801
1124A050702675A049625821A049232911A048862746A048301383A047954728A047758878
1117A047026832A045437417A043485165A041925186A041082918A040752509A040650571
1110A040766653A041155549A041540431A041386249A040442425A039086896A038054512
1103A037749971A037958435A038318788A038657925A038796180A038601923A038364215
1096A038689845A039898518A041614082A043051799A043728161A043775627A043541932
1089A043018414A042049933A040892356A040000521A039424122A039025988A039170740
1082A040409996A042568355A044792018A046450050A047530791A048261436A048790816
1075A049186465A049472021A049718776A050085564A050584999A050958732A051056147
1068A051025948A050878200A050290970A049139510A047916501A047320096A047524419
1061A048021561A048134076A047626549A046851561A046369646A046373341A046571676
1054A046798935A047194521A047698607A047916883A047511167A046433421A044874461
1047A043291609A042290763A042207237A042901503A043948413A044879176A045485711
1040A046053445A046915018A047674652A047688732A047047092A046271594A045671430
1033A045181233A044546601A043586849A042381489A041260100A040456314A039836527
1026A039191256A038511898A037949325A037767619A038294005A039706619A041779477
1019A043942169A045690289A046903231A047731992A048265258A048452634A048348020
1012A048134650A047861645A047373104A046515801A045332739A044032130A042783382
1005A041615547A040570358A039900302A039810533A039856023A039380161A038420918
998A037540360A037224796A037673326A038975974A041004425A043106973A044564568
991A045347839A045975335A046831237A047797042A048578720A049260116A050002229
984A050652788A051113360A051659942A052514506A053366649A053832445A054010392
977A054117236A054148073A054070727A053977134A053919220A053750130A053274013
970A052485517A051494164A050362964A049063502A047482179A045541968A043437254
963A041586176A040351126A039690564A038939531A037716841A036396672A035488016
956A035316122A036050272A037616814A039521409A041272715A042957888A044956777
949A047086020A048673459A049673031A050427377A051020596A051440901A051889495
942A052639381A053525929A053969808A053791861A053459605A053485217A053785872
935A054126283A054467650A054511802A054080411A053503375A053116326A052870845
928A052638553A052665567A053260506A053984525A054208089A053985672A053659850
921A053701518A054542511A055984624A057358120A058540417A059855553A061163234
914A061944402A062203645A062236903A061995308A061157882A059731506A058064172
907A056458384A055280547A055407461A057567285A059827965A060487126A060549117
900A061253067A062756662A063999676A064407558A064244329A063764516A063138804
893A062772590A063174865A064043828A064504718A064632142A065078187A066121656
886A067330648A068125132A068544865A068871387A068903943A068377685A067224632
879A065463642A063015905A060092369A056973684A053685972A050222480A046507136
872A042088542A036048297A026969388A012735762I90741484I59244170I19453256
865H76530470H38253345H11876917H00849770H03818541H16688675H35135934
858H55759392H76272947H94871522I09420775I18176029I21901694I24493420
851I31245452I45182374I60562491I67036677I62433447I52037491I45939332
844I52492265I68479936I85150469I96988219A003329885A007230566A013269729
837A022158458A028479736A031503809A033644648A035939286A038588097A041578403
830A044638664A047555129A050397114A053115434A055469898A057611183A059788273
823A061409925A062123942A062394525A062736593A063214621A063519864A063711954
816A064191639A065043974A065911089A066557316A067098355A067640287A068125132
809A068519698A068851891A068903943A068123603A065876303A062053286A056863654
802A050359078A042364477A033108259A022536268A009453402I92938070I73775329
795I54783335I38892378I26451789I15749253I05674595H95867207H83718990
788H61033250H20451229G67811589G20071056F93332555F92442057G08004263
781G26248154G41858398G58898841G83598123H17323306H52333999H78851166
774H96348230I09992396I23824448I38415624I51360810I61077600I68830096
767I77430976I88913788A000111619A005201797A003487762I96992934I86750332
760I69030532I34393253H80422614H24586688G93018080G98286141H30282955
753H70348338I09085015I44208414I71418508I88960935A000426227A009070686
746A015741295A020577199A024314970A027790567A031072099A033585587A035102816
739A035904308A036114429A035820846A035433607A035177040A034838285A034091266
732A032833407A031258519A029708351A028562689A028416789A030089028A034036602
725A039684447A045443788A049938836A052942776A054893626A056265465A057429095
718A058680328A060142446A061571880A062582411A063077323A063176331A063078087
711A063039478A063153394A063327901A063578988A064007449A064563014A065140306
704A065628846A065773727A065374000A064533643A063448443A062116933A060309116
697A057816143A054750275A051465813A048267170A045354528A042834287A040571313
690A038328090A036184512A034583120A034003472A034679834A036425979A038624095
683A040329719A040472306A038069612A031723869A019416500A001392605I83963458
676I76715876I83099719I96364610A006722084A009666963A006067638I97506768
669I83960336I64689922I39501334I08717399H72422407H30541178G84703839
662G40562121G06241999F85047621F70047735F50480934F24334123F00545662
655E88883820E91701977F05298742F24881279F46910024F69183932F90583716
648G10938311G30856927G51282369G72908584G95868985H19541937H42260934
641H61336199H73577435H75800844H65026122H39011067G98077613G47676927
634F98580674F62272876F44660111F44062624F54465269F69901644F86622509
627G02917016G18116701G32019537G44818696G56976852G68888762G80713770
620G92485196H04192720H15722424H26838576H37311687H47143221H56653202
613H66188032H75711775H84808969H93020316I00069563I05879173I10512857
606I14107404I16913328I19450517I22522182I26901657I32847991I39895582
599I47227581I54201139I60487885I65945615I70247170I72036384I67924881
592I51741933I15468794H55111508G79353335G08882464F60797633F34567933
585F17852674F03576425E95228098E96365733F01683425F02177509E96777628
578E94516757F04634803F28068390F59642413F94556392G29924380G61383467
571G80299580G76934650G50218767G14200793F89808154F88225685G04652266
564G27431343G48779903G66592340G81017101G92339233H00868246H06775144
557H09163693H06056731G97122639G86478144G80425029G81783807G88486654
550G97215977H05107810H08406990H03716666G91508433G76165268G62849472
543G55750403G57580965G68211890G84234475H01333978H17200024H31984693
536H46557711H60958262H74492270H86686742H97628197I07592952I16765644
529I25170038I32624236I38906459I44092777I48684666I53416976I58676180
522I63546999I65590805I62678036I55576227I47930894I43019363I40841891
515I38141791I29624119I08489566H68388058H08907317G40579833F82182763
508F49949006F48031094F68893152G01127547G35486151G65649407G87889484
501H02235944H12116919H20652877H27886569H32675709H35287440H35496351
494H29953948H15961534G98297736G88375413G94655406H15636413H42979729
487H69302830H91843116I10856899I27114836I40965045I52343626I60949157
480I66506214I68956882I68347926I64526056I56888432I44307677I25327852
473H98847574H65146920H26603735G87727147G54645133G33764025G29153724
466G39809368G59438415G80225102G98325578H16050475H37777801H63029336
459H83396928H86031086H61557916H12322261G54514142G09347495F89198562
452F91983142G07815549G28310245G49709583G71083628G92298903H12680894
445H29371432H36784409H29817223H09409938G84358585G66152984G61568995
438G69864060G85663081H03346247H19295564H32010878H41718238H49820766
431H57751910H65814873H73036205H78072992H80547998H81890466H84569541
424H90003825H97370356I04592070I10094016I13607140I15969631I18505227
417I22226433I27207281I32614807I37365847I40602399I41314504I37752386
410I28119186I12721421H95551580H82994207H79827292H85881491H96844735
403I08323024I18611880I27892181I36240764I43268094I48765644I52279532
396I52093303I46341034I36146088I26381833I21958143I24109494I30964866
389I40176614I49882254I58569782I65488547I70920666I75645776I80302778
382I85119760I89991853I94789467I99503173A004104427A008469375A012388533
375A015551179A017622381A018084290A015363102A005733725I83766079I46488653
368H99909838H59928044H41939190H48082012H67043233H85456916H94960973
361H88999156H61332313H14047700G63903326G33532752G34007404G58309444
354G91544494H23570933H51360995H74614278H93166280I07213358I17612308
347I25728470I33050085I40408715I47622338I54180050I59942386I65024918
340I69484605I73345276I76654777I79450253I81655058I82748668I81846702
333I79036509I76489891I77028000I81448313I88164858I95205313A001525189
326A006707494A010560200A013223729A015179039A016959397A018910248A021247509
319A024159004A027591022A031130523A034468375A037754877A041176192A044505443
312A047342714A049522480A051205296A052776361A054545952A056423343A058061242
305A059316488A060417234A061779071A063703226A066020737A068014338A068903943
298A068490773A066618288A063107458A057242037A047023901A028115879I94793863
291I44785769H84314949H26686242G84666759G65079316G70211734H00051399
284H49290430I03181431I39977515I41716460I07397421H56696208H16809727
277H02195742H05654265H05785511G82133839G30359339F68380974F22951899
270F05779319F06863436F12638578F22752864F44767975F79896662G20764047
263G59605976G93281528H21797584H45853761H66076027H83027719H97382461
256I09968249I21512034I32547973I43532433I54677192I65805768I76656433
249I87046464I96728849A005613756A014144299A023007543A032432151A041926014
242A050548046A057351175A061696564A062828019A057848317A039036309I95887027
235I26686311H50353459G99081708G92475703H20247798H50190230H50549882
228H09489068G42740358F82365616F49467983F36608617F22264578F00616319
221E88124632F01371365F38674785F85222000G28704238G65708850G97121365
214H23444530H44457711H60133642H71412322H80917334H92313881I05443258
207I16098329I24303814I32343650I40726509I48840123I57227760I67228640
200I78759109I89990961I98693015A003030504A001568704I92908699I74452011
193I40610872H84405547H05393620G17240284F43667930F03416891E98978420
186F19820217F53138856F90203421G26444004G59639106G88969524H14596512
179H36994976H56595352H73985890H89998601I04691333I13743992I05775769
172H71320450H20212884G81041311G76021344H01529701H37033904H67033931
165H88642498I04478855I16796035I26846100I35180283I41846687I46850790
158I50533833I53615119I56585802I59327823I62114952I66174594I72234400
151I79641260I87571894I96022669A005300677A015354692A025680693A035421756
144A043728799A050427440A056128039A061359657A065881782A068903943A069420772
137A064407431A049322681A017631683I61641639H78513048G80470009F95607443
130F50037629F46262332F62421834F74482320F77263396F83469675G05651519
123G43127088G85469844H23118708H52743028H76038743H96580650I17182000
116I37743148I53180924I53000429I27615354H81054952H35102804H12885090
109H16924726H26972434H21598803G98235618G70019771G50416655G39564078
102G22252415F87386348F47330776F27034286F38138015F71097129G09367819
95G42994058G69158326G88533163H03526551H16450202H28387661H39950750
88H51533654H62744991H72953634H82060194H89889399H95693274H99340957
81I02369426I06775277I12857509I19162285I24641486I29534349I34136177
74I38273547I42014822I45612300I48319280I47790346I41285133I27697861
67I09215688H92028262H83813729H88497172I03208062I20968574I36368187
60I47831886I55652107I60426339I63646963I67559112I73144202I79193049
53I84477483I89420806I94421978I98191477I99878243A001170634A003957890
46A007934070A011596470A013842433A014333904A013096752A009362549A000862078
39I85859198I66140190I47480771I36717390I37181784I47385331I62117947
32I74404737I82179149I88786110I96817281A006117142A014877237A021835568
25A026998886A030530423A032690821A034300240A035823458A037097946A039396216
18A045406708A052989795A054896621A049630280A042955021A040087933A041540049
11A045584910A051453389A057513576A058574439A052213469A045404351A046913998
4A057646925A068903943A073741822A068903943
##END=


$$ === CHEMSPECTRA PEAK TABLE AUTO ===
##TITLE=LL- 110
##JCAMP-DX=5.00
##DATA TYPE=INFRAREDPEAKTABLE
##DATA CLASS=PEAKTABLE
##$CSTHRESHOLD=0.93
##MAXX=3997.453
##MAXY=1.0045260199077364
##MINX=373.96442
##MINY=0.5502128008221043
##NPOINTS=39
##PEAKTABLE= (XY..XY)
3007.297207419859, 0.9147973668561331
2998.79801606724, 0.8667790296039908
2969.0508463330725, 0.8990849259785347
2916.6391663252543, 0.8872615698304465
2882.6424009147768, 0.8850741394102891
1593.5983791008598, 0.7492251999223152
1569.5173369351055, 0.8849619637551763
1481.6923596247066, 0.6478056909355723
1443.4459985379199, 0.7418983582027008
1330.1234471696635, 0.9137545827894777
1300.3762774354964, 0.5509230498630432
1266.3795120250193, 0.6025449045566822
1198.3859812040655, 0.5568583614919805
1191.3033217435495, 0.5561928751262444
1174.3049390383107, 0.6438611157193656
1155.8900244409692, 0.730117083478595
1141.7247055199373, 0.7070330391417173
1090.7295574042219, 0.6062575580911095
1068.0650471305703, 0.7375549679170949
1034.0682817200936, 0.6821508416466182
1014.2368352306485, 0.6447712788887011
994.4053887412038, 0.7124765516677513
947.6598363017979, 0.8231116539445459
927.8283898123532, 0.8625266559159797
890.9985606176697, 0.7876659038688144
878.2497735887409, 0.6862475876927155
842.8364762861606, 0.9135431652887842
779.0925411415164, 0.7157605895129722
764.9272222204845, 0.7504844075522179
755.0114989757622, 0.5667294271515855
701.1832870758403, 0.7413909440390453
685.6014362627047, 0.5502128008221043
637.4393519311961, 0.5603669293351392
611.9417778733382, 0.7259972698779494
555.28050218921, 0.6046028144516563
528.3663962392493, 0.7604846962359985
512.7845454261137, 0.5866142513676393
464.62246109460466, 0.8268411162859071
423.54303622361203, 0.8763344887936464
##END=

##END=

