##TITLE=SG-X11466
##JCAMP-DX=4.24
##DATA TYPE=INFRARED SPECTRUM
##DATE=17/5/2022
##SAMPLING PROCEDURE=Diamant-ATR
##ORIGIN=Angelika Moesle
##XUNITS=1/CM
##YUNITS=TRANSMITTANCE
##RESOLUTION=4
##FIRSTX=3997.453
##LASTX=373.96442
##DELTAX=-1.4165319
##MAXY=0.94716597
##MINY=0.2406352
##XFACTOR=1
##YFACTOR=8.8211705e-010
##NPOINTS=2559
##FIRSTY=0.94513816
##XYDATA=(X++(Y..Y))
3997+1071443024+1071300249+1071499851+1071961083+1072609688+1073307753
3989+1073741823+1073704051+1073402149+1073172140+1073018148+1072702394
3980+1072109062+1071304573+1070481773+1069984999+1070076962+1070523532
3972+1070711849+1070338930+1069746747+1069497211+1069825263+1070559749
3963+1071330385+1071749657+1071658843+1071305384+1071077065+1071096998
3955+1071213894+1071259504+1071177609+1071018347+1070860909+1070671848
3946+1070324335+1069818033+1069317813+1068954489+1068716575+1068551366
3938+1068453255+1068391496+1068258585+1068021347+1067874247+1067982224
3929+1068102026+1067920330+1067570047+1067403622+1067463354+1067533289
3921+1067589642+1067787014+1068169934+1068592179+1068833741+1068830701
3912+1068737049+1068660289+1068408996+1067741472+1066832859+1066285744
3904+1066571701+1067378351+1067901343+1067855463+1067638563+1067657415
3895+1067930601+1068281627+1068494810+1068262775+1067457678+1066579674
3887+1066590688+1068121486+1070192506+1071001725+1070267104+1069038681
3878+1068027766+1067149762+1066499603+1066495955+1067076043+1067705052
3870+1068210070+1068589273+1068564475+1068139460+1067878775+1068176015
3861+1068490891+1068093512+1066943268+1065499703+1064449665+1064847922
3853+1067119220+1069139901+1069510793+1069029559+1068431565+1067877626
3844+1067403014+1067128410+1066984823+1066743261+1066502103+1066550078
3836+1066771370+1067031041+1067564236+1068324196+1068666168+1068235139
3827+1067588224+1067413082+1067515653+1067224427+1066610080+1066554132
3819+1067244225+1068026145+1068630220+1069056587+1069145104+1068804281
3810+1068063849+1067028203+1066089453+1065819309+1066186889+1066645149
3802+1066929619+1067081111+1067159289+1067312200+1067696876+1068142906
3793+1068200475+1067716877+1067064151+1066808668+1067171317+1067828840
3785+1068270207+1068273181+1068030266+1067829448+1067668159+1067291591
3776+1066745491+1066373383+1066166281+1065720927+1064950899+1064403244
3768+1064407163+1064598454+1064701836+1064769541+1064751230+1064619603
3759+1064729472+1065353819+1065945462+1065733089+1064730891+1063985999
3751+1064934277+1067195709+1068591841+1068372306+1067372135+1066904145
3742+1067367607+1067904857+1067873774+1067269293+1066511631+1066246216
3734+1066761842+1067520113+1067753905+1067258820+1066437642+1065900866
3725+1065862080+1065857148+1065505041+1065125973+1065114216+1065333345
3717+1065412199+1065176988+1064716228+1064303376+1064191683+1064298578
3708+1064462571+1064705485+1064955156+1065079147+1065107256+1065076782
3700+1064690079+1063640244+1062207422+1061188534+1061206778+1062093229
3691+1063056507+1063287596+1062452836+1061025353+1059856189+1059378604
3683+1059460026+1059647127+1059554624+1059102919+1058412759+1057659421
3674+1056932097+1056173624+1055370149+1054553161+1053523867+1052023813
3666+1050281994+1048786872+1047941099+1047875961+1048355708+1049010799
3657+1049642849+1050103339+1050096582+1049519804+1048574365+1047365335
3649+1045847645+1044537463+1044032580+1043872439+1043468979+1042946325
3640+1042776319+1042903688+1042756993+1042198054+1041685401+1041311739
3632+1040483533+1039022467+1038077028+1038766377+1039944460+1040249336
3623+1039724655+1038843812+1038002836+1037583700+1037653094+1037679514
3615+1037182401+1036263922+1035365647+1034715826+1034265134+1034013436
3606+1033846403+1033419901+1032672645+1031967890+1031547875+1031174280
3598+1030530811+1029543816+1028164037+1026493842+1025056358+1024370657
3589+1024579246+1025504347+1026520261+1026856963+1026385392+1025408600
3581+1024160785+1022806209+1021627924+1020996482+1021005536+1021230409
3572+1021089864+1020437948+1019577580+1018829715+1018173678+1017254185
3564+1015963531+1014736730+1014108599+1014098869+1014104545+1013595473
3555+1012645574+1011669931+1010948891+1010402182+1009744186+1008831383
3547+1007710464+1006477717+1005321662+1004484740+1003934991+1003366186
3538+1002633052+1001920188+1001430036+1001117389+1000805892+1000406756
3530+999969307+999527602+998970082+998238097+997516990+996951767+996383503
3520+995642530+994826217+994083893+993390625+992706141+992165311+991912599
3510+991823136+991545153+990854994+989867728+988894315+988143815+987498049
3500+986732954+986007927+985792852+986202124+986642680+986337669+985108571
3490+983529595+982389960+982043866+982281577+982708349+982959440+982677875
3480+981753923+980560502+979634725+979197075+979077543+978978080+978746112
3471+978345625+977679858+976729891+975799453+975275515+975153619+975075575
3461+974754280+974180543+973532817+973050367+972911579+973059760+973089017
3451+972504942+971362807+970480613+970564264+971221248+971435309+970835355
3441+969931269+969283745+968901570+968547570+968234519+968077689+967913021
3431+967502465+966954743+966555472+966386817+966387560+966464658+966397223
3421+966009236+965465433+965008862+964549656+963926053+963320761+963050413
3411+963091023+963104740+962875542+962522016+962261736+962113353+961927941
3401+961649147+961434072+961522048+962001930+962662156+963076360+962919530
3391+962244033+961467519+961074734+961249673+961683878+961809153+961340893
3381+960553905+960009088+960081793+960667152+961264201+961460356+961356231
3371+961347582+961546170+961667796+961470019+961078451+960846077+960959663
3361+961212780+961239875+960972636+960736276+960876349+961413801+962069094
3352+962563707+962877232+963159877+963425697+963500903+963294274+962960410
3342+962812972+963115889+963794967+964372015+964446207+964189576+964079234
3332+964280322+964587901+964818990+964970820+965110082+965338266+965782606
3322+966398372+966819400+966662908+966043629+965532935+965471446+965540570
3312+965224816+964534994+964016462+964107951+964744934+965581383+966336883
3302+966857104+967028664+966800683+966281138+965760578+965557395+965810580
3292+966375736+966891700+967017583+966732032+966389047+966394047+966867645
3282+967617469+968302967+968651088+968644263+968442094+968094041+967549021
3272+966974473+966756628+967092586+967782273+968475203+968981640+969270299
3262+969267799+968892718+968303035+967833288+967610172+967463140+967252456
3252+967064882+967067112+967305769+967666728+968001605+968306345+968700684
3242+969200634+969623420+969704571+969228068+968167962+966827238+965732537
3233+965294210+965606046+966451955+967402056+968101338+968590950+969087252
3223+969451589+969328274+968825080+968471014+968428985+968373172+968166205
3213+968084040+968329657+968754537+969090630+969190972+969029750+968615276
3203+968007281+967413813+967147385+967393137+968075189+968922854+969570377
3193+969707004+969339896+968849811+968642777+968795890+969109955+969366789
3183+969431589+969265231+969003195+968907921+969067049+969236852+969130970
3173+968740212+968267020+967892885+967673485+967543683+967404016+967239753
3163+967163129+967317121+967716527+968149921+968296345+967980726+967292998
3153+966532836+966082279+966146403+966549255+966952986+967200292+967216779
3143+966811630+965945450+965043796+964700540+965070621+965696252+965936125
3133+965524827+964727568+964051733+963851658+964050179+964139844+963630029
3123+962487488+960918039+958938576+956596465+954438888+953247291+953249588
3114+953855286+954263611+954188609+953903531+953729876+953764134+954012048
3104+954366858+954471659+954037117+953265129+952597335+952130629+951531554
3094+950397594+948621111+946501576+944441975+942482445+940353314+937973769
3084+935519897+933058187+930561679+928268150+926641605+925914485+925792250
3074+925609338+924810256+923406016+921960829+921112150+921083568+921573653
3064+922091171+922405980+922561661+922547539+922290030+921913125+921622911
3054+921387835+921045323+920592672+920096167+919494794+918746389+918009268
3044+917481952+917196806+917142750+917448167+918222789+919297355+920339960
3034+921234857+922157593+923243780+924318549+925054386+925343721+925355951
3024+925198716+924710860+923716906+922339356+920915724+919679260+918612533
3014+917615065+916795306+916493808+916921661+917843316+918692130+918989101
3004+918710645+918263466+917998660+917883858+917821018+917971294+918457460
2995+919114510+919871294+920998767+922641056+924471325+926059422+927271358
2985+928134902+928639380+928895605+929255280+930012199+931059737+932021663
2975+932650808+932923182+932842166+932438097+931906254+931437453+930927773
2965+930160786+929262848+928663435+928549647+928595662+928323220+927618127
2955+926838504+926434233+926510722+926842085+927245613+927737455+928283489
2945+928670732+928789047+928826954+928999866+929219130+929192913+928708031
2935+927652182+925941107+923659471+921157962+918795715+916670639+914721582
2925+912934288+911283418+909638765+907961880+906576155+906067420+906803392
2915+908572375+910804144+913154702+915710537+918580099+921544733+924255303
2905+926566130+928497483+930034160+931140483+931877401+932411813+932995347
2895+933919840+935276105+936747847+937892145+938639266+939243072+939803565
2885+940200809+940418114+940531091+940458994+940124725+939732076+939506054
2876+939350440+939131919+939050429+939339291+939823227+940131549+940173240
2866+940148645+940219323+940325746+940262905+939927218+939521460+939386725
2856+939585989+939849850+939972490+940041884+940220066+940524874+940898672
2846+941313213+941734039+942089795+942345818+942562042+942859283+943358963
2836+944124869+945116729+946213592+947284779+948198326+948821659+949141535
2826+949333096+949571753+949835412+950002850+950035216+949953389+949779328
2816+949593849+949481750+949366070+949131400+948939839+949102074+949573713
2806+949923658+949890211+949638445+949393977+949177347+948997746+948982881
2796+949179307+949420397+949488372+949334312+949141603+949198699+949644256
2786+950292658+950779635+950896260+950740782+950567195+950528680+950553343
2776+950466042+950280833+950273806+950643954+951224178+951700276+951969610
2766+952117858+952212321+952304622+952491318+952786261+953027824+953066001
2757+953002620+953093096+953357565+953465069+953149247+952581456+952140292
2747+951965421+951932649+951912716+951837848+951630611+951286004+950987210
2737+950981128+951328506+951852376+952291784+952420910+952124278+951533310
2727+951041536+951021738+951532905+952343272+953140463+953695010+953975087
2717+954162121+954445915+954769710+954886066+954688424+954387535+954312937
2707+954609502+955150805+955664134+955907319+955841371+955676230+955670216
2697+955873939+956146855+956364835+956510719+956620858+956711132+956738024
2687+956618899+956342470+956021512+955800761+955764206+955914008+956184694
2677+956501259+956830325+957095470+957120471+956842555+956512341+956445514
2667+956616736+956719916+956579911+956293076+956008674+955820289+955863601
2657+956245980+956788432+957066279+956848569+956364430+956034215+956028269
2647+956179423+956280778+956326591+956363011+956258007+955867250+955330744
2638+954904580+954604096+954298612+954016846+953895760+953968060+954129079
2628+954194690+954047793+953838664+953839745+954030765+954148472+954143472
2618+954164418+954139350+953848664+953372836+953052824+953037351+953150531
2608+953184113+953180397+953413783+954060428+954890593+955428315+955416963
2598+954956339+954291923+953718659+953546491+953877787+954503485+955128845
2588+955583456+955816437+955865426+955812788+955690081+955499264+955301419
2578+955179320+955194455+955405950+955769341+956091717+956308685+956637886
2568+957222163+957803603+957987461+957692045+957203649+956886746+956909314
2558+957160134+957347776+957235677+956903909+956715726+956844988+956950059
2548+956601465+955883264+955266012+955054721+955273107+955876575+956726875
2538+957433185+957503998+956765661+955595821+954655382+954375034+954729574
2529+955401625+955972929+956064352+955580483+954847754+954306856+954081578
2519+954007183+954009683+954204082+954642138+955235943+955932320+956661062
2509+957121214+956987223+956366727+955746097+955446694+955336352+955073235
2499+954529769+953957519+953703524+953844002+954228813+954713763+955116074
2489+955173103+954875052+954622273+954720384+954931541+954833632+954489700
2479+954453888+955085803+956098137+956880597+957080266+956741943+956124083
2469+955594740+955514197+955961983+956616534+957020062+956981344+956730592
2459+956638224+956789040+956938842+956905057+956775931+956662278+956476258
2449+956084352+955525954+954999448+954719371+954813969+955239322+955798058
2439+956322266+956770390+957056212+957007899+956735322+956738092+957263381
2429+957813266+957708870+956939721+956112529+955746502+955863871+956109421
2419+956138611+955944145+955769611+955733259+955718190+955616498+955461222
2410+955384597+955580821+956151314+956886476+957416360+957599272+957527310
2400+957252367+956807284+956392134+956289292+956627412+957272368+957881444
2390+958181522+958262201+958383016+958516129+958436464+958215578+958212604
2380+958583834+959099055+959427175+959453595+959396025+959610155+960162337
2370+960746209+961116695+961308256+961378664+961280080+960997840+960641273
2360+960476875+960801481+961554211+962186058+962176869+961587253+960895606
2350+960372074+959899625+959343523+958882764+958858979+959235141+959588262
2340+959696712+959644075+959516368+959374065+959361767+959560220+959819149
2330+959939221+959930099+959893476+959859893+959976789+960538972+961501439
2320+962248087+962265250+961724960+961142710+960785670+960557081+960252407
2310+959832663+959484339+959421972+959647386+959950707+960147539+960252745
2300+960371263+960487213+960463766+960226461+959863880+959578397+959544950
2291+959766917+960122335+960540323+960952635+961156629+961052909+960909796
2281+961001353+961167305+961162981+961203590+961664891+962453365+963147849
2271+963676720+964427895+965654223+967086640+968198504+968649736+968398646
2261+967606523+966632502+965976735+965910043+966119375+965990046+965267993
2251+964261943+963577595+963869835+965389011+967377055+968428242+967950522
2241+966903795+966676084+967518817+968524597+969039885+969449089+970257362
2231+971102324+971356320+971152394+971052593+971089689+970762177+969850455
2221+968882245+968628857+969199959+969998501+970650889+971419295+972463927
2211+973258010+973131249+972207837+971459297+971616464+972240473+972425075
2201+972144592+972037831+972138780+971860460+971094419+970500681+970793124
2191+972094860+973753501+974803674+975051520+975422209+976594346+977705940
2181+977203827+974753469+971572274+969180499+968446351+969424764+971464837
2172+973527749+974719954+974705697+973695999+972196147+970875492+970459801
2162+971578423+974640357+979124504+982850044+983645275+981981094+980232923
2152+979610400+979288227+978431236+977390794+976651848+976111964+975659448
2142+975431399+975437480+975461535+975252744+974635357+973583832+972276826
2132+971149015+970777380+971390781+972487982+973200373+973074084+972428115
2122+971961139+971956342+971947220+971436458+970757582+970710418+971442945
2112+972124118+971798093+970505479+969482401+969865861+971253951+972221419
2102+972188242+971836472+971761470+971765591+971527610+971062323+970394326
2092+969515375+968745213+968549057+968894745+969204351+968933260+967951603
2082+966656962+965926868+966401074+967631456+968537638+968642101+968257087
2072+967827207+967753015+968327360+969271245+969833090+969670786+969127726
2062+968480136+967536791+966279583+965368267+965553611+966820143+968428107
2053+969585310+969941810+969823022+970070395+971131312+972418520+973101856
2043+973107261+973135438+974132366+976453327+979136059+980530501+979864261
2033+977337346+972984554+967249145+962513570+961845843+965651993+971007794
2023+974594815+975274501+973864518+972032087+971757348+974076012+977717427
2013+980059133+979544317+976855099+974015470+972419601+971740523+970817990
2003+969260434+967840518+967505776+968176476+968676224+968156137+967134209
1993+966483037+966064441+965305967+964517088+964525129+965453405+966354248
1983+965945990+963964433+961858073+961533670+963274408+965575910+967039070
1973+967484424+967564562+968010862+968659737+968305873+966425332+964237686
1963+962946761+962298359+961641241+961011421+960682963+960712559+960912837
1953+960672423+959534274+958306054+958309094+959337037+959876516+959446027
1943+959200545+959991858+961148386+961747258+961764286+961575698+961363866
1934+961197306+961105681+960959933+960718303+960709654+961240416+962114974
1924+962866082+963272989+963532593+964044098+964980145+965956464+966478104
1914+966597906+966673314+966892578+967294485+967885520+968559057+969166917
1904+969669840+970040935+970182832+970076950+969872348+969775250+969913430
1894+970299390+970938332+971885393+973013271+973878978+974202030+974191287
1884+974152231+974126284+974028511+973895127+973841747+973911614+974087837
1874+974351360+974674547+975102536+975818237+976758338+977235045+976701039
1864+975464981+974235613+973502140+973321120+973445990+973589103+973637010
1854+973644916+973620658+973467071+973188548+972982392+973057935+973460450
1844+973959859+974078580+973613766+972920295+972543187+972792182+973476937
1834+974114797+974404065+974291290+973794245+973053746+972348518+971820188
1824+971353009+970785286+970210536+969958432+970270673+971063809+972058845
1815+973066652+973974252+974587923+974723603+974428998+973942832+973558359
1805+973614036+974354671+975640123+976904898+977650195+977905677+978035546
1795+978382518+979134099+980160893+981003221+981408235+981540470+981642298
1785+981798182+981934268+981974066+981896091+981691962+981463778+981457899
1775+981861292+982514491+982802204+982336039+981623310+981256743+981208701
1765+981212552+981307218+981651960+982021433+982082854+981940957+981789398
1755+981545200+981152483+980844499+980874297+981019775+980694493+979751554
1745+978552119+977447485+976477112+975425520+974130339+972705085+971278750
1735+969564229+966926634+963401575+959709077+955965835+951997854+947694727
1725+942805024+937238675+931511037+926124560+920777881+914675027+907722074
1715+901123729+895652857+891162560+887516956+884646853+882418868+880880231
1706+880288859+880635763+881843374+884341166+888086369+891678322+894853977
1696+898488094+902073087+904839944+907240368+909859989+912553531+915033621
1686+917705135+921157692+924526529+926520182+927366902+927717793+927979288
1676+928332477+928716747+928801886+928285043+927230613+926030367+924849311
1666+923464734+921642912+919269921+916465564+913413698+910138445+906772851
1656+903291172+898227476+889252019+879653430+872880417+865931991+855040654
1646+840072549+825565947+813338007+802140983+791551819+781906405+772732021
1636+762661389+752018372+742527017+733394729+722595558+709108249+693922906
1626+679106833+665250862+651602061+638520510+626537647+612536468+589241577
1616+552566408+511810484+477563206+452183612+437448454+434839745+440529105
1606+446719260+447483511+440914288+427942268+410902568+392497886+375151790
1596+360936246+352017040+350675336+358472812+375657822+400806259+430477258
1587+460279072+486885974+508779159+525670340+538146903+547882422+557782947
1577+570711519+584761146+594521969+599366535+601221197+600573200+597255851
1567+591925863+585196905+577705622+570285423+562132360+549577753+532562513
1557+519111929+508852912+498445375+487998581+478284651+469674409+462957276
1547+458715637+456958885+457807564+461782808+471328016+488459172+505792565
1537+518327171+530560989+547871814+569915274+590259587+606454222+621588618
1527+637995964+654358038+668814098+682624054+696945582+709133587+717300570
1517+722411700+724196764+720808534+711563742+697785612+681829296+665558711
1507+651604020+644993310+643814957+642265509+638308948+632091360+625179557
1497+620321477+618908319+618957037+617770034+613406905+603960552+589715986
1487+575586694+566936857+567119363+578874448+602636045+633665876+664950311
1477+692732322+716501149+736587750+753220847+765285132+771730634+774078488
1468+774120517+771988819+766921948+759365933+750890426+741727191+729073358
1458+707091014+676007262+645812258+619493948+595969454+578063810+571758989
1448+581236965+603533982+630583873+656264661+677411772+692366228+701575410
1438+706824315+709214401+709116695+707129056+703361623+697048559+687493350
1428+674774447+658544067+637738725+613224736+587963085+562066479+532138850
1418+499156820+469528424+444517830+421140976+397850748+374840563+352965689
1408+332986052+314810264+298489238+285542253+277198963+273120776+272792825
1398+275782476+281340514+288988356+297873169+306309452+313609748+320529321
1388+327994488+336231540+344654140+352750715+360765766+369075153+377392208
1378+385112384+392236154+399527801+407818099+417179922+427303157+438433287
1368+450666970+462900247+473847701+483188510+490733679+496136340+500264495
1358+505136359+512546761+523282383+536689114+551159871+565620796+580032935
1349+594506834+608707141+622003768+633774055+643846377+652722371+661020034
1339+668683756+675110473+680005446+683621522+686337904+688290541+689370175
1329+689556195+689184898+688807114+688757315+688902320+688872116+688457709
1319+687723359+686878531+686136477+685577944+685072047+684327629+682972647
1309+680613711+676969189+671992185+665812842+658672518+651099273+644093413
1299+638917889+636540506+637207692+640452133+645364607+650892373+656144116
1289+660581573+663980343+666372456+668037043+669330333+670525714+671915291
1279+673871374+676614919+679989770+683506113+686560479+688682920+689685254
1269+689649374+688782721+687176177+684693250+681396510+678285587+677316904
1259+680172817+686781433+695144504+702647814+707576234+709669958+709656782
1249+708552688+707256155+706380786+706240983+706908710+708194229+709554075
1239+710010038+708176458+702587812+692252305+676976486+657296049+634318264
1230+609617782+585055143+562461831+543290703+528391012+518103413+512577201
1220+511889744+515861981+524032646+535954899+551227272+568903684+587060755
1210+603506211+617226028+629073278+640972625+654365268+669203234+684228841
1200+698065757+710014700+720088305+728665370+736149423+742752228+748517232
1190+753507749+757894461+761899605+765711837+769383455+772815943+775916392
1180+778701155+781207799+783412608+785234700+786485015+786815838+785772219
1170+782784545+777079475+767819210+754610289+738052870+719948841+703069180
1160+690536162+684832039+686605751+693906351+702590650+707926247+706505182
1150+697513170+682965755+666896056+653790383+646986490+647765842+655330033
1140+667446684+681428673+695017742+706846478+716519866+724489139+731698655
1130+739009323+746723452+754572247+762096098+768974048+775005887+779958632
1120+783625183+785981686+787107673+786998953+785654580+783332470+780546221
1111+777822812+775489553+773429546+770697556+765377703+755145105+738329299
1101+714833319+686531086+657215033+632108320+616669725+614566879+625686332
1091+645876652+669132218+690670424+708607014+723414979+736233007+747617808
1081+757463027+765584602+772076254+777142923+780820690+782969078+783467001
1071+782324528+779610106+775332385+769446633+761995352+753263281+743799765
1061+734268072+725237747+717070494+709909291+703696230+698219141+693163824
1051+688101616+682537970+676163078+669046269+661440522+653428883+644833777
1041+635323165+624444936+611705154+596965909+580996619+565616742+553072237
1031+544918295+541192114+540566213+541357661+542454930+543432701+544134652
1021+544466015+544551829+544829745+545845018+547974317+551355216+556025316
1011+562068303+569589587+578577883+588841090+600045681+611766711+623568283
1001+635174106+646523365+657528017+667846023+677073584+685110562+692176830
992+698526450+704291049+709553940+714433102+719038065+723355855+727199642
982+730329349+732642202+734186379+734954312+734705317+733061542+729786289
972+724927871+718693728+711294881+703028773+694451506+686299726+679185147
962+673442846+669250938+666730713+665847505+666330495+667842982+670235838
952+673552647+677786921+682755207+688235134+694089196+700176036+706270376
942+712184035+717889780+723463224+728976327+734452673+739814420+744823316
932+749130497+752495213+755076252+757532083+760702197+765058435+770425249
922+776170050+781583420+786160274+789748646+792550436+794864303+796752546
912+798100230+799019655+799889213+800895060+801904015+802901484+804132068
902+805710571+807524217+809575710+811991540+814621702+816965367+818536978
892+819055240+818225007+815541803+810533582+803365689+795208167+787735533
882+781923770+777130828+771247644+761758789+747012313+726958822+702700654
873+674947562+642919519+605282221+562648290+519427041+483128575+460845511
863+454836478+460847302+471290075+480612640+487807865+494715748+503346531
853+514935326+530146683+548932494+569997102+590720819+608056577+620247421
843+628368253+636066840+647024464+662316500+680298295+698584222+715490843
833+730012378+741605295+750422774+757238221+762754298+767051277+769624680
823+769584813+765705755+756650970+741568199+720664745+695465461+668786394
813+644206255+624852789+612281864+606476858+606694434+612023950+621289958
803+632858955+644853710+655706735+664638002+671780624+677935237+684030050
793+690595894+697617363+704650926+710924125+715603685+718334796+719347468
783+718757649+715930048+709674283+698832271+682671285+661157066+635106738
773+605971300+575360740+544578824+514347467+484949114+456638873+429819937
764+405044317+383248500+366141500+356325539+356854680+370167760+396749221
754+434313646+478300699+523515128+565589612+601469381+629461468+649245692
744+661308085+665701554+661494443+648168965+628010673+607004850+592933804
734+591716869+604415568+626668192+650785613+669632911+680148424+684089917
724+685625378+687999315+691899252+696056361+698829366+699347763+697724867
714+694720164+691154090+687368481+683266780+678727630+673651637+667781088
704+660841785+652741899+643511094+633449584+623577608+615747800+612175712
694+614681748+623871470+638543146+655857214+672391592+685295704+692965844
684+695501814+694915104+694417248+696596650+701807649+708470793+714945756
674+720517848+724702525+726638676+724543263+714790547+695499854+670345842
664+640611396+604292185+563430616+527172725+506430831+505457181+518235918
654+533762151+546147799+558017719+574309284+594934552+613920031+624939346
645+626981446+624548183+623008466+624252970+626777047+629374505+633829801
635+643231017+657976817+674818098+689945736+701665549+710094027+715868086
625+719784916+722648465+724878883+726709286+728505838+730268874+731338169
615+731425402+731435605+732445979+734269761+735797721+736597817+737231083
605+737948947+738228214+737858606+737405752+737242368+736959857+735998674
595+734224759+731817308+729027072+726012167+722690899+718810489+714224514
585+709005610+703278782+697219308+691334232+686214521+681726859+677112437
575+672195706+667838928+664994839+664039129+665006732+667799737+672167867
565+677805975+684336480+691005233+696567122+699616894+698801459+692501706
555+678768983+656478317+627016177+594926916+566889625+549033747+543829675
545+549455722+562371828+579852388+599914460+620368236+639310741+655854173
535+669436688+679120955+684166474+684803592+682132077+677327377+671325405
526+665580806+662087505+661788373+664133389+668286512+673600689+679143659
516+684015185+688235674+692653063+698237858+705326221+712970685+719512339
506+724420420+728623612+732483413+734861606+735088439+734519432+735184388
496+737903810+741936928+745962073+749111916+751388619+753575792+756432922
486+759602428+761748518+762201373+761755275+761501820+761928457+763068836
476+764531929+765398312+764457332+760828283+754707387+747408071+740764116
466+736202195+733671699+731848052+729530537+726314543+722222706+717740789
456+713989100+711629218+710297886+709480086+709083315+709185143+709709284
446+710472622+711540971+713477933+716752848+720858536+724618536+727130315
436+728006157+727265252+725229436+722181894+717901470+711584081+702720789
426+692341768+683006230+676690395+672604640+668240969+662755772+659086249
416+659210577+660603736+660304333+658091348+656908468+659413693+664538809
407+669154110+672113203+674783299+678396943+683200966+689815461+698891395
397+707418458+710101730+706210374+700101709+697535738+700945185+706609713
387+707487853+700273877+690011279+683414961+680755879+680295389+682619527
377+688171415+693600529+695510395
##END=
