##TITLE=X9331
##JCAMP-DX=5.0
##DATA TYPE=LINK
##BLOCKS=1


$$ === CHEMSPECTRA SPECTRUM ORIG ===
##TITLE=X9331
##JCAMP-DX=5.00
##DATA TYPE=INFRARED SPECTRUM
##DATA CLASS=XYDATA
##ORIGIN=ComPlat
##OWNER=
##XUNITS=1/CM
##YUNITS=TRANSMITTANCE
##XFACTOR=1
##YFACTOR=8.2484086e-010
##FIRSTX=3997.453
##LASTX=373.96442
##MAXX=3997.453
##MAXY=0.8856661287012878
##MINX=373.96442
##MINY=0.44193896449057274
##NPOINTS=2559
##XYDATA= (X++(Y..Y))
2559A072527388A072043449A071580539A071398005A071523813A071834106A072297595
2552A072919192A073510585A073741823A073451041A072802778A072095984A071434498
2545A070693812A069812216A068975350A068510922A068708414A069629465A070927580
2538A071951749A072186673A071639722A070883572A070603918A070859726A071089663
2531A071015306A070890003A070682033A069731644A067571227A064871374A063325329
2524A063933414A065436680A065930085A065584456A066135092A067942726A069488410
2517A069662417A068531300A066489537A064060089A062310987A062319153A063714604
2510A064825271A064637607A063874809A063845037A064323267A063846410A062100127
2503A060886774A062363883A066204102A069878841A071674552A071622523A069973936
2496A066254902A060262215A053308805A047982229A046180304A047869428A052175592
2489A057652472A061901984A062997979A061000372A058295894A058080553A060209896
2482A061292960A059841651A057499712A055938708A054671666A054044504A056313242
2475A060718983A063011712A061081016A056228117A050970335A047499519A047728951
2468A051114497A053598287A052813449A050850886A051388370A054736124A057760216
2461A057829443A054205215A047517295A040496320A039362024A045904046A053634201
2454A058931800A061480769A061239920A058191909A052850806A046413132A040762100
2447A038493651A041075789A046226335A050666473A053798958A056307678A057904740
2440A057853579A056564714A054945539A052506769A048166569A043448150A042263991
2433A044525143A047049833A050266792A055645612A061009115A063505695A062634360
2426A059547761A056564569A055302441A053837112A049909818A045805120A046088167
2419A050068433A054099640A057887253A061962974A065087365A066414746A066679297
2412A066549731A065789246A064442427A063368758A062692603A061322299A059269623
2405A058807654A061500786A065330672A067240266A066090579A062680680A059055801
2398A057246650A057393413A058425024A059890211A061005719A060181065A057197873
2391A054429010A054247777A055120124A053226210A046582803A036996094A030873696
2384A032639490A036660653A037628820A037738152A041584872A047712114A050959857
2377A049843264A044939566A037687641A032187853A033656867A041597810A050070239
2370A054616819A054629102A052125945A050092207A050275969A052237593A054992943
2363A057948170A060243210A060600185A057979459A052327993A045655032A042737887
2356A046881534A054813155A061387551A064158221A063186152A060649106A059837965
2349A061844175A064522710A065857461A065332623A062569250A056809537A048670886
2342A042509178A044038531A051707479A058666815A061901479A061839261A059310884
2335A054687275A048013880A040130024A034940674A036325069A040045405A040937841
2328A041201597A045917198A053981203A060488973A063910507A065281317A065525054
2321A064452255A061731013A058474598A056612334A055433380A051487080A042936752
2314A032435712A028065740A034542221A044815998A052174725A055943837A057777198
2307A059078347A059987114A059822935A058350308A056102960A053325353A049258159
2300A043852456A040946368A045417651A053563601A058728599A058991271A054936940
2293A048613001A043961355A043519328A044815419A044963123A044568139A045124267
2286A046085785A046645960A048218959A052071174A056198923A057730950A056380157
2279A054357035A053543077A053492495A053245865A053442634A054939252A056336366
2272A055029291A050378290A045480736A045106708A049180477A053344213A055406860
2265A055962627A056159613A056517382A056997126A057484248A057802345A057165789
2258A054140324A047894720A040274476A036456802A039518037A045732063A050637204
2251A053486569A055439378A057019603A057549934A056462174A054455025A053080385
2244A052945616A052779197A051218408A048939773A048267592A050398453A053883432
2237A056420117A056863662A055749165A054671594A054738147A055420806A055380773
2230A054066328A052118867A050576435A049856994A049671353A049912997A050901397
2223A052572022A054265482A055493502A056238884A056518683A056113076A054825295
2216A053001185A051683199A051621993A052077533A051665206A050319471A049455145
2209A050133685A051817751A053274986A053870281A053951070A054367732A055354470
2202A056064155A055630005A054339911A053310612A053152647A053435914A053542573
2195A053623361A054316715A055597342A056608143A056779549A056414626A056033443
2188A055741722A055479628A055319206A055275993A055198239A054975164A054667041
2181A054420194A054372502A054644568A055278595A056075644A056610600A056561173
2174A055853005A054512473A052829274A051583333A051416263A052038873A052777174
2167A053466264A054183898A054781649A055144549A055361841A055479411A055541121
2160A055784862A056376543A057081965A057531146A057635781A057481791A056975884
2153A056018052A055013971A054661911A055058629A055559116A055594307A055199540
2146A054824500A054905217A055528043A056405087A057164344A057557304A057457511
2139A056979714A056492235A056235633A056111848A055964072A055768386A055536639
2132A055314003A055224976A055287338A055280474A055011225A054702378A054851743
2125A055561284A056338606A056791110A057059636A057307350A057349045A057078858
2118A056722028A056441941A056127312A055696269A055325708A055301140A055728931
2111A056394464A056904056A057017001A056896252A057006596A057606948A058326822
2104A058512027A058039147A057426366A057108413A056999659A056873561A056769071
2097A056763073A056613707A056032865A055233431A054833678A055143609A055821571
2090A056302981A056334993A056003816A055497259A055023147A054799064A054882744
2083A055076984A055199251A055350929A055693306A056074994A056153832A055809070
2076A055192817A054434430A053551894A052631058A051872164A051442856A051439749
2069A051863132A052399243A052494990A051974054A051302812A050980451A051055893
2062A051471037A052375830A053743750A055032181A055606158A055405776A054932749
2055A054613206A054441801A054274368A054118645A054003387A053861754A053657108
2048A053496831A053596046A054072614A054675641A054929208A054735907A054515291
2041A054589504A054831221A055008841A055039986A054864028A054452855A053990452
2034A053809581A054085983A054613712A054915912A054687850A054138084A053761671
2027A053814856A054193509A054708375A055162542A055226566A054653528A053691360
2020A052968812A052877907A053283297A053817096A054223208A054388761A054285280
2013A054006783A053751554A053626975A053488954A053134148A052684172A052521800
2006A052763949A053099100A053309817A053591205A054108887A054608582A054748553
1999A054506909A054053971A053516197A053017083A052715895A052691615A052866345
1992A053044977A053044832A052852615A052609959A052434218A052364630A052414274
1985A052522450A052568409A052536686A052523245A052625351A052976328A053669681
1978A054482990A054978996A054969097A054596152A054037784A053465614A053142169
1971A053219923A053528265A053760153A053811098A053816301A053878302A053875122
1964A053657252A053365531A053328460A053606161A053862187A053792960A053514318
1957A053358521A053375575A053269422A052858252A052358849A052100585A052123419
1950A052180434A052040463A051685728A051284169A051100695A051400727A052193730
1943A052977845A053005521A052024493A050571448A049373056A048701814A048498396
1936A048724793A049203890A049431516A049078948A048502154A048284573A048460819
1929A048626517A048618568A048629913A048717638A048559169A047806199A046489152
1922A044904952A043222187A041417010A039483496A037454162A035377136A033493266
1915A032193345A031631725A031650874A032110171A032947760A033931246A034645700
1908A034741807A034086320A032727650A030706482A027869548A024048406A019556529
1901A015289386A012118168A010304826A009648326A009960859A011159107A013072026
1894A015394527A017785532A019975935A021900202A023668453A025279245A026482841
1887A027022132A026865179A026224143A025456359A024730921A023630442A021422984
1880A017925142A013821239A010084065A007396281A006082847A006227154A007763152
1873A010546614A014302287A018480186A022363257A025473196A027766720A029359082
1866A030287796A030706482A031057675A031778200A032923335A034161978A035045453
1859A035324746A035149511A034876433A034665428A034479714A034348848A034203312
1852A033636634A032380648A030858521A029693586A028814663A027506215A025222592
1845A022034176A018361388A014473837A010273898A005501138A000000771I93686952
1838I86402726I78002703I68465565I57861046I46337715I34091619I21159252I07341241
1830H92570528H77350057H62688026H49566983H38547390H29893655H23972796H21339641
1822H22347913H26686523H33263087H40476204H46685391H50655899H51781885H50004818
1814H45582601H38941724H30571039H20871817H10226323G99369250G89457358G81535496
1806G76117436G73390991G73479223G76285445G81310038G87823373G95166420H02888770
1798H10756439H18709088H26748452H34801473H42697541H50309330H57694795H65064723
1790H72598542H80255422H87705345H94513147I00464356I05646553I10223483I14329265
1782I18213853I22230536I26539085I30947933I35122870I38820083I41874597I44142467
1774I45545362I45994759I45190844I42666805I38035534I31015282I21465498I09935374
1766H98162234H88500371H82563471H80362515H80539484H81213255H80756126H78316272
1758H74140613H69497491H66013668H64782612H65963373H69180116H74175443H80935408
1750H89281740H98706366I08709450I19006856I29305201I39142368I48054804I55742613
1742I62121324I67385538I71915570I75978356I79599621I82727698I85375378I87631252
1734I89646206I91541204I93265954I94684601I95834867I96930215I98077229I99161882
1726A000037191A000692463A001255237A001912532A002776066A003778845A004765221
1719A005643710A006354624A006830686A007161574A007643489A008449644A009381462
1712A010137395A010694824A011238162A011822906A012302870A012553330A012625375
1705A012682751A012885518A013343298A014071410A014921283A015641374A016103851
1698A016445289A016895120A017500458A018082818A018433650A018532936A018582148
1691A018795032A019150561A019438379A019529647A019474150A019385123A019365468
1684A019463022A019574811A019508547A019227520A018894681A018651158A018521809
1677A018534094A018729346A019035231A019281427A019375079A019359254A019298626
1670A019205191A019076781A018929728A018786649A018653976A018505984A018303578
1663A018086069A017989816A018099004A018339202A018589952A018829934A019107204
1656A019453339A019856850A020245113A020489719A020526498A020473389A020527441
1649A020736639A020956533A021039923A020990351A020912019A020879283A020872636
1642A020818294A020698919A020638580A020801892A021161973A021465185A021495318
1635A021300933A021086604A020955160A020843804A020675506A020483650A020383061
1628A020452648A020644722A020811358A020840913A020758535A020656067A020571232
1621A020479459A020376919A020324023A020407992A020641615A020909490A021099395
1614A021290817A021648008A022115037A022428004A022478009A022448165A022521222
1607A022640454A022639659A022485018A022329438A022359571A022617619A022984276
1600A023315814A023538454A023660936A023774461A023988935A024279284A024469766
1593A024466803A024421929A024553735A024856585A025096856A025066795A024764740
1586A024418027A024407115A024974155A025846429A026385143A026280290A025846935
1579A025522912A025378894A025219773A024940192A024714084A024876963A025565547
1572A026497655A027192454A027327728A026894156A026182881A025593874A025301863
1565A025213487A025277655A025574218A026032287A026347639A026282458A025895423
1558A025449998A025191302A025225193A025518143A025921293A026241703A026377772
1551A026375098A026339473A026400462A026722606A027373470A028179408A028849638
1544A029242093A029411908A029425349A029244116A028903329A028709161A028974651
1537A029512425A029693513A029150320A028185117A027412058A027219118A027615692
1530A028350452A029039904A029304888A028966630A028214163A027552246A027434170
1523A027862467A028428495A028756492A028750783A028455232A027992249A027630650
1516A027594447A027804802A028013783A028069714A027943617A027761950A027815135
1509A028189163A028494326A028343587A027967969A027972591A028546788A029196640
1502A029361036A029134567A029065773A029307923A029513581A029584615A029802990
1495A030095290A029965724A029319702A028660095A028347054A028265833A028298568
1488A028585376A029138325A029589167A029557011A029067869A028406889A027774018
1481A027328884A027349407A027983578A028898559A029435755A029186234A028374082
1474A027647632A027477310A027800466A028246684A028510946A028454726A028100281
1467A027655653A027358367A027231692A027117662A026917280A026667253A026442663
1460A026295899A026283398A026443313A026679899A026753173A026538263A026212364
1453A026008513A025904095A025744540A025541917A025440606A025505281A025734207
1446A026163732A026735324A027132187A027034633A026522729A025931988A025359022
1439A024697319A024085910A023888852A024207889A024753250A025219192A025564680
1432A025896507A026214821A026364837A026242859A025967971A025761522A025688609
1425A025609338A025389661A025089702A024886428A024853116A024906734A024986150
1418A025220207A025879525A027099308A028665876A030276379A032060527A034462010
1411A037463556A040427527A042875040A044918754A046821629A048578390A049939590
1404A050584889A050379521A049492721A048082240A046021761A043144505A039665596
1397A036251651A033648557A032382960A032765371A034716950A037399027A039650132
1390A041008513A041548021A041257239A040366465A039573318A039322352A039283258
1383A038856334A037847774A036482528A035061134A033780507A032674682A031711430
1376A031016631A030764797A030789005A030693619A030248486A029279380A027583027
1369A025488877A023982934A023678136A024148995A024643701A024879058A024896546
1362A024704690A024302046A023736596A023106688A022657797A022669503A023051914
1355A023293269A023008556A022355091A021768830A021472700A021387720A021414096
1348A021644900A022242218A023099534A023734139A023714195A023232858A023045266
1341A023660936A024717119A025410978A025499644A025503546A025897157A026553585
1334A027057613A027098224A026587910A025850043A025495019A025694607A025897157
1327A025657031A025304464A025361046A025658910A025515903A024751082A024079190
1320A024236577A025094038A026088074A027100464A028183238A028834463A028505812
1313A027598566A026935924A026416649A025360684A024127967A023983226A025141007
1306A026420406A027123010A027633179A027906185A027263632A026045439A025628054
1299A026463764A027599939A028251234A028491724A028366061A027577321A026312303
1292A025501957A025858136A027041281A028137640A028752951A029220270A029797282
1285A030122316A029639750A028329352A026872333A026129769A026341858A026932021
1278A027427088A028233171A029768016A031438352A032554944A033421871A034420243
1271A035137515A035374462A035527296A035320266A034014851A032327752A032052506
1264A033244323A033674427A031798288A029195556A028862428A031390225A034643171
1257A036618886A036871948A035724355A033730646A031786799A030434849A029324977
1250A028211564A027535626A027321727A026685969A025143320A023535708A023098523
1243A024089812A025695763A026927758A027167162A026228840A024584880A023346670
1236A023279897A023938424A024391145A024486386A024695368A025048729A025026689
1229A024421423A023673584A023195498A022787507A022056577A021167249A020708529
1222A020887450A021307654A021547344A021567002A021542722A021642299A021971669
1215A022497303A023102063A023808858A024634451A025162542A024843505A023824322
1208A022819375A022199367A021940958A022218299A023160018A024230940A024648831
1201A024333841A023983588A024248428A024979575A025294709A024467165A022862587
1194A021837406A022356970A023782266A024570788A024246115A023957212A024749926
1187A026058374A026464631A025453613A024033304A023870208A025728787A028615003
1180A030622730A030713347A029735640A029441319A030377256A031485755A031875464
1173A031874669A031986748A031993757A031669662A031560330A032410348A033786505
1166A033838245A031293900A027401580A024787213A024655841A025828581A026342725
1159A025714624A025277511A026359417A028757865A031127480A032255635A031856243
1152A030760967A030175862A030414904A030922040A031462415A032263222A033071689
1145A033283560A033015397A032986203A033228931A033053407A032560508A032787264
1138A033853347A034233590A032752942A030209609A028188657A027374987A027714836
1131A029044312A030610012A030863869A028731056A025075033A022383924A022327848
1124A023928813A025138695A025280690A025052848A025090714A025294854A025215510
1117A024535236A023167533A021191818A019043758A017681691A017782930A018574488
1110A018395062A016769456A015044634A014429902A014555927A014682168A014914418
1103A015743769A017083145A018316585A019228965A020145825A020780141A019883297
1096A016959287A013605970A011907232A011856580A012097212A012433014A013737992
1089A015802301A017141605A016806237A015391347A014410897A014788610A016195045
1082A017743981A018677173A018513066A017280493A015595126A014168963A013477200
1075A013755625A014570234A014801112A014028559A013418523A014208419A015879116
1068A017113134A017362149A016799878A015905564A015327974A015498078A016214050
1061A016733325A016152844A013848048A009976684A006051196A004746650A007295692
1054A011717837A015433910A017457535A018089104A018077543A018107748A018453305
1047A018895187A019107418A018852408A017808076A015828894A013295822A010732400
1040A008679798A008293196A010268623A013112349A014967170A015524888A015614203
1033A015947042A015990255A014423759A011135766A008310756A008031897A009218150
1026A009991787A010572195A011841188A013289391A013892415A013673174A013452992
1019A013404432A012672562A010721055A008371312A007177759A007779125A009246982
1012A010015561A008980191A006221373A003229582A001881173A002435639A003326485
1005A003043146A001145618I98582991I98013061A001054207A005350905A007964838
998A008355559A007526930A006245725A004734727A003535250A003072123A002573009
991A000671869I96830349I92282179I90000723I91680309I95709348I99976130
984A002958672A003425845A001437195I98823190I97507371I97311903I97293620
977I97422390I97245494I95116583I89970518I83396772I79317726I79363180
970I81275160I82775391I83224210I82998970I82882267I83241264I83148046
963I81203331I77581633I75608447I78397976I83710172I88939122I93377960
956I96168284I96789954I96040453I94621083I91579865I85659945I78260968
949I74939662I79119946I86779645I93345803I97101476I97838548I95851199
942I92165331I88900173I86989566I84540679I79699776I73670958I69409162
935I67615475I67551307I67222659I63462506I54044890I38820010I20272236
928H99565056H71889290H34010782G98319572G73591157G52778474G30438318
921G04825054F75307258F45273440F19772327E97783147E76078173E57582969
914E46586175E40614733E36591185E35786945E40984245E51409194E63665948
907E74956125E84910395E99916104F31650753F68117551F90346930G04995303
900G23887551G50872781G76976775G96082052H09935543H20088353H26516563
893H30785946H38262316H51826760H65002144H73166521H77319200H79522614
886H80955714H80947476H77564025H69576834H57541961H42247638H23280454
879H02494436G89315439G92140449H06128781H23780146H41482022H57064598
872H68902630H76571073H81206607H85109983H90494441H98038376I06609661
865I14585072I21302619I27096947I32286804I36780632I40366995I42639346
858I43080072I41877921I40337512I39922150I40587754I40336356I37079146
851I31137910I26956181I29566429I35899181I40217413I41941006I44117898
844I48504129I52992900I55636604I55957087I52936463I44796222I33130824
837I29785238I38208818I47327921I53528506I57100416I58804570I59906710
830I60453517I58592771I52958792I44533477I35911537I30924521I35326143
823I46341689I54262326I56693725I56661280I58156453I61034214I61695050
816I58692998I53577571I48513306I43666695I38816035I36101586I36529377
809I37398762I37650811I38363676I38060537I32940991I20706313I00712793
802H70047766H25234852G80466307G50697256G27127923G01264055F71759267
795F40576772F12184312E94180995E90982499F01677707F27413959F71508229
788G28095078G80577229H19823007H47111520H66112739H79936747H90038974
781H96274967H98277997H96132250H90329250H82123684H73345803H64216512
774H53389136H40921919H30028351H25342522H26176134H26138344H20335706
767H05836048G82227187G60372704G52249155G54843504G61523259G66665784
760G65170828G54871470G38107989G18767355F99496310F82721050F70891906
753F65590981F69246790F84761584G08308227G32137197G54442306G76904803
746G99060545H17835296H31603590H41482311H48775567H52913435H52367352
739H47381491H41544817H37751569H34777988H31193937H27740609H26026193
732H26489537H28208216H30592426H34120548H38573910H41754233H41311628
725H36516828H28125043H16876741H02894551G87294271G71912438G56952110
718G41710030G27331558G17317057G13609078G14014973G15472787G16831095
711G18503380G21049389G24583290G29220486G34816383G39907890G42594519
704G42532518G40837469G38480788G35370994G31299030G27117734G23877362
697G21047943G17266329G12116000G06436135G01557800F98378056F97221141
690F98258607G01494571G06569531G12891877G19701992G26371413G33364206
683G42514236G55092664G69723189G83826128G96146220H06879077H16563846
676H25300466H32686509H38212745H41545468H42502433H41005960H37198981
669H31678960H25546807H19860583H14958835H10678252H06981762H03922044
662H01381529G99386520G98437576G99170168H01804045H06026097H11207354
655H16666603H21887098H26561508H30484324H33523592H35735819H37421476
648H38995197H40742854H42626652H44251607H45025172H44444041H42384574
641H39213140H35561163H31896396H28294136H24615133H20857582H17326644
634H14483424H12622966H11712970H11563678H12071318H13204242H14821682
627H16589427H18001860H18510801H17881905H16513913H15226710H14637920
620H14777169H15198673H15323975H14782516H13617219H12213674H11019689
613H10279510H09946816H09843336H09933447H10358059H11164647H12186865
606H13270506H14428938H15648359H16650633H16914389H15881838H13284308
599H09644182H06642202H06637578H11244424H20131421H31240257H42097622
592H50888004H56617513H58831476H57546513H53339637H47136956H39742892
585H31641817H23250610H15228083H08500275H04035640H02567638H04383365
578H09209237H16196394H24027354H31205788H36525283H39491276H40362467
571H39760958H38147058H35534426H31664363H26509190H20603653H14821971
564H09875565H06086363H03489050H01891410H00790932G99361951G96760808
557G92750268G88167629G84682433G84075577G87729649G96368643H09638980
550H25810563H42307470H56887412H68370059H76375532H80671290H80850572
543H76391502H66898516H52533988H34517122H15296082G98130029G86168789
536G81347686G83619242G91064396H00963638H11176643H20834816H29876382
529H38061789H44631994H48955718H51327140H53019372H55563355H59870025
522H65821668H72507998H78814663H84010662H88016794H91084894H93189019
515H93961427H93269446H91596364H89849864H89031280H89957968H92885735
508H97253756I01935683I05870131I08471563I09466033I08575042I05578915
501I00500126H93483920H84838495H75619743H67921529H63992138H64772134
494H69251872H75226783H80705687H84772881H87492823H89403863H91127023
487H93111843H95493598H98178131I01085231I04281018I07811956I11421225
480I14600970I17027455I18782555I20054799I20829809I20992977I20573929
473I19788294I18906267I18023659I16728002I13844820I07869187H98520292
466H88286693H81640324H81698421H87664806H95948198I03391979I08974362
459I13092862I16273763I18620760I19924294I20031820I19019213I16805466
452I12672080I05514024H94804146H81546311H68611920H59965264H58684495
445H64959654H75866374H87275964H96267813I02082230I05325493I06831144
438I07308000I07445370I07786303I08500251I09435972I10382315I11269692
431I12153673I13026381I13773642I14382233I14979406I15575856I16020412
424I16284674I16588608I17267510I18638247I20822292I23593397I26559173
417I29501971I32392523I35193759I37815569I40125712I41921134I43030428
410I43427291I43143951I42227597I40855558I39258063I37452524I35263709
403I32602299I29558624I26269114I22784207I19020802I14917188I10726354
396I06981810I04037856I01804599I00013369H98587712H97722808H97715293
389H98747628I00788451I03654145I07148157I11130226I15407630I19592973
382I23260052I26265067I28687867I30567185I32055421I33588459I35405993
375I37148518I38367650I39133483I39824886I40654381I41603253I42576478
368I43563071I44754743I46353034I48182202I49760187I50852644I51696303
361I52574503I53453642I54204011I54903434I55704675I56612792I57536300
354I58328797I58752108I58718073I58553605I58729562I59364023I60158905
347I60699786I60741553I60360443I59867686I59458831I58943097I57857143
340I55825857I52861021I49417376I46148820I43492399I41410097I39563803
333I37797937I36454441I36151014I37186456I39150031I41238908I43064824
326I44997182I47572311I50803289I54250692I57494605I60371644I62986516
319I65585780I68224138I70588045I72304195I73283923I73681436I73725444
312I73631142I73458363I73065547I72334111I71320924I70101794I68622374
305I66804190I64648470I62207457I59642015I57336496I55711396I54828788
298I54339719I53813218I53000343I51913522I50809214I49952982I49247994
291I48188270I46183650I42756121I37327294I28862091I16006466H98214985
284H77137318H56381433H39260038H27040535H19900038H18964679H25865627
277H39790224H56072368H68620013H73456292H69645339H57758963H38617701
270H13332507G83559482G51265088G18477221F87427690F60682515F40925363
263F30604255F31480938F43987682F66568977F95335609G24566380G48374178
256G62857866G67417959G64147815G55867168G44961172G33823937G25175766
249G21003069G21458320G25213270G30543965G35982836G40656163G44572110
242G48518557G53417270G59567488G66434546G73068341G78635547G82835344
235G86021809G88599033G90080621G88959187G83587155G73526554G61141427
228G52242651G53669392G68644823G94339670H24014058H51290865H72854494
221H88497915H99806122I08715230I16484912I23377333I29009216I32970113
214I35298105I36652223I38186417I40982017I45151462I48769403I49230507
207I47939329I47575707I48308516I49200298I49722611I49987885I50230107
200I50543796I50901204I51200802I51368158I51332897I51033007I50643807
193I50549577I50910598I51574830I52418489I53363026I54118308I54365661
186I54127991I53594264I52775319I51739515I50890581I50456720I49985934
179I48915950I47362173I45881741I44868914I44527046I44767823I44778012
172I43374395I40205056I36185338I32766551I31059578I31213424I32303857
165I33163558I33381211I33220139I32949591I32836717I33413728I35044466
158I37410396I39868676I42041595I43932113I45844960I48213925I51130130
151I53998136I55773397I55593826I53320246I49612484I45256964I40286712
144I34332685I27968644I22890721I20602617I21594341I25332960I30323734
137I34864895I38339396I41267524I44099761I46674311I48798235I50515034
130I51646801I51735469I50608687I48692805I46741731I45293455I44275719
123I43273517I42261921I41749512I42181566I43507646I45105142I46038550
116I45960073I45665461I46083714I46982870I47302123I46436424I44802798
109I43492977I43362399I44065722I44472920I44092896I43549775I43994403
102I46188999I49958908I54544798I59220800I63580293I67901705I72905198
95I78057984I81083015I80874467I79765824I81212653I85850717I91450660
88I95669243I97415526I97009848I95756391I94703389I93765356I92243302
81I89633994I85630751I80176199I74172312I69472968I67355766I67291814
74I67360679I65835662I62842932I60726306I61768468I65177645I68734741
67I71978871I75245980I77934921I79513629I80203659I79832449I78387860
60I77884844I80119329I83490857I86134996I88614160I91652921I94353858
53I96029469I97470662I99338273A000883016A001070682I99828137I97213482
46I92284491I83928476I72728662I61462583I53923273I53234761I59598079
39I69969264I81386010I92811281A002715871A007927117A006792315A003182901
32A005316147A013937870A022446719A026536387A026257745A025516553A028189091
25A033565239A037780498A038730887A036895794A032945809A028093633A026211208
18A031534315A040618298A045838649A047556245A050419987A055433308A058997630
11A057678994A052268666A046601664A044123005A046297946A052672683A060560007
4A066319071A068287994A068700607A072312553
##END=


$$ === CHEMSPECTRA PEAK TABLE EDIT ===
##TITLE=X9331
##JCAMP-DX=5.00
##DATA TYPE=INFRAREDPEAKTABLE
##DATA CLASS=PEAKTABLE
##$CSTHRESHOLD=0.93
##MAXX=3997.453
##MAXY=0.8856661287012878
##MINX=373.96442
##MINY=0.44193896449057274
##$CSSOLVENTNAME=- - -
##$CSSOLVENTVALUE=0
##$CSSOLVENTX=0
##NPOINTS=28
##PEAKTABLE= (XY..XY)
432.04222757626076, 0.7868348928753348
572.2788848944483, 0.7593506543245306
695.5171595074276, 0.6204804751795199
725.2643292415946, 0.5947127914965994
745.0957757310398, 0.5201481560138593
767.7602860046909, 0.675515530135984
924.9953260281468, 0.740472254313272
1004.3211119859261, 0.7082780573244657
1031.2352179358872, 0.7272129630588386
1075.1477065910867, 0.7126560181411588
1131.808982275215, 0.6444874981040908
1157.3065563330724, 0.6467375732376762
1194.136385527756, 0.6619905807360887
1218.2174276935102, 0.6653476335458371
1266.3795120250193, 0.6694108821062831
1307.4589368960123, 0.6585839368441554
1351.3714255512118, 0.5750964855526213
1385.3681909616885, 0.5886139256013271
1410.8657650195464, 0.681340155416646
1439.1964028616103, 0.5490066388259653
1454.7782536747459, 0.6204858399444734
1494.4411466536353, 0.48746651272010916
1616.262889374511, 0.6510596255160376
1663.0084418139168, 0.44193896449057274
2858.5613587490225, 0.7133080333951264
2869.893613885848, 0.7261589739843629
2929.387953354183, 0.6379244901326923
2954.8855274120406, 0.6774744958345312
##END=


$$ === CHEMSPECTRA PEAK TABLE AUTO ===
##TITLE=X9331
##JCAMP-DX=5.00
##DATA TYPE=INFRAREDPEAKTABLE
##DATA CLASS=PEAKTABLE
##$CSTHRESHOLD=0.93
##MAXX=3997.453
##MAXY=0.8856661287012878
##MINX=373.96442
##MINY=0.44193896449057274
##NPOINTS=60
##PEAKTABLE= (XY..XY)
2954.8855274120406, 0.6774744958345312
2929.387953354183, 0.6379244901326923
2869.893613885848, 0.7261589739843629
2858.5613587490225, 0.7133080333951264
1791.9128439953088, 0.8232019515264725
1772.0813975058636, 0.8165930477599418
1757.9160785848317, 0.8226085271933132
1749.4168872322125, 0.8077812753270844
1740.9176958795933, 0.8107214543910296
1733.8350364190774, 0.8047217104467445
1716.8366537138386, 0.8041700692521894
1663.0084418139168, 0.44193896449057274
1616.262889374511, 0.6510596255160376
1583.6826558561374, 0.775286194539049
1576.5999963956215, 0.7645913335183557
1558.1850817982795, 0.7669248553272247
1541.1866990930412, 0.7678645824967281
1534.1040396325252, 0.7890933129239008
1521.3552526035965, 0.772134837243604
1494.4411466536353, 0.48746651272010916
1464.6939769194682, 0.6807762356410489
1454.7782536747459, 0.6204858399444734
1439.1964028616103, 0.5490066371762837
1410.8657650195464, 0.681340155416646
1385.3681909616885, 0.5886139256013271
1351.3714255512118, 0.5750964855526213
1307.4589368960123, 0.6585839368441554
1266.3795120250193, 0.6694108821062831
1252.2141931039873, 0.6719466425214112
1238.0488741829554, 0.667991873731509
1218.2174276935102, 0.6653476335458371
1194.136385527756, 0.6619905807360887
1157.3065563330724, 0.6467375732376762
1131.808982275215, 0.64448749727925
1096.3956849726346, 0.7333093255621008
1075.1477065910867, 0.7126560181411588
1031.2352179358872, 0.7272129630588386
1004.3211119859261, 0.7082780573244657
924.9953260281468, 0.740472254313272
869.7505822361218, 0.7906541799043003
841.4199443940574, 0.772175607477632
767.7602860046909, 0.675515530135984
745.0957757310398, 0.5201481560138593
725.2643292415946, 0.5947127914965994
695.5171595074276, 0.6204804751795199
664.3534578811568, 0.781599161076988
645.9385432838153, 0.7840521305653162
620.4409692259574, 0.7790845009158995
610.525245981235, 0.7679759830287571
600.6095227365126, 0.7694418398898566
572.2788848944483, 0.7593506543245306
543.9482470523844, 0.7767934773826604
535.4490556997653, 0.7800235121235365
525.5333324550429, 0.7781238524828231
519.8672048866297, 0.7782784078638065
502.86882218139135, 0.8081508848667687
478.78778001563705, 0.79786181173072
473.1216524472243, 0.7924463124656632
457.5398016340887, 0.8065993757059259
430.625695684128, 0.7862669800451345
##END=

##END=

