##TITLE=X8230
##JCAMP-DX=4.24
##DATA TYPE=INFRARED SPECTRUM
##DATE=31/10/2018
##SAMPLING PROCEDURE=Diamant-ATR
##ORIGIN=ComPlat
##XUNITS=1/CM
##YUNITS=TRANSMITTANCE
##RESOLUTION=4
##FIRSTX=3997.453
##LASTX=373.96442
##DELTAX=-1.4165319
##MAXY=0.9809311
##MINY=0.38394552
##XFACTOR=1
##YFACTOR=9.1356328e-010
##NPOINTS=2559
##FIRSTY=0.97312838
##XYDATA=(X++(Y..Y))
3997+1065200844+1066126789+1066744324+1066768139+1066606007+1066487393
3989+1066166457+1065634000+1065346991+1065487200+1065609142+1065313782
3980+1064821449+1064589050+1064682284+1064794569+1064699508+1064466260
3972+1064282207+1064262764+1064434291+1064726193+1064995782+1065173441
3963+1065331071+1065606141+1066127245+1066878532+1067481844+1067348616
3955+1066346596+1065188056+1064856812+1065653769+1066842060+1067318147
3946+1066816223+1066145775+1066162477+1066795802+1067169847+1066764615
3938+1065945280+1065279463+1065010266+1065326635+1066445115+1067913238
3929+1068717307+1068665112+1068519422+1068704323+1068797035+1068470554
3921+1068101207+1068013584+1067865480+1067195488+1066257799+1065713141
3912+1065828427+1066459469+1067386522+1068412291+1069363354+1070186735
3904+1070977038+1071783716+1072395837+1072406732+1071602403+1070401780
3895+1069573049+1069503173+1069833569+1069697796+1068816674+1067960867
3887+1067839056+1068310510+1068648018+1068591190+1068275409+1067496133
3878+1066357035+1065798024+1066433240+1067712417+1068626683+1069129780
3870+1069886025+1070923407+1071860704+1072589024+1072573301+1070899332
3861+1068064409+1065913571+1065544028+1066747978+1068925762+1071425330
3853+1072603443+1071193322+1068721548+1066839450+1066077595+1066369693
3844+1067233982+1068051164+1068602282+1069018343+1069193524+1069003794
3836+1068905667+1069174473+1069174995+1068262360+1066934381+1066363821
3827+1066902346+1067812762+1068556806+1069597450+1071130949+1071760489
3819+1070618586+1069123778+1068281672+1067504680+1066326305+1065291533
3810+1064916119+1065299558+1066388157+1067788361+1068726311+1068838074
3802+1068322971+1067789340+1068127631+1069526269+1070902268+1070786264
3793+1069118885+1067200642+1065980250+1065581478+1065912462+1066769248
3785+1067493066+1067507289+1067097491+1066798086+1066505335+1065817662
3776+1064848656+1064142910+1064224531+1065335965+1066994405+1067963803
3768+1067599414+1066688867+1066207365+1066408839+1067196140+1068400090
3759+1069437211+1069562088+1069035437+1068881396+1069596863+1070850660
3751+1071763947+1071717559+1071222290+1070955703+1070738766+1069663543
3742+1067606591+1065599159+1064268114+1064024884+1065428285+1067733295
3734+1068122085+1065717447+1063152570+1062358744+1063044069+1064166985
3725+1064934583+1065003480+1064507560+1063878150+1063563412+1063838220
3717+1064659448+1065747329+1066952649+1068289697+1069251461+1068856212
3708+1067168216+1065134360+1063453084+1062518853+1062426337+1062655866
3700+1062522442+1062099725+1061811803+1061915084+1062941048+1065683520
3691+1069994918+1073600635+1073478889+1070166966+1066790843+1064624543
3683+1063408131+1063011773+1063707928+1065659575+1068620093+1071597509
3674+1072789976+1071874014+1070223925+1068690296+1067601241+1067128221
3666+1066987555+1066588521+1065561775+1064147282+1063024626+1062753602
3657+1063526810+1065045563+1066574755+1067857389+1069523203+1072041952
3649+1073741823+1071941215+1068183610+1065748960+1065389987+1065969159
3640+1066323174+1066297794+1066181463+1065834364+1065034276+1064149174
3632+1063875475+1064533135+1065585393+1065610251+1064074665+1062089808
3623+1060981375+1061756019+1064593552+1068086070+1070196065+1070757491
3615+1070832000+1070579701+1069646579+1068521053+1068239068+1068911930
3606+1069337583+1068567246+1067047644+1065803439+1065277245+1065080664
3598+1064741330+1064207437+1063525179+1062722937+1062111273+1062231649
3589+1063425094+1065279659+1066445180+1066170372+1065180814+1064178012
3581+1063371007+1063098939+1063579984+1064163593+1064016010+1063464110
3572+1063557409+1064677847+1066572993+1068959232+1070906574+1070876757
3564+1068959363+1066753132+1065271764+1064503449+1064163071+1064169073
3555+1064391751+1064486290+1064248932+1063929171+1063965903+1064529090
3547+1065284095+1065458624+1064658730+1063672370+1063651752+1064667930
3538+1065608359+1065478001+1064481723+1063550689+1063208549+1063361677
3530+1063661604+1063699772+1063282471+1062741140+1062633226+1063066904
3521+1063487990+1063224730+1062221014+1061203988+1060975699+1061509722
3513+1062076172+1062231192+1062242479+1062547887+1063212268+1063964337
3504+1064423917+1064292972+1063616521+1062759800+1062053467+1061655608
3496+1061613265+1061829288+1062086676+1062237064+1062325665+1062526356
3488+1062990242+1063724826+1064541682+1065081839+1064979993+1064173640
3479+1063033695+1062098616+1061752822+1062019018+1062469072+1062584293
3471+1062318489+1061962060+1061547172+1060939750+1060367754+1060208232
3462+1060381390+1060546784+1060703109+1061073565+1061602239+1061942226
3454+1061864455+1061562570+1061539147+1062042897+1062638381+1062659063
3445+1062095484+1061537060+1061339435+1061367621+1061312424+1060918415
3437+1060174371+1059482522+1059337745+1059745390+1060245161+1060524993
3428+1060730512+1061101555+1061490932+1061415575+1060651762+1059648307
3420+1059160151+1059555204+1060581494+1061581882+1061864585+1061174107
3411+1059925725+1058877448+1058607337+1059236617+1060437109+1061630033
3403+1062279081+1062120929+1061252204+1060035466+1058897608+1058186512
3394+1058053219+1058274135+1058369522+1058161915+1057974208+1058041148
3386+1058087211+1057800202+1057497795+1057903810+1059163543+1060410750
3377+1060681318+1060066392+1059461905+1059418844+1059710289+1059813049
3369+1059519189+1059200928+1059351773+1059809199+1060018502+1060124850
3360+1060814481+1061937463+1062372641+1061506852+1059971788+1058710162
3352+1058092496+1058119768+1058739652+1059652026+1060335328+1060552591
3343+1060475864+1060245291+1059828316+1059260431+1058596180+1057796418
3335+1057028494+1056800597+1057450167+1058679758+1059763985+1060163866
3326+1059970418+1059783819+1060047145+1060478147+1060327499+1059315497
3318+1058116244+1057676760+1058221027+1059209997+1059993449+1060099144
3309+1059293314+1057956853+1057086496+1057365611+1058428438+1059327567
3301+1059526170+1059175026+1058612426+1057962268+1057303498+1056906944
3292+1057033127+1057590572+1058210392+1058621104+1058772274+1058638980
3284+1058204259+1057775996+1057954243+1058907525+1059929248+1060166672
3275+1059625733+1059002651+1058699201+1058533872+1058313151+1058088450
3267+1057825778+1057415979+1057159765+1057637353+1058818271+1059837841
3258+1059953454+1059300882+1058470585+1057734958+1056997177+1056266378
3250+1055863234+1056103463+1056905052+1057766405+1058178161+1058179727
3241+1058329397+1058856570+1059201646+1058881754+1058315174+1058125835
3233+1058234597+1058255997+1058120094+1057833868+1057341014+1056945895
3224+1057182731+1058021706+1058784083+1059012960+1058957372+1058964614
3216+1058894020+1058537983+1058196038+1058295927+1058717404+1058950652
3207+1058752831+1058344012+1058037952+1057866425+1057630176+1057307021
3199+1057223509+1057677151+1058527804+1059242423+1059285419+1058594745
3190+1057713623+1057213853+1057079124+1056986673+1056939436+1057135299
3182+1057455060+1057577785+1057482267+1057434248+1057515020+1057524545
3173+1057348908+1057100785+1056922929+1056946417+1057290188+1057851614
3165+1058371545+1058784671+1059097386+1059078856+1058621299+1058043041
3156+1057548360+1057008464+1056590119+1056746770+1057397580+1057938389
3148+1058028361+1057728172+1057174380+1056600428+1056247131+1056047092
3139+1055854296+1055864930+1056267748+1056708537+1056660061+1056164075
3131+1055777373+1055861603+1056271010+1056708929+1057084604+1057375267
3122+1057434378+1057245953+1057101763+1057175033+1057211896+1056955747
3114+1056545427+1056224360+1055999464+1055803144+1055736595+1055937221
3105+1056295672+1056474311+1056292671+1055995419+1055924303+1056055704
3097+1056154614+1056223382+1056434055+1056725631+1056831653+1056717802
3088+1056727849+1057168378+1057887629+1058430591+1058509210+1058153499
3080+1057530939+1056811753+1056129822+1055615372+1055471769+1055782592
3071+1056190303+1056170403+1055702407+1055244263+1055123496+1055350415
3063+1055802818+1056238518+1056397844+1056233821+1055762171+1054863237
3054+1053628035+1052575386+1052142687+1052231680+1052428587+1052408035
3046+1052084685+1051562276+1050947741+1050247606+1049516350+1048931828
3037+1048586425+1048413333+1048380058+1048490973+1048589622+1048394151
3029+1047742688+1046660484+1045243838+1043577698+1041788313+1040154534
3020+1038941189+1037923968+1036383489+1033932397+1031061199+1028488688
3012+1026274106+1023954742+1021249264+1018227286+1014957250+1011265150
3003+1006835921+1001485837+995236885+988039021+979600932+969649114+958096857
2993+944806236+929488218+911946289+892135495+870064448+845977489+820572924
2983+794909992+770238836+747903616+729213651+715374000+707309956+705006838
2973+706886391+710220627+712325533+711339042+706314265+697300527+685594033
2963+673615341+664103203+659095389+659504144+665451538+676671180+692517349
2953+711880177+733301522+755133253+775719409+793761043+808592731+820010650
2944+827959147+832559315+834241504+833566293+830979428+826914327+821982523
2934+816868623+812176330+808514177+806594238+807074761+810193495+815439972
2924+821717175+827987789+833543262+837522567+838622322+835602432+827886465
2914+815792682+800799971+785765374+774480423+770513188+775836522+789877451
2904+809706383+831466280+852025098+869773655+884474659+896664938+907001893
2894+915815723+923033029+928372413+931599844+932629593+931338542+927202586
2884+919071470+905286690+884208659+855230868+820021415+783144322+751214169
2874+730723596+725686488+736183290+758316580+785731382+812187552+833797518
2864+849713759+861338959+870931869+880348946+890374817+900827971+911125126
2854+920749810+929336264+936542218+942123658+946332100+950096361+954515933
2844+960101614+966550735+973167600+979438605+985245855+990592350+995294626
2834+999152446+1002295778+1005020177+1007327993+1008979909+1009996673
2826+1010780908+1011675927+1012690408+1013732683+1014825261+1015982888
2817+1017165829+1018457989+1020012692+1021771347+1023504819+1025100756
2809+1026584407+1027955708+1029166313+1030143997+1030766165+1030946369
2800+1030763751+1030467086+1030371764+1030727671+1031571538+1032668488
2792+1033603436+1034029611+1033964432+1033802692+1033928417+1034385191
2783+1034971541+1035469614+1035732222+1035740377+1035612303+1035474573
2775+1035377098+1035348391+1035415201+1035588359+1035894288+1036363916
2766+1036987389+1037736000+1038533348+1039164455+1039396854+1039266758
2758+1039064566+1038996125+1038986469+1038852066+1038551617+1038229115
2749+1038032665+1037935973+1037800852+1037614189+1037513452+1037508624
2741+1037366783+1036941065+1036457932+1036262526+1036391905+1036593379
2732+1036668149+1036593836+1036408347+1036210788+1036203350+1036509801
2724+1036984844+1037392098+1037681064+1037927100+1038138165+1038293902
2715+1038426609+1038530478+1038536937+1038483371+1038582281+1039044275
2707+1039858718+1040735925+1041277190+1041260423+1040765611+1040036834
2698+1039309688+1038786952+1038615230+1038730255+1038832166+1038707811
2690+1038512144+1038486764+1038517624+1038327829+1038010678+1037943150
2681+1038181421+1038351904+1038180638+1037814032+1037523500+1037333704
2673+1037109134+1036864338+1036781413+1036942044+1037202890+1037361303
2664+1037364108+1037324831+1037333639+1037318633+1037203934+1037113375
2656+1037220832+1037498054+1037773450+1037882277+1037668211+1037115593
2647+1036547578+1036397647+1036744093+1037278769+1037667428+1037783236
2639+1037677215+1037452122+1037138494+1036740244+1036447232+1036632004
2630+1037455189+1038578106+1039467970+1039921874+1040048774+1039860088
2622+1039304730+1038673297+1038418062+1038504902+1038499682+1038364301
2614+1038539677+1039147818+1039786101+1040224346+1040652478+1041109839
2605+1041313009+1041186240+1041015822+1040924481+1040624031+1039903932
2597+1039095557+1038755700+1038975899+1039342897+1039562248+1039701740
2588+1039799411+1039713093+1039450289+1039249533+1039275566+1039423539
2580+1039446831+1039262908+1039089685+1039081595+1039025811+1038818139
2571+1038855459+1039343811+1039756937+1039733645+1039886642+1040875547
2563+1042187933+1042629505+1041754321+1040175478+1038702461+1037776321
2554+1037573346+1038032339+1038762877+1039313016+1039481215+1039240203
2546+1038725557+1038433329+1038885993+1039941447+1040855517+1041030437
2537+1040458637+1039629254+1039157735+1039264344+1039631407+1039890361
2529+1039948494+1039793082+1039496221+1039393853+1039655156+1039827531
2520+1039471037+1039011849+1039224545+1040023524+1040488454+1040118715
2512+1039483694+1039462164+1040206534+1041074673+1041408722+1041147746
2503+1040601979+1039835686+1038679626+1037398492+1036812534+1037421197
2495+1038767118+1039946406+1040441217+1040268907+1039720335+1039218216
2486+1039172676+1039737298+1040706174+1041619461+1041988678+1041635054
2478+1040882790+1040227021+1039817222+1039464317+1039113303+1039042644
2469+1039512663+1040301138+1040748060+1040430909+1039714789+1039296444
2461+1039264017+1039075592+1038471432+1037850699+1037642831+1037823231
2452+1038146712+1038433851+1038555988+1038483241+1038375979+1038372326
2444+1038358168+1038188272+1037985559+1037931145+1037860159+1037424133
2435+1036678719+1036160680+1036292669+1036994631+1037930231+1038798827
2427+1039387133+1039693846+1039957236+1040268712+1040407747+1040317775
2418+1040289786+1040437564+1040504047+1040367100+1040226499+1040227021
2410+1040301464+1040348701+1040316470+1040236873+1040218213+1040223693
2401+1039979028+1039352554+1038615686+1038077488+1037699593+1037326984
2393+1037039975+1037003961+1037097651+1036823234+1035514698+1032765767
2384+1028821498+1024338508+1019598131+1014271078+1008058727+1001138804
2376+993853839+986373730+978686536+970664574+962382418+954378398+947143411
2366+940742570+935553378+932484555+931684140+932105356+933154482+935690652
2356+940701401+947999284+956456881+964389067+969784169+971072871+967968229
2346+962111851+956770966+954349887+954479983+955583262+956817876+958265252
2336+960171686+962233401+963855631+965078697+966568547+968514258+970311146
2326+971549806+972624116+974245694+976836603+980512001+985133896+990014744
2316+994074560+996735477+998415709+999971912+1001922908+1004323174+1007106424
2306+1010241274+1013480841+1016249541+1018167979+1019595195+1021202419
2298+1023089475+1024696764+1025499789+1025543698+1025470298+1026060758
2289+1027508264+1029222097+1030562016+1031428719+1031878447+1031772882
2281+1031263064+1031001957+1031360865+1031912830+1032036142+1031573104
2272+1030728845+1029811839+1029205134+1029224642+1029878062+1030825015
2264+1031461798+1031150322+1029745159+1027911081+1026530385+1025783209
2255+1025197643+1024585262+1024316521+1024585262+1025171154+1026107342
2247+1027686185+1029543490+1030723495+1031036993+1031335093+1031982054
2238+1032027008+1030549358+1028163968+1026487911+1026419927+1027373992
2230+1028004446+1027513940+1026479625+1026311099+1027678812+1029814905
2221+1031454490+1031839104+1030831605+1028930195+1027261967+1026887792
2213+1028050639+1030173748+1032329806+1033757021+1034267165+1034139613
2204+1033618442+1032716638+1031373261+1029673782+1028081434+1027152227
2196+1026739297+1026020111+1024542657+1022711515+1021241826+1020548020
2187+1020596301+1021230082+1022610191+1024829666+1027098009+1028299480
2179+1028309136+1027728854+1026679664+1024918920+1022839329+1021427054
2170+1021160336+1021436906+1021457262+1021557738+1022995784+1026433367
2162+1031076988+1034748536+1034950793+1031666925+1028155877+1027286369
2153+1029041436+1031511187+1032677361+1031645982+1029102439+1026422080
2145+1024386463+1023207045+1022767625+1022144413+1020459288+1018885665
2136+1019890816+1023847155+1028304699+1031011678+1031770729+1031297774
2128+1030054547+1028338430+1026548980+1025290290+1025252448+1026428408
2119+1027589036+1027463115+1026369102+1025627145+1025551201+1025227525
2111+1024216632+1023200781+1022761231+1022546904+1021942352+1020971715
2102+1020290893+1020407419+1020995986+1021180040+1020597214+1019837903
2094+1019640409+1020074739+1020674398+1020952795+1020718633+1020212078
2085+1019870786+1019743494+1019424451+1018876335+1018840842+1019905757
2077+1021620960+1023140430+1024230856+1024969550+1025185247+1024951803
2068+1024856416+1025210953+1025748369+1026169781+1026065586+1024563731
2060+1021269555+1017496291+1015631157+1016896175+1019693713+1020522509
2051+1017424718+1012515227+1010164938+1012344223+1016899242+1020747732
2043+1023001395+1024335964+1024806831+1023621606+1020861583+1018083488
2034+1016548815+1015994762+1016062877+1017307279+1019559963+1021264009
2026+1021822173+1022580636+1024110350+1024649462+1022825823+1020127978
2017+1019202947+1021031414+1024580695+1027656042+1027777722+1024418302
2009+1020507373+1019320256+1020136721+1019569358+1016671931+1013967431
2000+1013877068+1016031038+1017939298+1017581304+1015258613+1013029547
1992+1012536823+1013618310+1014966776+1015252349+1013500805+1009760229
1983+1005645999+1003362324+1004296881+1008710320+1015355892+1020931199
1975+1022364873+1020213709+1017637153+1016508886+1016401038+1016507124
1966+1016634220+1016614125+1016246735+1015859642+1016171182+1017437375
1958+1018903933+1019263624+1017822120+1015385578+1013903362+1014955293
1949+1018306819+1021910187+1023749354+1023637525+1022713081+1021755624
1941+1020928719+1020546454+1020872675+1021503129+1021695990+1021072648
1932+1019755891+1018268912+1017333963+1017240664+1017569625+1017916006
1924+1018372063+1018928791+1019139399+1018849846+1018564598+1018683930
1915+1018850955+1018567143+1018030379+1017912287+1018324500+1018498571
1907+1017996257+1017502685+1017753026+1018420800+1018670098+1018286202
1898+1017724515+1017378721+1017180313+1016856768+1016438749+1016165767
1890+1015944002+1015613541+1015750488+1016971989+1018538174+1018897082
1881+1017756158+1016425961+1015989347+1016256978+1016569106+1016826690
1873+1017562253+1019229501+1021228386+1021738008+1019857215+1017177704
1864+1015593446+1015388057+1015623458+1015407500+1014743184+1014306636
1856+1014624831+1015541250+1016415456+1016781998+1016733522+1016758249
1847+1017361170+1018573406+1019489369+1019028941+1017644982+1016646943
1839+1016479526+1016482854+1015800987+1014502238+1013499566+1013451611
1830+1014111882+1014860428+1015660386+1016607470+1017085318+1016446447
1822+1015050941+1013797731+1013250007+1013415009+1013957579+1014641990
1813+1015404564+1015876801+1015392428+1013984525+1012658243+1012211842
1805+1012567684+1013265992+1013957840+1014401370+1014520832+1014525725
1796+1014660911+1014968733+1015229318+1014889135+1013635926+1012143466
1788+1011258038+1011044429+1010987667+1010889931+1011010306+1011211389
1779+1011038426+1010704181+1010946237+1012075417+1013587710+1014360136
1771+1013795448+1012574012+1011393028+1010336987+1009518564+1009207089
1762+1009190256+1008779348+1007892420+1007045877+1006389912+1005878725
1754+1005880356+1006787445+1008188758+1008927974+1008558171+1007703995
1745+1006837357+1006004711+1005252446+1004654418+1004127181+1003753788
1737+1004083989+1005559094+1007302874+1007475966+1006165407+1004518906
1728+1002968575+1001711321+1001001856+1000830982+1000917300+1001247631
1720+1002336555+1004597917+1006900709+1007126649+1005459335+1003632761
1711+1002749420+1002988018+1003999563+1005247683+1006134025+1006456722
1703+1006807605+1007965689+1009703531+1010564950+1009728911+1007380449
1694+1004501486+1002461628+1001760776+1001930933+1002230338+1002618671
1686+1003711315+1005080267+1004686975+1002489814+1000168036+998656395+998294616
1676+998981637+1000020911+1000905556+1001946526+1003195364+1003624997
1667+1002769124+1001705318+1001391233+1001711973+1001720390+1001037218
1659+1000381776+1000571636+1002163854+1005338829+1007980369+1007123387
1650+1005298900+1005000800+1005775052+1005460575+1003358539+1001118969
1642+999842664+999790534+1001012556+1003224202+1004986446+1004254276+1001744922
1632+999605566+998649805+998715441+999233153+999827984+1000507436+1000935764
1622+1000500129+999509723+998943730+999211035+999486626+998709830+997322087
1612+996315631+996091387+996357452+996487288+996183838+995691179+995343167
1602+995142541+994857490+994444038+994154876+994205244+994500148+994712387
1592+994571133+994074234+993494214+993155988+993145745+993284062+993382450
1582+993461461+993725243+994420680+995715189+997289595+998049233+997658942
1572+997115002+997220502+997806981+997995928+997532108+996832691+996177770
1562+995898525+996841173+999879983+1002771408+1002099197+999702845+997631605
1553+996464127+996011267+995651641+995125382+994997439+995974535+997987773
1543+1000117146+1001331730+1000777286+998758045+996772014+995586658+995083365
1533+994599645+993877197+993544778+994025562+994906945+995461716+995674868
1523+995947915+996059548+995592139+994844963+993982697+992618572+990875118
1513+989624584+989510081+990447117+991544588+990438178+985630599+980692467
1503+978157014+977859958+979154728+981202610+982749810+982714252+981553885
1493+980738790+981244432+982795611+983647112+982589570+980537185+978697692
1483+977430717+976588089+975913529+975209806+974331685+972965865+970050300
1473+963197970+950480714+933561083+915250056+897077999+881285983+871559583
1463+868837271+869637426+870923844+871959464+873134576+874735015+876254747
1453+877272490+877606409+877223426+876874892+878155895+881944753+887336332
1443+892691310+896612939+898508150+899155176+900427763+903969411+909336784
1434+915149123+921256692+927602271+932940938+935957826+936505812+934657967
1424+930477580+925207420+921216697+920870903+924764934+930625097+936320257
1414+941397556+945813997+949408296+952094201+954076970+955768359+957311644
1404+958458636+959257159+960239083+961669495+963078051+963739692+963368061
1394+962193080+960749814+959502738+958541235+957408205+955077098+950620075
1384+943782294+934710032+924301766+915053997+910344545+912239561+920078252
1374+930451482+939234713+944891510+948284205+950248118+951193245+951810259
1364+952684400+953515871+953588096+952954445+952230692+951777702+951698756
1354+952017670+952584902+953090283+953306829+953258809+953151352+953175035
1344+953432097+954034823+955091973+956415516+957429671+957801693+957923765
1334+958396654+959381775+960530855+961406366+961914618+962261977+962597006
1324+962938233+963352925+963881663+964307055+964279783+963707396+962781647
1315+961632893+960219379+958473512+956272696+953342582+949566121+945460373
1305+942036818+940046872+939458892+939562826+939469396+938688489+937390457
1295+936103582+935255147+935109000+935834841+937310141+939021756+940383662
1285+940986453+940421243+938118451+933587246+926867948+918891005+911490037
1275+906848308+906530634+910675268+917861126+925786657+932381795+936628601
1265+938684052+939420137+939768867+940339688+941465801+943340787+945941027
1255+948896325+951615831+953632332+954853832+955530805+955977532+956284636
1245+956319020+955982947+955363454+954617061+953803271+952778938+951176281
1235+948567886+944727160+939686659+933618563+926806554+919712885+912967947
1225+907154368+902350573+897749883+891801314+882588712+867789646+844402691
1215+808932326+758260992+691456284+612552899+532281052+465765734+426464104
1205+420272501+443664512+486545241+537114925+585753284+627014327+659830169
1196+686076970+708457274+729185857+749823751+771253904+793239807+814320383
1186+832709246+847497351+858950828+867862655+874955801+880834037+885999806
1176+890624375+894541111+897708975+900444205+903016716+905322378+907174398
1166+908660464+910010104+911274144+912223511+912447625+911551366+909340373
1156+905728262+900297927+891767387+877637596+854383673+818793781+770502031
1146+714276463+659933385+619059501+600073785+604485462+626456359+655742754
1136+682530691+701866181+715024292+726641336+739975019+754589704+768186517
1126+779802974+790625736+802155744+814467508+826365689+836620110+844701509
1116+850648642+854714200+857173382+858163201+857670020+855922130+853764050
1106+852280463+851901330+852047542+851786826+850781740+849559131+848939116
1096+849317597+850504779+852115983+853934272+855897468+857964859+860117393
1086+862330735+864445363+866189208+867345856+867789907+867478432+866627714
1077+865722060+865074838+864557191+864011293+863747381+864334970+865951393
1067+868172825+870445083+872540007+874396463+875797189+876565896+876881025
1057+876995659+876842988+876282149+875524926+875018501+875037682+875516770
1047+876165493+876739837+877256179+877869082+878588464+879282531+879882842
1037+880397292+880809374+881094426+881229220+881167565+880952259+880794564
1027+880821379+880861178+880719337+880494180+880343988+880164305+879803636
1017+879403037+879250300+879447207+879885583+880435591+881089859+881981681
1007+883207161+884609193+885866578+886824100+887598679+888365232+889170475
997+889953666+890650669+891289278+892022753+892996848+894122570+895111084
987+895812719+896340349+896744862+896835747+896511288+896016085+895688821
977+895639562+895756479+895872157+895866415+895668921+895226892+894595786
967+894076051+894041276+894592067+895553113+896712501+897851599+898702904
958+899119814+899192757+899120075+899067358+899096522+899100632+898916905
948+898572873+898253242+897985741+897541950+896669179+895264669+893337748
938+891040307+888796235+887133227+886210806+885691071+885145760+884286952
928+882681489+879662317+874915611+869051076+863392909+859164568+856793465
918+855829418+855350330+854305902+851562778+845932601+836285734+821723700
908+802286428+780363943+761245193+750925398+752186633+762641092+776747069
898+789715515+799779292+807598867+814313401+820359053+825730538+830605840
888+835226299+839469908+842990547+845559143+847028115+847351465+846912307
878+846482152+846707766+847878703+850055638+853017200+856166404+858822036
868+860605289+861480865+861673857+861725204+862361008+864015273+866523453
858+869364705+872031559+874147818+875560418+876465550+877193349+877825369
849+878267332+878588986+878916903+879081710+878781587+878107419+877604387
839+877791768+878729652+879916508+880555379+880195623+879217548+878398408
829+877933674+877174819+875405398+872662013+869727723+867456901+866136947
819+865381420+864527701+863116079+861097099+858758227+856545081+854894470
809+854033247+853767181+853524212+852733975+851191408+849138306+847069088
799+845312129+843804207+842498215+841729508+841683511+841798341+841254205
789+839876314+838234967+837084844+836880825+837646400+839149560+841094161
779+843128604+844929798+846399422+847586017+848490366+849158597+849738095
769+850233168+850474310+850453171+850399279+850370441+849929978+848434909
759+845706986+842270252+838819229+835589318+832231137+828080370+822679657
749+816368722+810342709+806042403+804543745+806203295+810313871+815138870
739+818865289+820835531+821699364+822381230+823240887+824226660+825302993
730+826453182+827664113+829097657+830852463+832453293+833044144+832250710
720+830664234+829443255+829488208+830907072+833135747+835541363+837832150
710+839878793+841525294+842861168+844276900+845841194+846926334+846843278
700+845645005+844051612+842753580+841934962+841383127+840940576+840682210
690+840578732+840283372+839522626+838492225+837631981+837171357+836995655
680+836850943+836652079+836603668+836936479+837283186+836226557+832072659
670+825050172+820166779+823674695+831539223+836315289+836904966+835714391
660+835050662+835405264+835930675+836037806+836103898+836636877+837323833
650+837620563+837843633+838774536+840501483+842376926+843835915+844728194
640+844981211+844443208+843337320+842517853+842750710+843852226+844991911
630+845632608+845768577+845585045+845306518+845142559+845024924+844514715
620+843319051+841936463+841407072+842181520+843625242+844825864+845240556
611+844505842+842561306+840212974+838848393+839238618+840777335+841986048
601+841860910+840790384+840019199+840285851+841235610+841928960+841676008
591+840639344+839637259+839191838+839149168+839322848+839874422+840791167
581+841615657+841916041+841402309+839680516+836918406+834531188+833977331
571+835014452+836009751+835996963+835664870+835872412+836131562+835379688
561+833621489+831761510+830147826+828552477+827388326+827446067+828209815
551+827666070+824381158+819264322+814745383+812562575+812804631+814624159
541+817147215+819744845+822074256+824047435+825541525+826289419+826214062
531+825749785+825826251+827295353+829872692+831879667+831982426+830579612
521+828556000+826233309+824227509+823765254+825170612+827248247+828735160
511+829420811+829705080+829695946+829255352+828631031+827981069+826334698
501+822691074+818334071+815769324+815619263+816440621+816998524+817416347
492+818166981+819280698+820541084+821235804+820102840+816958007+813976546
482+813553960+815333754+816776694+816219378+814511091+813473905+813603937
472+813960496+814086417+814881417+817175662+820378235+822822019+823166182
462+821442628+819239007+818776687+820749605+822745488+821932938+818213370
452+813054059+807322036+801261182+795919514+792948557+792741342+794073562
442+795569023+796631654+797357365+798255646+800072891+803368307+807591168
432+810887758+811890300+811563035+811884297+813212472+814475664+814989918
422+814497390+812638063+811025945+813575882+819084183+821452219+817617299
412+810226900+804767076+802682395+800148443+794934067+789982298+788844701
402+791263367+794210836+794844748+793201378+793048316+796205349+800220408
392+803330139+805210344+803796634+796174749+784256147+776984884+781918645
382+794347392+803915313+807191156+807099423+806514705+805088533+802572720
##END=
