##TITLE=S. Graessle SG-V2455 7-18
##JCAMP-DX=4.24
##DATA TYPE=INFRARED SPECTRUM
##DATE=4/7/2016
##SAMPLING PROCEDURE=ATR platinum Diamond 1 Refl
##ORIGIN=Angelika Moesle
##XUNITS=1/CM
##YUNITS=TRANSMITTANCE
##RESOLUTION=4
##FIRSTX=3997.4121
##LASTX=373.82813
##DELTAX=-1.4160156
##MAXY=1.0238088
##MINY=0.36533105
##XFACTOR=1
##YFACTOR=9.5349628e-010
##NPOINTS=2560
##FIRSTY=1.0010396
##XYDATA=(X++(Y..Y))
3997+1049862115+1049717088+1049521301+1049160734+1048582126+1047884183
3989+1047527617+1047873431+1048563498+1048916689+1048724528+1048247626
3980+1047774850+1047505800+1047537306+1047697961+1047581627+1046917440
3972+1045924568+1045202433+1045226625+1046004707+1047175301+1048250939
3963+1048771787+1048415783+1047185428+1045629137+1044675584+1044856306
3955+1045703214+1046216059+1045940633+1045331769+1045142359+1045599819
3946+1046097287+1045947759+1045347460+1045022087+1045166551+1045348960
3938+1045397782+1045529994+1045703026+1045602070+1045235126+1045011772
3929+1044994581+1044634139+1043841179+1043515243+1044337146+1045466232
3921+1045461106+1044234815+1042837616+1041983457+1041597760+1041504680
3912+1041818614+1042480987+1042936697+1042602947+1041620076+1040783358
3904+1040754852+1041490052+1042434353+1043226314+1043735659+1043718406
3895+1043102166+1042297328+1041979706+1042562565+1043444917+1043454169
3887+1042735722+1042558064+1043313705+1043786231+1043404097+1043118981
3878+1043028964+1042071036+1040487803+1039633143+1039955828+1040764292
3870+1041644831+1042367779+1041985457+1040423291+1039115359+1039209251
3861+1040313520+1041152239+1041014151+1039777045+1037673152+1035745605
3853+1036215755+1040108107+1043579630+1044125669+1043041904+1041459672
3844+1039791360+1038309458+1037138552+1036251824+1036024657+1037087230
3836+1038921760+1040002775+1040004150+1039740163+1039623829+1039336463
3827+1038614953+1037652773+1036678279+1035750481+1035195065+1035547193
3819+1036471865+1037150242+1038140989+1039846120+1040713220+1039667962
3810+1037797800+1036336090+1035818931+1036266452+1036708285+1036086543
3802+1035253513+1036058913+1038293956+1039731224+1040008151+1039993710
3794+1039732099+1039114046+1038578884+1038252948+1037590387+1036366158
3785+1035338654+1035290457+1035847186+1036124426+1036057413+1036128364
3777+1036301896+1036195939+1035899133+1035755919+1035853562+1035930577
3768+1035641648+1035085544+1034662340+1034183063+1033077794+1031704163
3760+1031392167+1032836499+1034717413+1035187938+1034338092+1033803867
3751+1035363533+1038825367+1040738787+1039824866+1038941826+1040129736
3743+1041719845+1040796673+1038068226+1035507748+1033970086+1033644713
3734+1034313150+1035015906+1034775111+1033749857+1032657653+1031849690
3726+1031162999+1030371602+1029860194+1030430300+1032141557+1033993903
3717+1034936454+1034665216+1033499686+1032126429+1031389417+1031557573
3709+1031735044+1031196005+1030260081+1029500001+1029497188+1030671908
3700+1032372725+1033020471+1032195004+1030989029+1030427862+1030516254
3692+1030595143+1030313778+1030106740+1030462494+1030891261+1030807120
3683+1030394918+1030161812+1030370289+1030653154+1030410171+1029861256
3675+1029840815+1029823999+1028830064+1028169565+1029722480+1032560323
3666+1033724853+1032843438+1031433237+1030551698+1030233701+1029982466
3658+1029771865+1030035476+1030177503+1028558263+1025148752+1022057862
3649+1022075490+1026115682+1030314591+1031453178+1030619523+1029487874
3641+1028875635+1028885262+1029086674+1029110679+1029120743+1029246204
3632+1028976904+1028196008+1028381668+1030938957+1033417608+1032871006
3624+1030752235+1028975904+1027869259+1027123558+1026451807+1025572268
3615+1024661223+1024324723+1024549015+1024611714+1024433055+1024750927
3607+1025532886+1025785308+1025345726+1025129873+1025712357+1026576643
3598+1026774055+1026290652+1026069924+1026529134+1026726296+1025762304
3590+1024379295+1024202887+1025774993+1027278774+1026840442+1025207700
3581+1023880202+1023412802+1023534638+1023673289+1023464937+1023035545
3573+1022746428+1022673164+1022626531+1022657974+1023120748+1023959717
3564+1024385422+1024092304+1023606214+1023334350+1023246771+1023115560
3556+1022762119+1022216329+1021804940+1021843072+1022114498+1022092619
3547+1021608153+1020795314+1019750869+1018697110+1017966223+1017518265
3539+1017052303+1016639663+1016704050+1017344045+1018215332+1019038298
3530+1019642036+1019796315+1019561083+1019379925+1019360483+1019074868
3522+1018430372+1017983101+1018064054+1018320227+1018350107+1018202330
3513+1018030360+1017707237+1017135443+1016627848+1016598093+1017002856
3505+1017466005+1017764561+1017931217+1018072368+1018200704+1018162197
3496+1017744244+1016991666+1016284222+1015897462+1015690486+1015415560
3488+1015089436+1014904214+1014939408+1015086686+1015184829+1015186579
3479+1015208083+1015370989+1015661105+1015960286+1016028862+1015573026
3471+1014671296+1013979917+1014096751+1014787880+1015215647+1014923530
3462+1014241590+1013661982+1013217712+1012758188+1012459320+1012566403
3454+1012884400+1013001921+1012821700+1012563590+1012496015+1012754000
3445+1013115568+1013125695+1012715118+1012290726+1012142761+1012240279
3437+1012460945+1012526833+1011987732+1010798073+1009653671+1009335299
3428+1009909157+1010818889+1011530522+1011813700+1011602535+1010973418
3420+1010246907+1009816764+1009821828+1010088002+1010261472+1010011988
3411+1009408001+1009014740+1009340988+1010294604+1011312294+1011837767
3403+1011711306+1011319170+1011200898+1011341111+1011152639+1010294166
3394+1009152328+1008347865+1008096943+1008206964+1008474264+1008856398
3386+1009272850+1009474575+1009316358+1009034118+1008969544+1009075751
3377+1008958729+1008444946+1007888092+1007782447+1008163331+1008516334
3369+1008306732+1007540464+1006771571+1006565220+1006973859+1007555405
3360+1007879153+1007967294+1008150078+1008531024+1008766443+1008465575
3352+1007691993+1006996238+1006959731+1007649360+1008487266+1008769319
3343+1008320297+1007505958+1006735689+1006212029+1006022118+1006133827
3335+1006307984+1006268790+1005985237+1005575473+1004998677+1004158333
3326+1003319676+1003032060+1003519401+1004401191+1005110636+1005407379
3318+1005441385+1005425382+1005353244+1005112574+1004790264+1004661740
3309+1004875029+1005245661+1005335428+1004762633+1003587039+1002342744
3301+1001556785+1001320053+1001379814+1001450202+1001368312+1001161399
3292+1001064193+1001366687+1002135768+1003066379+1003729065+1004034310
3284+1004234535+1004391377+1004231597+1003690558+1003141393+1002879657
3275+1002795766+1002691809+1002584602+1002612044+1002814957+1002986427
3267+1002749695+1002011995+1001260417+1001096011+1001546658+1002105575
3258+1002321303+1002142769+1001778264+1001419947+1001146333+1000967925
3250+1000858342+1000823273+1001041126+1001699186+1002525966+1002855902
3241+1002456828+1001889597+1001771325+1002063942+1002265855+1002033686
3233+1001501587+1001095949+1001086635+1001383753+1001809207+1002308425
3224+1002744944+1002822084+1002467080+1002025997+1001843026+1001823897
3216+1001639175+1001210158+1000791454+1000652241+1000843714+1001232287
3207+1001633112+1001913226+1002042438+1002035437+1001859779+1001473394
3199+1000938044+1000410008+1000068257+1000106389+1000616297+1001296174
3190+1001535843+1001137644+1000697374+1000823210+1001268419+1001299987
3182+1000646677+999665994+998843778+998461019+998515655+998792331+999090199
3172+999333495+999451204+999354311+999072509+998788206+998773515+999256730
3162+1000156586+1000947359+1001042376+1000364500+999387067+998595482+998087075
3152+997765452+997669059+997845842+998061132+997936484+997371879+996698440
3142+996445393+996903229+997809023+998551161+998736508+998439265+997963427
3132+997548037+997248043+997036128+997043630+997472960+998132146+998404884
3122+997915293+996889101+995729635+994588859+993448084+992340252+991362444
3112+990520037+989675004+988794715+988152658+988031010+988322314+988676943
3102+988852601+988674693+987928178+986591679+984952998+983219612+981188420
3093+978550990+975525675+972955571+971638700+971640700+972361460+973135792
3083+973541805+973268942+972167611+970618259+969477921+969333457+969983328
3073+970856304+971671206+972422659+973015832+973286695+973193803+972702711
3063+971666330+970056404+968202996+966738410+966368466+967486737+969703901
3053+971908750+973158796+973475168+973538367+973731465+973822607+973554932
3043+973107661+972862491+973039649+973627071+974408592+975076904+975504421
3033+975809978+976096782+976359456+976655824+977067276+977499856+977748840
3023+977728462+977549928+977433031+977496481+977589686+977454223+977032394
3013+976482291+976061775+976138415+976994074+978387335+979583995+979990446
3003+979594122+978757404+977793786+976871927+976154980+975733527+975395276
2993+974746092+973668329+972426034+971303950+970390279+969626199+968790230
2984+967575816+965943824+964252696+962822804+961553567+960201815+958906510
2974+958150369+958203942+958845249+959665527+960430795+961041409+961343403
2964+961209690+960763419+960334277+960161432+960271890+960582761+960929576
2954+961110422+961156243+961380347+961905258+962423917+962668588+962782796
2944+963027655+963444232+963905068+964198936+964049345+963297955+962090292
2934+960774297+959598890+958487370+957116489+955300650+953255455+951416237
2924+950085864+949305531+948946839+948887202+949131123+949700479+950455433
2914+951249956+952257644+953812309+955835750+957726415+958957020+959552568
2904+959892257+960306147+960953017+961780672+962471238+962714534+962629705
2894+962651459+962972207+963375095+963644332+963821365+963964267+963951077
2884+963745226+963635768+963889003+964286077+964363592+964007150+963471175
2875+962992586+962731537+962867375+963394598+963994460+964332023+964284702
2865+963808988+962893567+961742540+960699533+959853000+958901947+957497310
2855+955580202+953370914+951188820+949328285+947934587+946894768+945936527
2845+944885955+943776123+942742180+941977350+941803630+942576712+944349480
2835+946683103+948957090+950871698+952534946+954098113+955497686+956568886
2825+957244638+957622771+957946394+958463990+959191376+959908822+960458738
2815+960867001+961125175+961116298+960852999+960568821+960503558+960731351
2805+961147616+961511184+961573883+961281579+960859437+960673715+960911510
2795+961339590+961528687+961401164+961305333+961483741+961812928+962139739
2785+962503432+962926761+963298955+963573006+963867124+964240194+964463298
2775+964181245+963361842+962466675+962054973+962253198+962728536+963144927
2765+963457235+963716033+963864498+963900130+964009025+964318958+964714657
2756+965023090+965169430+965079663+964661585+963971143+963254072+962748353
2746+962486241+962353466+962317897+962433106+962597324+962588823+962378033
2736+962062787+961511559+960505184+959253575+958363409+958217257+958615894
2726+959077230+959355157+959567321+959849436+960058038+959951830+959558757
2716+959188876+959110798+959299146+959481618+959410604+959088732+958707348
2706+958393415+958101735+957751295+957371724+957080795+957001280+957240262
2696+957827934+958592702+959237572+959652900+960026407+960553193+961180622
2686+961728412+962125299+962410915+962578696+962562630+962413415+962355967
2676+962567881+962985334+963405163+963681964+963751290+963613889+963412852
2666+963402287+963675463+963985458+964003524+963745851+963567443+963679089
2656+963860560+963804550+963600137+963629392+964016589+964441106+964580507
2647+964485177+964379157+964348714+964389221+964520808+964690590+964757728
2637+964690653+964617889+964634330+964709969+964799360+964882313+964887502
2627+964736724+964535374+964557628+964893315+965237755+965241443+965029153
2617+965126547+965798547+966674460+967198558+967291701+967323894+967552374
2607+967863245+968008585+967887437+967617512+967450105+967572066+967968327
2597+968492050+968978141+969265882+969256130+969038464+968883685+969034401
2587+969463481+969827987+969711590+968985017+967952324+967129483+966848555
2577+967056969+967489800+967979142+968521618+969103539+969595756+969864243
2567+969896374+969775664+969605070+969501676+969549310+969655329+969561875
2557+969124980+968495988+967959575+967614198+967248068+966667522+966200622
2547+966507867+967617074+968552561+968349773+967187119+966113418+965798359
2538+965915256+965794859+965386783+965261134+965723846+966308642+966357089
2528+965904004+965634579+965943824+966427977+966507054+966155614+965759540
2518+965621201+965819551+966208561+966464546+966415225+966299453+966519869
2508+967217937+968168302+968985454+969358024+969128794+968348460+967437415
2498+967067784+967550874+968497301+969292699+969675396+969722842+969531494
2488+969058406+968257006+967329708+966625014+966186869+965733972+965194309
2478+964900754+965169930+965933260+966755101+967126607+966949512+966734972
2468+967026776+967672522+968015211+967733033+967055219+966198497+965153427
2458+964081164+963376157+963220628+963456485+963811238+963878188+963101794
2448+961206065+958579512+956090985+954554823+954240764+954822310+955875069
2438+957216257+958634147+959742479+960367908+960671215+960778672+960721974
2428+960752980+961235383+962122861+962866312+962987710+962611077+962288579
2419+962359405+962654272+962846558+962897255+963032406+963396661+963878626
2409+964242757+964306331+964033843+963601574+963298018+963250821+963409351
2399+963792360+964398786+964912382+964974706+964712844+964545438+964567130
2389+964533436+964315208+964052158+963914008+963864498+963675088+963212127
2379+962711971+962622642+963064599+963521497+963256822+962186810+961147304
2369+960959644+961419730+961697781+961480366+961042972+960536565+960056162
2359+960050474+960743541+961475677+961394537+960463238+959274579+958328840
2349+957832560+957805555+958095109+958413668+958536566+958411168+957979087
2339+957266267+956787365+957349345+959151431+961351467+962796674+963095855
2329+962749853+962286454+961668151+960706659+959670841+959191314+959540629
2319+960160870+960240197+959674904+959068791+958841748+958794052+958642336
2310+958552694+958836935+959430983+960030970+960507934+960853811+960940640
2300+960671527+960230445+959900758+959743604+959616268+959366471+958890257
2290+958173123+957367035+956678282+956164311+955803994+955736419+956175188
2280+957074543+958177812+959370785+960537315+961140427+960650961+959514124
2270+958918450+959401540+960391413+961184248+961592512+961655086+961498994
2260+961450173+961729850+962233944+962820991+963325210+963290954+962371720
2250+960932138+959795114+959640085+960676903+962284578+963144426+962559130
2240+961367470+960858937+961327275+962323023+963558941+964851558+965791233
2230+966199434+966504679+967111792+967769915+967955700+967395595+965983019
2220+963845307+961772233+960978710+962125736+964799298+967992644+970869306
2210+972875368+973340455+971756097+968798357+966259508+965495428+966453107
2200+968119293+969291136+969267945+968384342+967548936+967173616+966970266
2191+966512743+965648269+964707593+964403412+965162116+966584319+967786793
2181+968271071+968459856+969235251+970823610+972461291+973360459+973535679
2171+973395778+972998704+972045026+970507801+969021649+968396657+969099288
2161+971723215+976749779+982216112+983762150+979751777+973386213+968667082
2151+967068284+967877560+969752160+971489922+972359772+972320640+971702774
2141+970774913+969954948+969911190+970802669+971792728+971980451+971553246
2131+971431849+972001142+972654077+972538993+971550433+970450415+969922442
2121+969688648+968859868+967178617+965453107+964570693+964632017+965341399
2111+966462421+967382405+967195683+965929321+964751164+964460172+964788483
2101+965340274+966029590+966590007+966839179+967277448+968368027+969546872
2091+969917128+969511615+968978953+968387280+967253506+965685088+964627828
2082+964781545+965852557+967058532+967983767+968760475+969623761+970396593
2072+970539995+969878871+969023962+968714654+968952198+969204683+969302826
2062+969525805+969777665+969519992+968866870+968826300+969689211+970081534
2052+968756724+966624076+965858183+967254631+969341521+970395530+970381152
2042+970356460+970954947+971992141+972852426+972772599+971592691+970568062
2032+971190929+973094534+974616631+975080967+975027832+974881305+974727464
2022+974799915+975228557+975736027+976112847+976839233+978752278+981568053
2012+983233739+981856420+978125723+974741279+973254439+972720839+971896935
2002+971331017+972317764+974736716+976907183+977486166+976723211+975542241
1992+974218994+972592628+971215496+971278507+973067842+975228307+976024393
1982+975179923+974097721+974360958+976171233+978366581+979984133+980989320
1973+981295377+980603311+979299942+978244870+977873864+978124035+978636756
1963+978801599+978409839+978167043+978731149+979665448+980105093+979866986
1953+979438031+979307631+979483539+979455722+978729961+977517235+976558618
1943+976208990+976059900+975615380+974901996+974187613+973573248+972943818
1933+972154171+971331392+970828799+970654078+970325392+969634075+968972077
1923+968497426+967574066+965645143+962999337+960226882+957608518+955373038
1913+954136557+954627774+956936580+960072666+962407539+962635144+960321149
1903+955948771+950979155+947623029+947645158+950968841+955685534+959594201
1893+961853310+963187184+964651583+966551312+968365026+969573439+970224123
1883+970651140+971171925+971933692+972760597+973288008+973367397+973180112
1873+973037836+973251126+974016206+975121975+975846485+975732651+975286568
1863+975206241+975519174+975667827+975309948+974808541+974651012+974829795
1854+975121225+975453974+975767345+975958819+976104908+976487230+977352329
1844+978615190+979748589+980349951+980472036+980194672+979481351+978465537
1834+977524799+977013766+977126474+977775658+978395774+978409526+977800162
1824+976902495+976099532+975745466+976122662+977224117+978533987+979376332
1814+979603937+979621002+979773593+979978507+980003636+979826103+979502293
1804+979106469+978954565+979497354+980672511+981707454+982001572+981678074
1794+981168166+980732835+980269873+979550302+978721960+978165106+978054210
1784+978188735+978174857+977767281+976895681+975599252+974140354+972954695
1774+972467354+972937505+974080468+975053650+975531176+975831857+976130163
1764+976525487+977481791+979415527+981740523+983457093+984497350+985235175
1754+985752897+986136719+986690947+987552608+988402704+988901922+989065078
1745+988913675+988382638+987536355+986497286+985218547+983649504+981921244
1735+980075462+978002325+976068527+975008204+975031583+975836796+976975133
1725+978205113+979427279+980496978+981445781+982649005+984534107+986730892
1715+987996066+988179037+988174662+988556170+989343755+990445148+991914047
1705+993535975+994736699+995482463+996386757+997551037+998057569+997725632
1695+997288863+996952300+996467522+995809900+995000123+993890354+992484654
1685+991165220+990235984+989063828+986947683+984147972+981349700+979570180
1675+979881614+982215424+985307251+988816969+993418016+998473272+1002147520
1665+1004354495+1006361244+1009028867+1011848644+1013752062+1014629100
1657+1014881272+1014877147+1015460943+1017641350+1019633722+1019866891
1648+1019297659+1018634160+1017924840+1017134443+1016514827+1016302163
1640+1016462630+1016920028+1018406180+1022556268+1028623338+1033240137
1631+1035836809+1037422355+1038361281+1038560005+1038215128+1038097981
1623+1039150803+1041342087+1043614074+1045546684+1047442976+1048771787
1614+1047736781+1042482175+1030619398+1008884465+976642634+939822260+908280934
1604+888738411+881814806+883096483+884255262+875098052+848975613+809718910
1594+773196404+756654816+764286991+787105251+814148737+839590049+862067932
1585+881815181+899630445+916368757+931842833+945372796+957519314+969378778
1575+979444719+985703950+989811530+994739637+1001965424+1009646358+1015416122
1565+1019260965+1021565833+1021987474+1018608218+1004506961+976294131+952276960
1555+939810633+934676862+935274161+940693423+948920959+957685345+966358464
1545+975832108+986233612+996513593+1006772821+1016349171+1021593213+1022462375
1535+1020573335+1016057992+1008853897+999604733+987426022+967417599+932473388
1525+881872442+821636697+752229740+676508042+613790021+575458428+554742560
1515+545093196+544039562+548681366+555521643+561618156+564000226+559170637
1505+551214652+549765944+555177391+565335038+579398163+596841857+616652305
1495+635736993+650775550+662299389+673522672+687352691+703658735+719666786
1485+734003838+746277191+754286311+753557425+741004269+719737549+697890283
1475+683567422+681634749+692319743+709317104+724116054+734850371+744134291
1466+754280748+765348689+775085694+782113444+787517828+793694356+802585203
1456+811390659+815645016+816057093+814287263+810966705+806456551+801514003
1446+797412675+794988597+794133500+794389110+795496380+798014225+803597955
1436+812675399+821765784+828415275+834262242+841386884+849770887+857877087
1426+865115876+872095929+878952209+885088417+890701653+896832797+902926372
1416+906533921+905683512+897190302+875547886+838539040+794485566+759047763
1406+744263690+751753401+772075757+793847384+813742411+833267681+852166459
1396+868990850+883870065+896584376+905822163+911725703+915765582+918841156
1386+920248106+918202037+911657877+901284816+889586632+880268955+876388168
1376+879497061+890254444+906860169+923348560+934509831+940443501+944362295
1366+949616901+958710536+973097660+991903483+1010929410+1026176756+1037063101
1357+1044516867+1048708650+1048771787+1043501553+1030248766+1004418132
1348+960156869+893957198+808970895+715800627+626404501+547861026+484895709
1338+444439906+430618670+439106098+461653714+491363760+523308942+553665484
1328+579026281+595893555+601122844+594241997+579858687+566561579+562314474
1318+569715668+583800610+594367895+591953382+574135368+548654486+528662567
1308+522973348+531326001+547317799+564058674+577571072+586842053+592446161
1298+595527987+597759278+601385018+608112774+617841090+629138324+640815066
1289+652519876+663991580+674399461+683027509+690626302+699330865+710647040
1279+723874072+736966516+748515234+758486658+767516969+776057313+784159701
1269+791747742+798797808+805032972+809226818+808586948+799048168+777312110
1259+744157983+706247218+673914433+656056224+655635083+668981949+689271362
1249+710748871+730421481+747319573+761031071+770467395+773314364+766987245
1239+751389208+731336652+715117062+709127819+713704923+724198445+735025716
1229+742037775+742461354+735029217+721336598+706363303+696332868+695251791
1219+703038932+716349167+730979398+744030709+754563363+762686630+768106829
1209+769762888+767431953+763618241+762709196+767462646+776756881+787156323
1199+796017102+802698849+807704909+811719721+815330770+818893685+822446848
1189+825926810+829315631+832446715+834964373+836641873+837486468+837384699
1180+835614056+830785718+821996327+810843682+801750172+798927083+802844814
1170+810366031+817984328+824202614+829343011+834298436+839690880+845532095
1160+851370498+856857897+862019798+866930090+871515509+875756050+879758797
1150+883673903+887701593+892023212+896636823+901342702+905712830+908399957
1140+905708079+891922818+864679607+831497413+807013592+800595707+809292768
1130+824251185+839655061+853698245+865666792+875527945+884583573+894447915
1120+905371079+915242422+918865723+908260931+877094925+827946375+772583290
1110+721541699+677318631+641942902+624439947+632630351+661487988+696459766
1100+725815622+745912811+757919365+764140214+767220601+770236352+775795514
1090+784590844+795257398+805886882+815383592+823607565+830894550+837551918
1080+843579981+848816771+853266477+857173831+860786256+864145070+867199078
1071+870014853+872671287+874802435+874787119+869354793+855948978+837365696
1061+822321387+818527867+825816290+837844973+848980677+857444194+863548459
1051+867773435+870502257+872130311+873072737+873807499+874688476+875678036
1041+876446867+876727669+876543635+876212823+876216636+877048979+879073357
1031+882373598+886783296+892072284+897901059+903682764+908908364+913562608
1021+917970868+922180092+924893661+922849342+913436522+899663326+890119232
1011+891289575+901485353+914112273+924612421+932397687+938437439+943492008
1001+948018540+952351537+956772925+961486117+966446605+971351959+975918374
991+979994009+983332570+985542670+986446339+986095148+983717830+976026769
981+956457491+917647183+857543213+784232402+713236461+658724972+626904032
971+615904416+619381440+630391058+644060484+657976520+670940940+682295872
961+692169965+701321611+710445940+719822878+729572885+740121605+752185357
952+766070949+781115820+795950339+809218941+820179863+828887426+835845850
942+841546976+846364938+850610418+854500832+858217276+861969852+865894209
932+869999663+874244893+878561636+882873691+887134987+891238253+894953009
922+898099784+900748778+903188984+905668009+908069207+909956060+911082457
912+911760334+912644437+914269427+916753516+919775268+922842653+925636237
902+928133516+930497019+932792948+934642981+935015800+932284666+924934106
892+913388450+901580059+895414908+898383962+908855917+922022875+933906218
882+943237335+950568329+956756859+962263637+967055032+970528805+971465605
872+968732095+963067475+958179562+958731978+966287388+977505607+986498286
862+988462028+980996884+962598950+930213029+877978840+799205009+693032814
852+572602957+465064757+398038275+383148902+412164756+466524185+528731079
843+587639452+638252900+679532169+712449189+738848242+760532227+778367307
833+791996289+800367852+802683284+798878949+788899523+772323179+750466411
823+727779676+706880399+681101837+637419057+572433238+504183747+462627989
813+466124423+508572660+568478187+626460636+673852358+710261030+738156863
803+760028008+777861087+792950029+805751732+816458293+825607501+833816783
793+841364192+848285297+854490393+859832265+864395804+868579961+872769368
783+877040665+881144181+884802176+888110794+891405472+894747533+897958132
773+901068588+904296878+907610997+910655815+913257614+915747328+918524409
763+921692126+925269856+929055938+932001238+930260413+912559983+861773690
753+774914100+683669066+637461940+657055598+717014353+778022868+821387338
743+848794579+866234773+877553636+885284454+890612074+893539182+894530117
733+895623009+899324825+906151850+913957369+919417576+918586983+907888111
724+888806611+870776746+865069868+874874386+893440852+911851101+925876282
714+935717431+942782188+948155378+952577516+956470368+960088606+963733474
704+967350774+969761037+968030839+957454989+933940475+899204740+863295974
694+836786588+815838490+779547840+712913713+632877272+576756607+560168448
684+564651535+572234388+590073656+631276848+689724071+746218618+788829385
674+817612321+836670066+849732817+860581967+872347601+883807803+891332270
664+895498111+898674079+902031955+905633753+909171976+912300497+914812591
654+916934300+919077700+921322057+923512278+925614233+927630922+929450761
644+931076690+932796386+934825765+936948536+938894212+940868580+943190264
634+945671602+947892204+949688164+950969591+951492314+950853820+948515446
624+944630095+941165698+940760373+943736116+947122686+947012790+942030922
615+935235341+932306607+936581218+945756931+954520442+959994776+963118109
605+965688276+968226500+970452916+972334392+974254250+976407965+978334325
595+979403587+979616627+979612813+980056709+981182231+982767090+984479034
585+986223297+988049951+989814280+991175159+991905546+992115897+992141465
575+992147278+991874665+990570421+986629936+976898244+955369037+912827471
565+843963865+761851849+700940103+693102890+738174429+806216506+867071116
555+909538357+936663983+954236451+965806361+972895997+976628319+978789535
545+981077087+983853105+986228048+986630436+982526732+970311577+948009851
535+920536660+900420342+898527926+913236235+931574595+941347670+940359173
525+935173392+931583597+926187090+909545671+878090674+843712381+827429591
515+838358631+866342355+896330579+920157839+936504578+947111246+954382728
506+960268015+965784607+971016209+975283818+977884053+978942188+979203987
496+979718396+981823476+986011320+990413830+992088080+990223857+986319940
486+981438154+974458039+963195186+947398049+930289293+917013940+911640624
476+915165970+926200842+941976787+957902635+969989829+978515483+986158910
466+994043132+1000985491+1005587037+1007921160+1009201962+1010400811+1011606661
456+1012735497+1014195832+1016252466+1018287096+1019316163+1019418744
447+1019643474+1019466066+1014473571+998415573+970232000+937872521+910758459
438+890668834+871354228+846490524+820333266+807349842+818983764+851798703
428+891060032+925046502+950653407+968891562+980373018+982295377+968833989
418+945278279+930218592+930558468+942353483+959891694+977035832+989387826
408+996249294+999850529+1003176337+1007755129+1013324169+1019375861+1026290090
398+1034429109+1042203873+1047325954+1048771787+1047928942+1041935073
389+1033081545+1026609962+1027526821+1037028094+1050497359+1061368263
381+1067649061+1071004562+1073194971+1073741823+1067715323+1048771787
##END=
