##TITLE=X8262
##JCAMP-DX=4.24
##DATA TYPE=INFRARED SPECTRUM
##DATE=31/10/2018
##SAMPLING PROCEDURE=Diamant-ATR
##ORIGIN=ComPlat
##XUNITS=1/CM
##YUNITS=TRANSMITTANCE
##RESOLUTION=4
##FIRSTX=3997.453
##LASTX=373.96442
##DELTAX=-1.4165319
##MAXY=0.9955442
##MINY=0.68757743
##XFACTOR=1
##YFACTOR=9.2717278e-010
##NPOINTS=2559
##FIRSTY=0.98216081
##XYDATA=(X++(Y..Y))
3997+1059307201+1060186190+1060965470+1061148686+1060840240+1060483643
3989+1060313284+1060270662+1060287891+1060359185+1060467893+1060678945
3980+1061078743+1061455011+1061372146+1060739375+1059998280+1059629019
3972+1059712334+1060050995+1060421607+1060607009+1060479336+1060203740
3963+1060151089+1060453557+1060844804+1061068650+1061122779+1061022621
3955+1060782382+1060690646+1061096100+1061808458+1062148405+1061789879
3946+1061174015+1060889355+1061103686+1061588599+1061951496+1061967632
3938+1061718072+1061348424+1060919441+1060625909+1060790868+1061281952
3929+1061461183+1061107800+1060666924+1060563808+1060790097+1061104007
3921+1061309595+1061279895+1060941041+1060351084+1059739785+1059400224
3912+1059554125+1060267898+1061346496+1062367943+1063010293+1063321826
3904+1063519635+1063577107+1063380455+1063123695+1063042565+1063197303
3895+1063665372+1064393352+1064822850+1064266322+1063075223+1062291764
3887+1062145384+1062025489+1061588084+1061277838+1061367325+1061578184
3878+1061882645+1062697283+1063976776+1064911629+1064808707+1064015733
3870+1063539564+1064079248+1065451121+1066781915+1066930095+1065378992
3861+1063205081+1061904888+1061939474+1062970950+1064506753+1065773004
3853+1065434278+1063647308+1062224906+1061872102+1062416415+1063509542
3844+1064687205+1065482686+1065807911+1065916877+1065838061+1065398985
3836+1064832686+1064475574+1064116856+1063414655+1062619303+1062377072
3827+1062940864+1064002169+1065209726+1066401018+1067054811+1066419854
3819+1065042388+1064139485+1063784817+1063331211+1062619239+1061962874
3810+1061531512+1061395739+1061801515+1062984965+1064519868+1065411135
3802+1064904301+1063646151+1063489356+1064783571+1066107550+1066183794
3793+1065159775+1063959226+1063121830+1062780919+1062976414+1063489292
3785+1063745152+1063437605+1062882942+1062310921+1061523991+1060584380
3776+1060016474+1060096446+1060700417+1061580756+1062335093+1062533609
3768+1062331493+1062342550+1062789341+1063489935+1064311773+1065022331
3759+1065029209+1064107856+1063164645+1063128966+1063909339+1064754063
3751+1064887586+1064250186+1063505106+1062840191+1061694800+1059686105
3742+1057811641+1057003946+1056875888+1056871388+1057014104+1057387029
3734+1057192306+1055990920+1054967995+1055250212+1056770136+1058695387
3725+1060018338+1060190497+1059532782+1058739423+1058255989+1058245896
3717+1058741866+1059641748+1060706460+1061556263+1061670692+1060898869
3708+1059776299+1058765845+1058019479+1057623025+1057519716+1057391979
3700+1057038211+1056705850+1056699293+1057223677+1058650129+1061295967
3691+1064651012+1066919681+1066286202+1063503756+1060756025+1059011548
3683+1058382055+1058823510+1060136818+1061984796+1063960447+1065461536
3674+1066032014+1066085371+1065862876+1064750270+1062884035+1061630963
3666+1061288381+1060949591+1060048102+1058945526+1058346826+1058457141
3657+1059007241+1059806835+1060902341+1062296842+1063892111+1065408692
3649+1065784511+1063978962+1061369382+1060020202+1060325048+1061313324
3640+1061919674+1061967953+1061765901+1061195358+1060034731+1058764431
3632+1058132238+1058080616+1057716240+1056647864+1055715967+1055529665
3623+1056161794+1057685897+1059850743+1061689850+1062451323+1062672790
3615+1063007208+1063222053+1062927750+1062366079+1062091447+1062222913
3606+1062217963+1061588213+1060635488+1060039810+1059983945+1060036209
3598+1059896772+1059549111+1058781467+1057570503+1056656028+1056808966
3589+1058006943+1059510668+1060491936+1060894755+1061091022+1061055343
3581+1060726967+1060508136+1060743296+1061059585+1060965920+1060688781
3572+1060771196+1061436625+1062807148+1064897872+1066699950+1066612456
3564+1064834936+1062948450+1061873002+1061526948+1061483362+1061503548
3555+1061488697+1061279702+1060844033+1060528708+1060739182+1061416440
3547+1061990260+1061800551+1060867176+1060145496+1060577823+1062041111
3538+1063373962+1063464991+1062333486+1061020499+1060545937+1061176201
3530+1062336121+1063019486+1062708726+1061954839+1061707593+1062226899
3521+1062842634+1062732769+1061797980+1060730889+1060262755+1060420578
3513+1060612473+1060279405+1059401895+1058552735+1058364248+1058801781
3504+1059205371+1059074549+1058603907+1058268139+1058178460+1058142652
3496+1058075409+1058147474+1058535442+1059108942+1059563640+1059859807
3488+1060290977+1061046535+1061900002+1062391279+1062256213+1061703221
3479+1061144444+1060698424+1060304477+1060142989+1060386185+1060711667
3471+1060647766+1060210426+1059780864+1059622012+1059709056+1059756499
3462+1059412245+1058716923+1058204817+1058321433+1058981012+1059767878
3454+1060366835+1060827833+1061454176+1062295878+1062808755+1062335350
3445+1060937184+1059414560+1058572471+1058676744+1059338059+1059830300
3437+1059693113+1059087406+1058551578+1058477456+1058819588+1059234493
3428+1059453389+1059479232+1059438731+1059380552+1059285215+1059135813
3420+1058887604+1058549007+1058326640+1058450841+1058796124+1058956326
3411+1058811231+1058727916+1059071656+1059770642+1060505886+1061070707
3403+1061356717+1061236759+1060711924+1060033831+1059490868+1059135878
3394+1058818303+1058409055+1057946257+1057618589+1057603932+1057865963
3386+1058136609+1058198324+1058208996+1058578514+1059397202+1060220583
3377+1060646352+1060836447+1061115450+1061390725+1061337431+1060918091
3369+1060442243+1060261083+1060414342+1060517908+1060273748+1060120296
3360+1060799161+1062147698+1063008365+1062639682+1061595413+1060818576
3352+1060492900+1060241026+1059901401+1059628055+1059548147+1059608255
3343+1059632169+1059542232+1059527639+1059691506+1059609669+1058826853
3335+1057745940+1057411587+1058367783+1060056138+1061316603+1061444211
3326+1060804561+1060310713+1060387728+1060680360+1060587401+1059856272
3318+1058809560+1058070201+1057988108+1058424870+1058984547+1059175735
3309+1058614515+1057516309+1056729315+1056897295+1057774291+1058514421
3301+1058503878+1057840249+1057055568+1056519676+1056287538+1056399525
3292+1056944031+1057795570+1058586486+1059024019+1059081556+1058874811
3284+1058567071+1058493978+1059060534+1060202069+1061166815+1061245759
3275+1060603409+1060050610+1060091689+1060504472+1060801475+1060773961
3267+1060494315+1060115732+1059939073+1060360020+1061323417+1062099419
3258+1062026518+1061231037+1060273619+1059396495+1058511978+1057742469
3250+1057552503+1058233103+1059427288+1060338677+1060482550+1060262112
3241+1060541501+1061429747+1061915174+1061249873+1060147296+1059762606
3233+1060104353+1060336491+1060011073+1059277437+1058499121+1058173638
3224+1058619465+1059440081+1059848943+1059675755+1059530147+1059814936
3216+1060159639+1060144211+1060049645+1060363427+1060914877+1061092950
3207+1060713210+1060155847+1059748270+1059443874+1059138642+1058987955
3199+1059206721+1059721527+1060228555+1060479593+1060393128+1060090082
3190+1059826443+1059625290+1059185571+1058482535+1058052844+1058280932
3182+1058877768+1059413210+1059851000+1060269762+1060469307+1060200911
3173+1059581769+1059045620+1058949897+1059344102+1059993330+1060525044
3165+1060733332+1060803340+1060996199+1061192787+1061065757+1060514758
3156+1059659298+1058770924+1058345026+1058691337+1059432945+1059930780
3148+1059980280+1059667270+1059050120+1058348305+1057858506+1057538552
3139+1057237820+1057167234+1057525502+1057950371+1057888142+1057271121
3131+1056488883+1055910948+1055661710+1055664345+1055697003+1055424364
3122+1054566140+1053170803+1051564606+1049901644+1048059966+1046121151
3114+1044552883+1043714266+1043532850+1043830560+1044662170+1046082643
3105+1047701826+1048795724+1048997198+1048649730+1048270375+1048004679
3097+1047866785+1048071602+1048715045+1049424317+1049694834+1049430746
3088+1048925518+1048350026+1047394022+1045477193+1042271678+1038008072
3080+1033378548+1029201536+1026111287+1024516211+1024693063+1026607385
3071+1029635213+1032831213+1035583702+1037817335+1039714363+1041494262
3063+1043260147+1044821986+1045836297+1046133494+1045680339+1044424824
3054+1042586232+1040862584+1039895201+1039658627+1039687749+1039790093
3046+1040246269+1041284496+1042615868+1043714009+1044410810+1044899837
3037+1045290248+1045597538+1046046707+1046889245+1048004679+1048998934
3029+1049574619+1049675227+1049486225+1049288351+1049164857+1049014555
3020+1048781517+1048311454+1047239413+1045545723+1043855761+1042695519
3012+1041893545+1041126994+1040547901+1040536266+1041211466+1042353129
3003+1043582800+1044623791+1045448907+1046088365+1046451519+1046566977
2995+1046751865+1047252721+1047906000+1048341540+1048330676+1047865756
2986+1047057676+1046003314+1044787464+1043612244+1042707605+1042065769
2978+1041591913+1041466426+1041838002+1042223785+1041800073+1040268512
2969+1037999458+1035430572+1032691840+1029791622+1026961732+1024626398
2961+1022923450+1021473662+1019890159+1018394599+1017724670+1018502150
2952+1020741118+1023871097+1027214892+1030406843+1033256725+1035372264
2944+1036301524+1036109179+1035443107+1034834250+1034247958+1033551029
2935+1032938829+1032451602+1031537577+1029675649+1027108305+1024549576
2927+1022445866+1020702675+1018953184+1017105848+1015625396+1015081147
2918+1015555709+1016792580+1018670516+1021204366+1024254244+1027410966
2910+1030110739+1031968103+1033110217+1034024948+1035018303+1035997771
2901+1036755580+1037264921+1037669669+1038110159+1038647915+1039312187
2893+1040133382+1041112144+1042202570+1043325397+1044406567+1045427693
2884+1046397197+1047279528+1048015222+1048549314+1048791803+1048686887
2876+1048340062+1047924450+1047575503+1047516488+1047975108+1048758759
2867+1049244379+1048994048+1048148167+1047170756+1046405040+1045861241
2859+1045280477+1044393388+1043170146+1041883324+1040946927+1040579852
2850+1040622731+1040823176+1041204266+1041940989+1042991494+1044063470
2842+1044889744+1045471793+1046051207+1046806251+1047654254+1048459763
2833+1049253572+1050079653+1050826854+1051395532+1051875945+1052436137
2825+1053103109+1053720837+1054110092+1054208000+1054040084+1053725530
2816+1053552985+1053817139+1054490539+1055270077+1055944570+1056530605
2808+1057110983+1057666290+1058041080+1058072644+1057773134+1057312778
2799+1056887009+1056705079+1056916581+1057403422+1057819227+1057920542
2791+1057775384+1057679404+1057899585+1058396134+1058831224+1058924825
2782+1058676037+1058205717+1057596089+1056940303+1056374646+1055980442
2774+1055714039+1055499065+1055388749+1055528572+1055960384+1056624206
2765+1057486416+1058418570+1059072298+1059169435+1058835339+1058434513
2757+1058194531+1058087109+1057955707+1057717847+1057474780+1057364786
2748+1057350772+1057296835+1057217570+1057259742+1057426180+1057507309
2740+1057381951+1057261542+1057452280+1057937964+1058390026+1058568357
2731+1058488320+1058234839+1057912571+1057760405+1057967214+1058358655
2723+1058597543+1058680408+1058894611+1059324751+1059745699+1059942223
2714+1059859422+1059549818+1059220864+1059213986+1059723842+1060565737
2706+1061283495+1061467869+1061046214+1060351856+1059848236+1059701020
2697+1059685655+1059541268+1059254293+1058947647+1058723930+1058716794
2689+1059006662+1059357087+1059376566+1059078599+1058900397+1059020676
2680+1059109392+1058902068+1058565336+1058310183+1058069494+1057752498
2672+1057465009+1057326214+1057328850+1057436208+1057616275+1057794155
2663+1057899649+1057880813+1057665582+1057270864+1056917738+1056879295
2655+1057273435+1058038894+1058893775+1059350659+1059129321+1058566300
2646+1058274889+1058426991+1058669094+1058655658+1058368748+1057973643
2638+1057605282+1057282885+1056954189+1056698907+1056789487+1057325957
2629+1057964322+1058305233+1058351455+1058240689+1057855035+1057137984
2621+1056488048+1056324696+1056485155+1056530155+1056456161+1056592899
2612+1056933810+1057159520+1057290728+1057704861+1058445184+1059072234
2604+1059274415+1059164292+1058916340+1058505485+1057942271+1057515152
2595+1057533859+1057887242+1058152424+1058127866+1057930893+1057653818
2587+1057308535+1057006839+1056876338+1056910474+1057018154+1057141005
2578+1057409851+1058072837+1058942954+1059327580+1059096534+1059123213
2570+1059910722+1060728125+1060953834+1061190730+1062084119+1062996408
2561+1062848034+1061679628+1060482229+1059831393+1059505718+1059303215
2553+1059425424+1059942030+1060445136+1060416528+1059710406+1058748488
2544+1058347726+1059056484+1060520608+1061735043+1061958631+1061281567
2536+1060441536+1060162725+1060548572+1061158844+1061683100+1062227799
2527+1062895671+1063516228+1063866910+1063795167+1063180588+1062189870
2519+1061455590+1061532284+1062184020+1062574303+1062226127+1061583070
2510+1061533248+1062411979+1063540914+1063923482+1063376019+1062560674
2502+1061859502+1060928634+1059633326+1058641001+1058613165+1059402024
2493+1060357320+1060877591+1060566058+1059518961+1058573114+1058668515
2485+1059895422+1061522255+1062762019+1063191967+1062820070+1062146862
2476+1061817266+1061925331+1061984989+1061712157+1061443247+1061622028
2468+1062161198+1062517152+1062370965+1062070683+1062155991+1062538302
2459+1062602203+1062125776+1061536269+1061176651+1060951006+1060808547
2451+1060953320+1061394132+1061799137+1061940567+1061916524+1061871588
2442+1061839380+1061853330+1061902702+1061776315+1061273788+1060632402
2434+1060397628+1060736225+1061203909+1061369639+1061322838+1061363982
2425+1061512741+1061486962+1060983792+1060062824+1059354323+1059495046
2417+1060244369+1060694953+1060443464+1059942094+1059714842+1059853379
2408+1060266098+1060902084+1061682907+1062413779+1062801555+1062646175
2400+1062109640+1061607756+1061366360+1061296224+1061307667+1061485419
2391+1061928160+1062559260+1062963043+1062304685+1059768906+1055330827
2383+1049764135+1043688744+1037015875+1029481118+1021208609+1012515217
2374+1003627873+994725421+985859613+976934211+968010802+959391854+951530329
2364+945325915+941856440+941120038+941974534+944037357+948395078+955762241
2354+965386372+975951529+985894778+993087338+995549252+992527982+985352329
2344+977542940+972506868+970853549+971181410+972230693+973697131+975725819
2334+977973595+979689914+980794034+982015734+983728775+985515681+987038627
2325+988558487+990608774+993701338+998197661+1003848118+1009495233+1013829875
2315+1016518334+1018289876+1020066111+1022395209+1025540166+1029531326
2306+1033997884+1038222725+1041564656+1043921397+1045792133+1047808349
2298+1050171261+1052476573+1053993605+1054305651+1053924754+1054008712
2289+1055186633+1057019889+1058767709+1060082689+1060764125+1060659338
2281+1060100753+1059724099+1059668941+1059562997+1059268758+1059015341
2272+1058841832+1058463249+1057741376+1056981639+1056740115+1057416537
2264+1058866196+1060271112+1060682095+1059982273+1058997662+1058356919
2255+1057812413+1057129755+1056751751+1056940174+1057305771+1057871813
2247+1059386659+1061788979+1063562385+1063568043+1062590374+1062098712
2238+1062217449+1062006589+1061291017+1060907677+1061256431+1061851273
2230+1062271385+1062521845+1062688283+1062974679+1063613107+1064413731
2221+1064949880+1065007995+1064335109+1062709047+1060847119+1060244305
2213+1061498083+1063488456+1064755349+1065203683+1065783611+1066770601
2204+1067348857+1067024854+1066269231+1065471950+1064386281+1062799305
2196+1060973120+1059395531+1058288132+1057278514+1055964884+1054790371
2187+1054491953+1054898244+1055390549+1056099115+1057522417+1059631526
2179+1062012246+1064053534+1064709191+1063180717+1060301905+1058272575
2170+1058401791+1059821043+1060976206+1061607627+1062415258+1063810853
2162+1065728067+1067408901+1067436672+1065692581+1063992912+1063569907
2153+1064132156+1064943644+1065371213+1065305320+1065504800+1066497833
2145+1067504752+1067517738+1066390025+1064218621+1061271538+1058960376
2136+1059126621+1061810451+1065043481+1067171812+1068162274+1068499327
2128+1068085130+1066713386+1064983052+1064157871+1064975144+1066650964
2119+1067471259+1066736336+1065573587+1065234154+1065375263+1064896972
2111+1063775688+1063043787+1063311090+1064024284+1064132092+1063270718
2102+1062160362+1061636942+1061574391+1061294424+1060802954+1060859269
2094+1061795087+1062934757+1063364319+1062916821+1062284307+1062306228
2085+1063096309+1063765209+1063281004+1061883095+1061160837+1062142619
2077+1063913197+1064974502+1065251576+1065475679+1065481979+1064803114
2068+1064187700+1064842971+1066647171+1068279596+1068698037+1067723326
2060+1065685574+1063250660+1061518205+1061622992+1063321697+1064113577
2051+1061387768+1055963599+1052116055+1053209439+1058449234+1064677948
2043+1069724691+1072945571+1073741823+1071410861+1066910102+1063153588
2034+1062061747+1062454151+1062360936+1061773422+1061526048+1061628713
2026+1062321014+1064705656+1068663708+1071755950+1071862409+1069767313
2017+1067775912+1067034111+1067319928+1067838463+1067362100+1065520358
2009+1064131192+1064894401+1066166244+1064905586+1061253988+1058526571
2000+1059305787+1063013315+1066738393+1067910271+1066385653+1064155042
1992+1063216781+1063718601+1064114735+1062904671+1060003038+1056701093
1983+1054493368+1054089584+1055574537+1059045362+1064150028+1068949204
1975+1070963684+1069870107+1067404272+1064729313+1061901609+1059626576
1966+1059049863+1059669005+1059849007+1059297751+1059301608+1060705560
1958+1062652796+1063347990+1061754008+1058684201+1056308688+1056523019
1949+1059526547+1063614586+1066605384+1067655761+1067262649+1066093600
1941+1064921272+1064808385+1066105879+1067934571+1069167007+1069286065
1932+1068227460+1066430525+1064987745+1064727770+1065288477+1065776025
1924+1065914048+1065903441+1065566001+1064614883+1063617929+1063534678
1915+1064130099+1064273072+1063666401+1063071301+1063008879+1063072330
1907+1062795834+1062441744+1062493688+1062879792+1063136681+1063116752
1898+1063081909+1063216074+1063434584+1063566885+1063476820+1063018394
1890+1062103983+1061137565+1061141615+1062703904+1064892086+1065918934
1881+1065157461+1063686973+1062761826+1062715990+1063286339+1064213800
1873+1065382013+1066574848+1067164741+1066464854+1064816743+1063420055
1864+1062957064+1063218839+1063501378+1063191131+1062310985+1061516341
1856+1061494355+1062311500+1063355704+1064043184+1064423952+1064882315
1847+1065558415+1066245766+1066502912+1066025264+1065149489+1064395473
1839+1063859389+1063306204+1062481666+1061414447+1060478179+1059986452
1830+1059828050+1059885458+1060421221+1061309788+1061718264+1061168165
1822+1060102167+1059118585+1058562828+1058564950+1058993419+1059722042
1813+1060706717+1061487990+1061331646+1060284098+1059236486+1058822867
1805+1058974197+1059274994+1059380295+1059196178+1058809817+1058413298
1796+1058233232+1058187267+1057648354+1056021714+1053783067+1051979060
1788+1050923348+1050162518+1049163507+1048063180+1047280364+1046436604
1779+1044852072+1042776134+1040877498+1039041413+1036115672+1030654153
1771+1022478331+1011946925+998162432+980459937+958603831+930216157+893678504
1761+856315156+830418968+821903328+830563034+851431765+877033007+901867248
1751+920488074+925757056+915421788+894137574+868320586+845342231+833176021
1741+836913892+854277533+876241898+896596402+916064331+935744213+952010227
1731+963440229+972692270+980963236+988019831+993830683+998397335+1001733223
1721+1004561184+1008208090+1013694038+1019956631+1024111914+1025791783
1713+1026735508+1028008444+1029760828+1031737701+1033559065+1035024474
1704+1036392875+1038125845+1040513122+1043227039+1045192340+1045840733
1696+1045388028+1044519068+1044119849+1044552690+1045525408+1046532905
1687+1047471166+1048347069+1048332797+1046667586+1044287251+1042041340
1679+1040074367+1038240982+1036090215+1033493364+1030961378+1028304097
1670+1024069356+1017344287+1009349110+1000550545+988460386+969584470+944111544
1660+916765246+891357506+869438463+850247930+827658251+796447630+773568534
1650+769977107+777536165+791993351+811734112+832457298+851999157+871053532
1640+889562243+906885383+923325871+938992093+951377648+959416411+965837342
1630+972786450+980579381+988361513+995239777+1000985379+1005351328+1007901957
1621+1009036742+1009660128+1009969024+1009339274+1007545425+1005005660
1612+1001679544+997288522+991914175+985969479+980109833+975432801+973342720
1602+974820280+979482205+985387943+990010203+991155145+986880739+975148398
1592+954388440+924929754+890090228+855581391+827456134+810373746+806510517
1582+814460886+829482765+846801276+864964769+884707395+903952443+919083223
1572+930880171+941908576+952866972+962448867+970188827+976963526+983061031
1562+988342613+993683467+1001029158+1009281159+1014059699+1016576835+1019128686
1553+1022131634+1025258977+1027963572+1029968216+1031744451+1033851311
1544+1036086808+1037775548+1038304819+1037276428+1035766661+1034954466
1536+1034380517+1032911379+1029728042+1025174890+1019644584+1011946604
1527+1000186362+984455854+965701569+941290783+909790552+879218618+856458387
1517+839678724+827894054+823506182+827188896+837170524+851612088+870913516
1507+896404057+919627022+931009066+934852174+936905483+940247607+945629476
1497+950446909+951523578+950112298+949532177+951584651+956668294+963652181
1487+970586632+976873911+982905329+988924277+994790929+999897395+1003440607
1477+1004906530+1004154443+1001425741+997860671+995724433+996291439+998716131
1468+1001715801+1004035385+1004409403+1002812914+1000433029+997715127+993891626
1458+988362092+983397956+981559685+981658944+981965654+981643065+980090226
1448+976607379+970856892+962737771+951558422+936924255+919797124+900460274
1438+877101086+851074461+830561555+819616916+814877976+813220736+813948073
1428+816957643+821624261+827322097+833793171+841161748+850042471+860875766
1418+872131165+881197933+887441369+891413821+893996722+896944063+901835297
1408+908332471+914674715+919456727+922707050+925465517+928270977+930535468
1398+931251940+930034548+927699085+926528815+928913585+935215842+944342975
1388+954930117+965165613+973382514+979424733+984064221+987825364+990967300
1378+993743510+996203303+998016373+998727188+998241504+996731416+993963048
1368+989448661+983293684+975741055+965674440+951166146+932589034+913439065
1358+897531770+888057876+887569749+896090403+909880103+923339885+931657909
1349+931782946+922465975+904665187+881979206+859219040+839593608+823431738
1339+809180140+795381504+781893629+769665189+760042215+754225063+752968520
1329+756489103+764449051+776149570+790941110+808333102+827668537+847829474
1319+867234724+884291076+898207227+909341383+918808012+927846365+937189115
1309+946728259+955795413+963762497+970327493+975364722+978757311+980294721
1299+979493390+975595767+968040117+957181043+944772859+933797812+927425546
1289+927452354+933154433+941433563+948301735+950756898+948114468+942403517
1279+937346552+935970308+938498180+942397153+944355254+942158072+935145256
1269+923590345+907983782+888915843+867430412+845034942+823135699+802674866
1259+784283863+768431661+755523585+746225257+741584997+742539394+749296607
1249+761221164+777063595+795069265+812924118+827857603+837143523+839028659
1239+833800050+824234033+814722532+809386307+810394575+817407584+828186814
1230+839822340+849830904+856680432+859776660+859132381+855023642+848022140
1220+839335113+830816515+824382213+821382929+822407527+827365555+835653492
1210+846397236+858570775+870831358+881407571+888385287+890157471+885709749
1200+874916504+858990694+840690335+823796178+811870464+806885692+808537983
1190+814705046+822555964+829388135+833040119+832381312+827895082+821807091
1180+817345419+817195953+821851706+828964166+834308041+834053017+827235825
1170+816834727+808334580+806443787+812394012+823791485+836655461+847924682
1160+856936871+864957826+873123555+880794471+885872201+886218512+880503511
1150+868515567+851765283+833825057+819217826+811298700+810908417+816731033
1140+826578110+838363552+850408068+861525444+871178312+879430506+886530301
1130+892577342+897633728+901909998+905618876+908806070+911477879+913698268
1120+915425774+916457250+916653259+916096024+914999747+913571624+911945370
1111+910210343+908548281+907288781+906679217+906614930+906728846+906775389
1101+906845462+907195244+907945081+908956693+909961169+910785707+911445350
1091+911934698+911940741+910814828+907726186+901707689+891696682+876877112
1081+857378519+835015771+813341788+796395108+786814435+784927628+789360500
1071+798174814+809489551+821549817+832849253+842553678+850686556+857584107
1061+863300522+867858238+871718704+875436710+879112224+882667714+886333263
1051+890398031+894721873+898786577+902121179+904642301+906677802+908574767
1041+910254186+911237062+910950666+908750655+903739719+894933118+882116265
1031+867128266+854168375+847637965+848824435+855080471+862509156+868827163
1021+873524638+876500201+877484555+876240034+872555263+866308549+858145906
1011+850057899+844730289+843910958+847368347+853415002+860123036+865843758
1001+869090031+868869078+865542255+860914980+856749604+852885217+847209624
992+837989597+826038297+814066746+804203405+796995415+792685588+792246833
982+796608218+805478912+817416070+830738665+844107481+856611838+867866145
972+878071555+887665407+896812276+905327916+912955888+919509249+924828117
962+928784048+931366113+932849330+933945349+935582789+938318949+942021013
952+946184396+950401201+954494834+958412579+962106221+965433751+968153583
942+970114576+971455656+972509504+973551008+974741272+976154545+977609733
932+978610995+978616588+977143464+973576594+967496704+959602778+951935912
922+946855289+945804978+948814355+954708651+961755152+968467558+974088507
912+978484222+981742645+983967920+985350979+986131545+986279789+985231213
902+981904968+975038918+964074800+950473074+938061225+931110060+931275340
892+936477850+943186976+949654514+956409220+964055129+971805181+978304798
882+982917608+985860063+987583197+988240590+987629290+985462066+981069244
873+972056991+953623431+921355813+877426312+834214569+808544990+809421536
863+831472109+860331645+882713872+892115443+888934164+877339589+861551030
853+845412303+834714653+835665899+848801614+866986964+881032974+885888208
843+882113244+874401120+868996365+870178465+877862881+888489495+897946096
833+903801498+905860529+905469410+904221417+902865423+901187226+898822063
823+896002524+893466102+891896355+891563416+892190401+892965375+892834166
813+890846429+886201862+878379294+867899639+857017100+848886022+845372124
803+845866937+848554111+852353375+857188102+863042733+869630487+876694282
793+883871414+890215265+894326897+895419574+894556657+894670187+898756812
783+907701050+919937718+933053825+945332472+956021316+964945239+972152842
773+977671191+981496620+983442507+982081049+974340446+958687724+939501627
764+925376544+921032066+922602648+922212494+915000133+900325080+879509771
754+856095490+837100259+829994035+836257913+848341323+854240054+846122990
744+825391511+800599699+781505210+774188384+779365436+793701442+812496356
734+831867149+849652188+865192665+878620947+890330530+900714142+909885632
724+917581748+923597738+928291742+932367567+936146646+939225902+940711948
714+939646272+935241236+926280926+910207578+884498657+850932581+817971440
704+796521303+792014951+801216013+816565560+832062580+845129314+855010463
694+861247084+863936636+864427142+864775253+866431143+869688473+874263097
684+879970898+886646853+893715919+900272108+905355237+907621142+905183464
674+896925677+884025765+869311690+857093408+855586727+868633276+882697029
664+885524925+877651700+866170719+858782792+857110251+855325531+846332435
654+828568868+807501042+791791106+788099714+797891826+817224818+839590394
645+860019020+876958821+891046424+902973232+912712178+920272908+926334412
635+931730038+936675145+940822778+943802390+945418423+945587239+944397233
625+942082535+938779497+934715887+930954037+929490556+931928876+937903659
615+945181399+951362734+955137248+956404463+956078016+955655654+956389227
605+958620738+961696845+964453383+966181081+967283015+968635152+970414730
595+972033655+972950702+973155904+973159182+973602759+974639571+975893285
585+977087470+978196219+978790675+977633134+973077924+964231916+952814386
575+943834148+942183593+947995152+956575079+962207086+961727059+955319115
565+944562770+930765549+915751770+903152205+897069229+898945043+906620395
555+916839433+927838715+938788883+947876351+952933316+954120944+954117279
545+955052840+956829653+958705532+960685362+962652463+963607759+962587662
535+959434540+954374168+947899173+941444556+937340831+937598170+942656484
526+950738127+958742304+964594749+968009838+969575020+970411258+971893061
516+974491391+977340823+979270188+979610970+977978352+973845890+966909254
506+957749142+947199158+935507510+923863691+915906058+915179428+921782096
496+932407296+943056153+951567229+957843836+962928380+967885058+972473375
486+975198606+975402008+974606785+974569627+974689650+972367045+965686654
476+955351194+943756876+933389593+926780368+925973187+930883900+938727875
466+945189820+946966891+943513359+936946755+931332684+931102281+937632113
456+946810803+953803304+957808607+959475298+958454750+954801223+950488888
446+948405107+949907803+953386793+955437787+953679489+947815279+938683003
436+928799926+922689371+923133976+928184191+934076108+939421012+944772601
426+949012357+948779640+942557098+932620920+921137303+908903271+899158538
416+894554021+892534527+890514904+889152867+889896211+891155583+889270125
407+883176863+875888451+871384800+871451079+874960541+879081045+882872209
397+889812703+900781642+910837071+916848626+919741066+919626250+914379319
387+904856503+897928867+899889475+908040354+915642869+919694265+919528021
377+914196295+904502863+895446703
##END=
