##TITLE=X8592
##JCAMP-DX=5.0
##DATA TYPE=LINK
##BLOCKS=1


$$ === CHEMSPECTRA SPECTRUM ORIG ===
##TITLE=X8592
##JCAMP-DX=5.00
##DATA TYPE=INFRARED SPECTRUM
##DATA CLASS=XYDATA
##ORIGIN=ComPlat
##OWNER=
##XUNITS=1/CM
##YUNITS=TRANSMITTANCE
##XFACTOR=1
##YFACTOR=1.0738279e-009
##FIRSTX=3997.453
##LASTX=373.96442
##MAXX=3997.453
##MAXY=1.1530139269342616
##MINX=373.96442
##MINY=0.5400202194831253
##NPOINTS=2559
##XYDATA= (X++(Y..Y))
2559G52349533G52381783G52434403G52682296G53231757G53887069G54297041G54327848
2551G54132187G53922593G53825845G53824846G53774224G53599100G53409378G53282046
2543G53107144G52807408G52520272G52434292G52650824G53260065G54290492G55455466
2535G56188654G56163954G55621265G54961790G54347664G53938746G53966111G54308809
2527G54517459G54361984G54012570G53810414G54027834G54569801G54923823G54732325
2519G54284663G54048593G54165435G54646900G55386860G55871211G55490769G54463395
2511G53889733G54464006G55750262G56728179G56827592G56432107G56146025G56008535
2503G55699918G55193419G54947635G55292110G55953306G56465744G56854346G57539243
2495G58526319G59105864G58618127G57369670G56082137G54916552G54074848G54237982
2487G55644855G57415963G57919353G56511148G55142186G55693812G57192382G57485679
2479G56540067G56069481G55947644G55126256G54631025G55696088G57262098G57796794
2471G57457204G56969134G55994825G54859158G54916607G55911398G56149911G55093174
2463G54160550G54509299G56189598G58958272G61954857G62398577G57699491G52327608
2455G51106072G52791700G55347006G57731685G59180576G59245131G58491683G57836759
2447G57189829G56046058G54940309G54579182G54698355G54872424G55284617G56086078
2439G56808387G57273810G58183121G59561685G59676473G57665965G56000764G55955637
2431G55829137G54901065G54615428G55704192G57614899G59420310G59989698G59294976
2423G59161038G60103098G60065686G58126171G56710195G56912129G57198266G56780300
2415G56452256G56653856G56991115G57289519G57780920G58417248G58865021G59184406
2407G59615583G59700785G58727031G57238008G56659462G57395203G58766830G59886955
2399G60064410G59362028G58719038G58596257G58629228G58896160G59849432G61050653
2391G61362989G60688749G60358984G61129417G62426553G62962026G61576190G59392779
2383G59017831G60401058G61082958G59304467G57262820G57582206G59727040G61978558
2375G62819984G61595840G59223428G57406804G57022198G57905255G59287371G60181973
2367G60090553G59547087G59363638G59707002G60367532G61147845G61906122G62644250
2359G63307833G63319711G61981001G60016063G59026601G59468545G60823852G62131368
2351G62299720G61216673G60260348G60404610G61239487G62208523G63285741G64424406
2343G64959435G63837811G61140463G58892053G58478361G59516781G61198689G62990279
2335G64762219G66504908G67334178G65534928G62198975G61185145G62444370G62730008
2327G60908334G59680303G60547373G62324643G63714530G64488016G65122791G65778491
2319G65763671G64586430G63510599G64107962G66005292G67062917G65211546G61901959
2311G60308972G60737095G61914337G62817764G63101459G63002490G62901912G62968076
2303G63228680G63830262G64847256G65565734G64524928G62006034G60646286G61230217
2295G62827644G64595033G65650882G65162145G63798901G63250605G63749167G64451271
2287G65040252G65531598G65315788G63941497G62411289G62017690G62648025G63371943
2279G63675065G63806782G64176180G64744346G65135890G65200833G65333383G65880402
2271G66334225G65521051G63321820G61519740G61271847G62030846G62824036G63077202
2263G62799391G62426053G62399022G62824980G63572489G64517601G65371294G65328332
2255G63747723G61738936G60994813G61406340G61853724G61875926G61908675G62316039
2247G62873104G63193544G63171675G63078868G63272308G63712033G63964755G63826543
2239G63648255G63736678G63960647G64152811G64305621G64290135G63851077G63098239
2231G62613000G62798004G63416515G63968696G64330877G64680236G64965596G64956049
2223G64697443G64483798G64461262G64558565G64714095G64932847G65135835G65128675
2215G64803627G64390602G64404867G65118794G66083834G66432915G65908988G65180795
2207G64797411G64604081G64374838G64298405G64573330G65022546G65363745G65517221
2199G65547695G65532264G65520607G65508840G65479310G65501902G65675471G65936408
2191G66058578G65858088G65360193G64834323G64694113G65200112G66192627G67241926
2183G68028123G68451250G68560321G68574531G68734501G68980673G69027687G68807603
2175G68576751G68549997G68671723G68797112G68898079G68993329G68981506G68717016
2167G68253313G67888745G67895517G68223395G68548775G68672999G68779350G69147582
2159G69707034G70128552G70310225G70495617G70909475G71453885G71793309G71707273
2151G71351753G71110909G71183401G71406316G71494294G71423023G71495182G71949060
2143G72667928G73402115G74042274G74494098G74609330G74435594G74269740G74388635
2135G74899297G75702812G76435167G76699768G76534080G76381937G76520759G76832262
2127G77174850G77631614G78258396G78852817G79176255G79250134G79276888G79409827
2119G79723162G80243427G80854666G81285287G81327473G81075972G80920997G81234832
2111G82013091G82900976G83633332G84318673G85204005G86292713G87300882G87906016
2103G88002875G87807769G87740051G88100955G88851350G89718476G90408424G90722037
2095G90734582G90886226G91558801G92527393G93187978G93341509G93378588G93690869
2087G94247434G94785572G95192325G95592362G96113236G96673299G97084604G97341933
2079G97685408G98308637G99053870G99506028G99418994G98921598G98207948G97138612
2071G95249996G92073570G87360662G81072586G73266678G64047015G53606816G42219116
2063G30161562G17753816G05446371F93673456F82597038F72204518F62689726F54489055
2055F47875099F42751886F38917594F36311443F35006647F35213576F37226915F41084298
2047F46308367F52131353F57898943F63274489F68263654F72996266F77333504F80808112
2039F83032599F83978877F83812524F82679243F80787464F78592229F76712606F75593036
2031F75305844F75706547F76687073F78255470F80480068F83410933F86991559F91033501
2023F95303687F99624329G03824077G07623788G10661947G12648754G13441889G12991175
2015G11249985G08111026G03423319F97112595F89300138F80311661F70619802F60739221
2007F51088770F41940877F33469112F25775605F18931796F13063905F08338731F04842641
1999F02590068F01648785F02141796F04061218F07104206F10756991F14601441F18539641
1991F22702310F27181646F31827668F36244225F40059311F43294020F46391682F49782420
1983F53464124F57049801F60172997F62850085F65435199F68179006F70935746F73373600
1975F75327270F76856812F78123420F79297442F80492113F81744344F83070954F84491426
1967F86019470F87683894F89457333F91122534F92401408F93279413F94012657F94818670
1959F95744022F96739923F97617706F98066422F98007141F97836736F98070141F98835801
1951F99871556G00849473G01547026G01861582G01846484G01682018G01507338G01280427
1943G00809675F99904360F98545445F96966446F95527157F94462428F93832038F93702874
1935F94119618F94831936F95437403F95958333F96833341F98172385F99512150G00471916
1927G01141494G01725702G02302194G03009905G03999756G05093127G05838637G06005268
1919G05799005G05582696G05560104G05715301G05921953G06104403G06342471G06805453
1911G07584323G08648442G09917436G11260532G12498942G13523429G14311846G14790813
1903G14894722G14837772G15036153G15622415G16289494G16737156G17007751G17272684
1895G17548386G17770191G17967240G18229786G18597574G19029416G19411968G19629832
1887G19725748G19951327G20571004G21595435G22712230G23501813G23774184G23692700
1879G23569920G23630144G23950085G24456362G24962638G25362064G25752499G26257332
1871G26807903G27212047G27358141G27292310G27167808G27122182G27154376G27161481
1863G27124402G27183572G27473484G27929305G28309970G28416765G28270671G28057692
1855G27914318G27770500G27444121G26952387G26629671G26766273G27241410G27727538
1847G28049144G28114420G27807523G27233584G26771380G26684401G26962822G27577170
1839G28532718G29686703G30833249G31907304G32853360G33399324G33171746G31953818
1831G29706241G26474419G22489648G18315988G14643332G11852566G09918657G08771667
1823G08562628G09467277G11342904G13702715G16013404G17964742G19497893G20699002
1815G21701287G22615482G23490823G24286511G24837082G24959197G24702867G24359169
1807G24149410G24109944G24280572G24714690G25321323G25945329G26531258G27064621
1799G27517945G27940184G28433472G29030780G29689478G30326473G30820260G31080198
1791G31116833G30993663G30745271G30294334G29391351G27772720G25483180G22941306
1783G20669639G19074321G18395085G18616668G19420683G20426076G21509344G22763629
1775G24197811G25650422G26945393G27965662G28658552G29095334G29398567G29569084
1767G29592619G29676434G30075083G30721902G31328757G31762820G32067718G32241287
1759G32272094G32295850G32468476G32745510G32961487G33056403G33066172G32994791
1751G32878560G32875840G33112854G33499791G33808630G33894332G33822507G33810573
1743G33987084G34219380G34293648G34216882G34171644G34220101G34234311G34127350
1735G34002349G34041148G34333168G34833062G35398897G35875256G36245652G36678549
1727G37290288G37907689G38230460G38199488G38063385G38103461G38381494G38754388
1719G39077992G39335765G39555239G39704607G39768995G39843097G40044031G40360419
1711G40662986G40870026G41048092G41283329G41511017G41586729G41474605G41246695
1703G40968439G40709501G40590217G40716550G41092053G41608987G42093727G42396016
1695G42481164G42437424G42410226G42514135G42749538G43012918G43233002G43453974
1687G43710637G43905743G43925170G43812103G43703477G43645417G43587301G43501543
1679G43398412G43278018G43157291G43104670G43184100G43380594G43607561G43789068
1671G43928834G44088860G44305336G44556892G44790020G44926789G44892430G44698545
1663G44476185G44372832G44410465G44495835G44610956G44913190G45504169G46172304
1655G46574172G46633842G46542367G46409539G46164200G45791750G45457821G45331322
1647G45397264G45500284G45506612G45399983G45267211G45202713G45203212G45192721
1639G45158418G45166300G45242289G45361906G45534421G45745457G45867461G45802240
1631G45686842G45783368G46169695G46656766G47018614G47182859G47176364G47043814
1623G46897499G46900441G47110700G47426200G47710672G47899117G48000417G48065970
1615G48131357G48178815G48186753G48163107G48106490G48018290G47978159G48087229
1607G48319580G48542884G48687590G48779231G48802100G48700245G48579130G48716731
1599G49233443G49915620G50505323G50970303G51347082G51572273G51654367G51777370
1591G52032590G52253951G52307515G52345148G52573225G52952170G53324953G53663377
1583G53977378G54158996G54122195G53956563G53776722G53558969G53249797G52936073
1575G52827058G53081112G53604040G54025447G54035716G53759071G53579562G53604207
1567G53591940G53424643G53330781G53542872G53946850G54184141G54053534G53774002
1559G53777277G54209951G54785112G55186481G55406065G55594344G55783289
1552G55859888G55704192G55327523G54927820G54782059G55052210G55662895
1545G56312989G56692211G56807332G56952427G57238286G57462755G57574102
1538G57813002G58193057G58351639G58173074G58059619G58318335G58691784
1531G58759281G58503950G58229025G58109297G58081877G58102470G58235131
1524G58453494G58586877G58543804G58405037G58266548G58160419G58114293
1517G58138993G58231689G58452773G58801355G58974369G58604195G57825158
1510G57223410G57103016G57214474G57310556G57505273G57897428G58260386
1503G58327327G58138105G57976692G58073107G58391382G58723701G59021772
1496G59445010G59972491G60298093G60276723G60106983G59951620G59776385
1489G59633012G59691682G59917594G60013954G59750186G59189902G58584712
1482G58122286G57800236G57557283G57457760G57592308G57791577G57690999
1475G57209867G56744720G56714747G57096910G57542629G57759494G57680341
1468G57464476G57398145G57623947G57947329G58034030G57773870G57376109
1461G57167681G57367950G58015935G58998459G60061024G60873364G61278341
1454G61453853G61666555G61932155G62073142G62002981G61797939G61601113
1447G61584572G61901071G62524578G63136983G63314216G62928666G62292893
1440G61788448G61464733G61137188G60713339G60236480G59780382G59498852
1433G59597043G60064077G60596164G60918547G61016516G60966061G60760519
1426G60438969G60202677G60214222G60363757G60404888G60296039G60236369
1419G60365700G60636462G61012464G61555486G62225008G62846295G63366836
1412G63878497G64344809G64613350G64679070G64635331G64465480G64168797
1405G64027533G64441391G65286702G65672807G64859578G63269922G61904679
1398G61136355G60806257G60865926G61241540G61549214G61364210G60792547
1391G60482320G60829958G61604277G62303328G62604341G62582471G62438209
1384G62085464G61340009G60392399G59634954G59161094G58879120G58868462
1377G59257065G59877963G60299814G60243197G59864641G59520000G59238525
1370G58638443G57539632G56408461G55895745G56164675G56912295G57785638
1363G58552296G59076501G59335551G59384952G59265502G59027489G58775988
1356G58566228G58357745G58168856G58125561G58272931G58509500G58779652
1349G59191400G59879017G60791381G61636137G62085298G62099785G62033177
1342G62325808G63050226G63828208G64349471G64850808G65712883G66716388
1335G67267070G67247254G67036884G66858818G66648115G66349378G65982479
1328G65648273G65575281G65885786G66377242G66767787G67018511G67280225
1321G67644294G68018908G68263582G68494934G69120883G70421516G72146942
1314G73631080G74316088G74150567G73532000G72961558G72822014G73275393
1307G74153231G75075309G75766034G76064771G75769309G74900463G73970281
1300G73549208G73678039G73979718G74147625G74066752G73658556G72979320
1293G72451285G72540318G73042376G73182974G72695903G72213550G72261452
1286G72607592G72978321G73566581G74316310G74535007G73883746G73086504
1279G73038046G73754360G74705357G75584139G76340695G77025870G77709490
1272G78122016G77763221G76827600G76297344G76673624G77421577G78068785
1265G79038376G80909341G83337204G85078615G85122632G83753393G82123827
1258G81070643G80721450G80565033G79889682G78726318G77852365G77353082
1251G76203149G73985823G71820007G70842978G70825716G70885163G70710928
1244G70557618G70650981G71004114G71399211G71396713G70791968G70110734
1237G70163021G71088151G72316903G73407110G74394408G75380318G76254826
1230G76822216G76968809G76792964G76635103G76857629G77588097G78671865
1223G79714115G80238265G80057646G79437802G78734699G78124902G77843594
1216G78241300G79311081G80576356G81665342G82550285G83107739G83062557
1209G82572543G82239281G82315714G82509488G82681725G83065276G83651760
1202G83991683G83827050G83489958G83451492G83705657G83757445G83170462
1195G82148417G81523356G81894585G82818049G83268042G82928674G82531912
1188G82845303G83839428G84881012G85277163G84725093G83725695G83303844
1181G83857912G84792867G85571182G86421544G87646022G88863839G89504886
1174G89614179G89543685G89160745G88120771G86748257G85935250G86243646
1167G87449917G88821266G89655809G89765934G89577878G89611848G89719253
1160G89129938G87742993G86743927G87168165G88562382G89832098G90573890
1153G90698447G89940947G88666457G87969404G88501381G90005668G91930751
1146G93844622G95402917G96343978G96461985G95801566G95101072G95465196
1139G97180186G99285500H00603173H00730450G99841899G98263233G96639162
1132G95731406G95504605G95152693G94341463G93706910G93884809G94626600
1125G95198097G95292958G95106067G94869664G94723182G94674059G94491830
1118G93959021G93224446G92626750G92327291G92362538G92765960G93442310
1111G94182935G94827868G95138872G94715744G93501924G92056862G91001957
1104G90614243G90904654G91622356G92175425G92039655G91375629G90826001
1097G90645216G90505672G90215150G90114683G90466651G90855087G90603974
1090G89675347G88731012G88187046G87804882G87188481G86341615G85651778
1083G85403163G85512844G85721438G85846884G85861371G85902890G86213838
1076G86894684G87723177G88409184G88909743G89244116G89331483G89300844
1069G89516099G90046077G90574833G90863080G91031543G91379514G92032606
1062G92751029G93154119G93203742G93264022G93619043G94149243G94512423
1055G94611281G94692265G94955422G95361620G95733959G95927678G95938002
1048G95866010G95785858G95685668G95567106G95510878G95586977G95794073
1041G96077823G96275982G96186783G95949325G95986681G96397153G96909536
1034G97253899G97467378G97857201G98541100G99165217G99308979G99189529
1027G99291162G99447080G99270735G98994423G99110321G99606606H00098174
1020H00338740H00434211H00632592H00972626H01228456H01235395H01158685
1013H01260706H01581535H01948323H02112623H01909690H01460808H01146140
1006H01250715H01751774H02338535H02458318H01733290H00710079H00278792
999H00517860H00911791H01080864H01159517H01418511H01760599H01950155
992H02068384H02382441H02957712H03559571H03905323H04091437H04363475
985H04632849H04776445H04878022H04912159H04715831H04488865H04607205
978H04903111H05038880H05203069H05707126H06330077H06563983H06344898
971H06143464H06162947H06205742H06151457H06063867H05955962H05849500
964H06025623H06667836H07384205H07481564H07119549H07044116H07249712
957H07504155H07835364H08257048H08697993H09261941H10127513H11117641
950H11537105H10860590H09929798H09764332H10247685H10950566H11678425
943H12312479H12670053H12838238H13331693H14315327H15122339H15000446
936H14437442H14189604H14074261H14132044H14721636H15679293H16583386
929H17364754H18169934H18641464H18104603H17199233H17138953H17740534
922H18481660H19125760H19639585H20210749H20989730H21687227H21834487
915H21597140H21764326H22472481H23179025H23472989H23586111H24005631
908H24779950H25760920H26807387H27359346H26620496H25870601H26501101
901H27711480H28419191H28261441H28062671H28406147H29108584H29965663
894H30902561H31672494H31820808H31583961H31883031H32780519H33783858
887H34540303H35028096H35464379H35897775H36169258H36412655H36967112
880H37715731H38142688H38072583H38117988H38665006H39460084H40189498
873H40751670H41292249H41980088H42767173H43480823H44006416H44347505
866H44623373H44913784H45065428H44805213H43991596H42664486H41046910
859H39452979H37855608H35612138H31572915H24335285H13346124H00258754
852G87444200G74164499G55348283G28617699F99224015F68174898F30207427
845E86530647E51500757E33785572E27714471E26415059E27090187E29027204
838E32666334E40417179E52588133E66853355E82086614E97222959F11508774
831F24778705F36707151F47203523F56851975F65982273F74173896F81249557
824F87616564F93313051F98380202G03056308G07277981G10842178G14000120
817G17193254G20497457G23807877G27114966G30430825G33601590G36467512
810G39157034G41851773G44530748G47181860G49845515G52500956G55122815
803G57682229G59836166G60754969G60806923G61764302G63690551G65843379
796G67704463G68945537G69424061G69524694G69981570G70938228G71813735
789G71867965G71043358G70102408G69488504G69092575G68661343G67929043
782G66700846G64673797G61123700G55012689G45275482G31789740G17930161
775G08482699G04126477G03528892G06487732G12935169G20819507G27791981
768G33241407G36860389G37372216G34809860G32113955G30649855G30363385
761G31639817G34956953G39995129G45541248G50527803G54706681G58259276
754G61420827G64382775G67154114G69545398G71571337G73523841G75524969
747G77544136G79556420G81463964G83066220G84258837G85228150G86301039
740G87508754G88512260G89193050G90015437G91252848G92685420G94024020
733G95166681G96210151G97292754G98381906G99248199G99692808G99537889
726G98357095G95962092G93438591G92630358G94191761G97135670H00153347
719H02732188H04887070H06589183H07820099H08858130H10038980H11423039
712H12889859H14300062H15492346H15987355H14453316H09152871H00136529
705G89552122G79076953G69648419G63114447G61896686G67126916G77126614
698G87573697G95237729H00165503H03496516H05868151H07575759H08919465
691H10194287H11518955H12794277H13911516H14932672H15967872H16978150
684H17791656H18323688H18778843H19460631H20373772H21325657H22263775
677H23252350H24260074H25213568H26189209H27339808H28650876H29932526
670H31055870H32050106H32872049H33161572H32289118H29560742H24646733
663H18404505H13116327H11115754H12881311H16598650H19683491H20550506
656H18905953H14929786H08553509G99378307G87112214G71943177G54363316
649G34893342G14579999F96013563F83304471F80033128F86778302G00800516
642G17899189G34478429G48576798G59778106G68524463G75450146G81050550
635G85676367G89659028G93315255G96834879H00269190H03636226H06940429
628H10114691H13070645H15788808H18283723H20553170H22625124H24565361
621H26393363H28064725H29536152H30810864H31956966H33097462H34317721
614H35609806H36945353H38337017H39781191H41212375H42554305H43790106
607H44989662H46258434H47621790H48972989H50183646H51235220H52192877
600H53065665H53753226H54138720H54166030H53779370H52863065H51358556
593H49440356H47487796H45806609H44318253H42401440H38779350H31263021
586H16728647G92219885G57269148G15731097F74950213F42259541F21528066
579F12368684F11798741F16373270F23509211F31869409F41070033F51107365
572F61966751F73585747F85914451F98826531G12014146G25082422G37692434
565G49523743G60224158G69555556G77546356G84420028G90429461G95753387
558H00481725H04708505H08611736H12339788H15881781H19179490H22257392
551H25110381H27589810H29516003H30794434H31310812H30777393H28766163
544H24870981H18722115H09728808G96725031G77791751G50735287G14681854
537F72007581F28525352E91152468E64945479E51687926E50196738E57345224
530E69278221E82665216E95541994F07419928F18848258F30708930F43464481
523F56813287F70057020F82710050F94623675G05692044G15746750G24724848
516G32710708G39816786G46177688G52003782G57466641G62568706G67278671
509G71761448G76316328G81105501G86072407G91072895G95950657H00580915
502H04998305H09420579H14048118H18904343H23876356H28828997H33693271
495H38470400H43110316H47459821H51373654H54675026H56866153H56939311
488H53271539H43310973H23638954G91517171G47563302F97293825F49531696
481F12358526E89631862E80371069E80633782E85992843E93232360F00910768
474F08957297F17811837F27741986F38582167F49751059F60464185F70129622
467F78682872F86518031F94033416G01290196G08162425G14641278G20755785
460G26286695G30832028G34152827G36267299G37242441G37148302G36354889
453G35753307G36469344G39195944G43718352G49099227G54392513G59170141
446G63332089G66484981G67371922G63512153G51945112G32195994G09365921
439F92612945F88697224F97124529G11946483G27178133G39918419G49875433
432G57727023G64056618G69106784G73096606G76473356G79601214G82396199
425G84616522G86397011G88156906G90082988G92023891G93825750G95517983
418G97195229G98881023H00512420H02032915H03488412H04961560H06426215
411H07771975H08936339H09926134H10810023H11723219H12737549H13733284
404H14556392H15232853H15892050H16584330H17275055H17902669H18419714
397H18896017H19550885H20537850H21713759H22747294H23462221H23985260
390H24518513H25069695H25513582H25847454H26242551H26872830H27791355
383H28922970H30103098H31176264H32082800H32832362H33468635H34080430
376H34733966H35382951H35942181H36417651H36904445H37523455H38350172
369H39338525H40360014H41311288H42085274H42458612H41907430H39181829
362H32361332H20432221H05248196G91172474G82240724G79811196G82706759
355G88828759G96400706H04289762H11825407H18591896H24415493H29390392
348H33653639H37079124H39432553H40937173H42373020H44326246H46520370
341H48190178H49024499H49459949H50081069H51019688H52041233H52960646
334H53754114H54424802H55032878H55779443H56844339H58160292H59461091
327H60518494H61267612H61746247H62031218H62270285H62633910H63177653
320H63926883H65057110H66653594H68356262H69666997H70493215H70987113
313H71090411H70651575H69746427H68531830H66992018H65102182H63131472
306H61528882H60490852H59844754H59410358H59249833H59516265H60291194
299H61527051H62900342H63841236H63912618H63040219H61310741H58777637
292H55498135H51558269H46956042H41439564H34430012H25109271H12585794
285G96085261G75221902G50115444G21110085F88528373F52946302F15647464
278E78770145E45366934E19386245E04670586E02892707E12293099E28665411
271E47783695E67305236E86850477F06755513F27040326F47253479F66734555
264F84870703G01303240G16079013G29572803G42060312G53359533G63053057
257G70959598G77243456G82249050G86251361G89117505G90304682G89442386
250G86821970G83319219G80185311G78925975G80832686G86071575G93286336
243H00568038H06869824H12276788H17200399H21816391H26204862H30431198
236H34301236H37426041H39711252H41585769H43632412H46151528H49137955
229H52379324H55392395H57632256H59098077H60419803H62115810H64091627
222H65964478H67531210H68873140H70270633H71958092H73844931H75604327
215H77017694H78085976H78951825H79919196H81384684H83496436H85563617
208H86320451H86105584H86229697H87075397H88288996H89383532H90213746
201H90991340H91859631H92617908H92985917H93014170H93032654H93326562
194H94039379H95189478H96632763H98177792H99737142I01240263I02551165
187I03604571I04405477I04811342I04613461I03987179I03657747I04402480
180I06355927I08861666I11041137I12539873I13753638I15352176I17508001
173I19516178I20378863I19921043I19046202I18796755I19492809I20838125
166I22470910I24106027I25468494I26533779I27599785I28788794I29822051
159I30564897I31359698I32534442I33812205I34315649I33231162I30426797
152I25978434I19121414I07925879H89613830H61311629H21894933G73494644
145G20506449F68755110F26293039F01117309E96189590F08128360F29679336
138F52967617F72639968F87456094F99502492G12186605G28105095G47644397
131G69086247G89625114H06112491H15689728H16995690H11425315H03354974
124G98630909H01433776H11619699H25384529H38715018H49624582H57607167
117H62681368H65528806H67581833H70114437H73362467H76963631H81029663
110H86085491H91921354H97197710I00749584I02817875I04518323I06729709
103I09392643I11575888I12709002I13384519I14367543I15603677I16695160
96I17743627I19092550I20630697I22007873I23252223I24801359I27106830
89I30291638I34040338I37852206I41405189I44374909I46174103I46722842
82I46995047I47933333I49259718I49512498I47008036I40595567I29006547
75I10200765H83222344H49995922H13356671G75908298G43105170G22568967
68G18245439G28913938G50174115G77000170H06027177H34931126H61351927
61H83761203I01509249I14090065I22247607I28414068I34808440I41446041
54I46495043I48624502I48382715I47676114I48373501I51191240I55486018
47I60238058I64869204I68894328I71571305I72540894I72553219I73124605
40I75409146I79494887I84722394I90187142I95315850A000432569A005438385
33A007709609A005392759A001969328I99779144I98000709I97349727A000803132
26A009072853A018366895A024078868A024898147A022625924A019766108A018442606
19A020016887A023242493A024366392A023367938A024007597A027980545A033699066
12A038268490A039864751A038978420A037755830A037980299A039858424A043368001
5A049162790A057846036A068144305A073741823A070159976
##END=


$$ === CHEMSPECTRA PEAK TABLE EDIT ===
##TITLE=X8592
##JCAMP-DX=5.00
##DATA TYPE=INFRAREDPEAKTABLE
##DATA CLASS=PEAKTABLE
##$CSTHRESHOLD=0.93
##MAXX=3997.453
##MAXY=1.1530139269342616
##MINX=373.96442
##MINY=0.5400202194831253
##$CSSOLVENTNAME=- - -
##$CSSOLVENTVALUE=0
##$CSSOLVENTX=0
##NPOINTS=21
##PEAKTABLE= (XY..XY)
468.8720567709438, 0.771271991445948
549.6143746208259, 0.8626649846849745
572.2788848944483, 0.6402050154315609
722.4312654574155, 0.8364324439897025
760.6776265441749, 0.5400202194831253
879.66630548087, 0.8399919139473996
992.9888568491006, 0.7395422937837496
1051.066664425332, 0.6232186462450251
1126.1428547068022, 0.5908166077533902
1191.3033217435495, 0.6569665572706739
1286.210958514464, 0.7302385457706712
1366.9532763643688, 0.8194535840816712
1453.3617217826636, 0.7845921994299545
1467.5270407036955, 0.7554689526856868
1563.8512093666927, 0.5652791773343461
2895.391187943715, 0.7714326854958715
2956.3020593041524, 0.7610987907541092
3114.953631219703, 0.7449175004113846
3202.7786085301013, 0.6460672513341015
3249.524160969507, 0.7251622563202476
3277.8547988115715, 0.6818878542340513
##END=


$$ === CHEMSPECTRA PEAK TABLE AUTO ===
##TITLE=X8592
##JCAMP-DX=5.00
##DATA TYPE=INFRAREDPEAKTABLE
##DATA CLASS=PEAKTABLE
##$CSTHRESHOLD=0.93
##MAXX=3997.453
##MAXY=1.1530139269342616
##MINX=373.96442
##MINY=0.5400202194831253
##NPOINTS=182
##PEAKTABLE= (XY..XY)
3970.5388940500393, 0.8079849356663468
3956.373575129007, 0.8096004603458133
3947.8743837763877, 0.8094626538637506
3939.3751924237686, 0.8097184171191447
3929.459469179046, 0.8095478288189507
3915.2941502580143, 0.8106838335020164
3898.2957675527755, 0.8097466104706592
3889.7965762001563, 0.8108927477937894
3878.4643210633308, 0.8103438488505975
3868.5485978186084, 0.8105888244309082
3861.465938358092, 0.809838639669345
3850.1336832212664, 0.8065586559730088
3834.5518324081313, 0.8102881783907777
3813.3038540265834, 0.8103271003568412
3804.8046626739642, 0.8152083031973602
3799.138535105551, 0.8125765196054404
3793.472407537138, 0.8122995375107424
3776.4740248319, 0.8125220410945898
3766.5583015871775, 0.8146018256021703
3756.642578342455, 0.8164946910348536
3748.1433869898356, 0.8150545235252848
3742.477259421423, 0.813169943748678
3731.1450042845972, 0.8129115571317241
3722.645812931978, 0.8154258607299002
3708.480494010946, 0.8150639409959679
3699.981302658327, 0.8163887729461091
3685.8159837372946, 0.8144752255880718
3673.067196708366, 0.8173818457665455
3667.401069139953, 0.8157659044418537
3654.6522821110243, 0.8198789831519121
3646.153090758405, 0.8164409867539187
3637.6538994057855, 0.8192253580689448
3626.32164426896, 0.8168032039381794
3616.4059210242376, 0.8195997943408795
3605.073665887412, 0.818275855815551
3583.825687505864, 0.8174749487931313
3575.3264961532445, 0.8186853407563137
3563.994241016419, 0.8171774619546827
3551.2454539874902, 0.8194153783588172
3544.1627945269743, 0.8200268020053144
3532.8305393901483, 0.8189151163027
3518.6652204691163, 0.8208998316048097
3508.749497224394, 0.8208239549253957
3494.584178303362, 0.8207249512144995
3481.8353912744333, 0.821993039950749
3470.5031361376073, 0.8211498735051527
3452.0882215402657, 0.8252904293235163
3440.75596640344, 0.8245803584769855
3418.0914561297886, 0.828040408078561
3412.425328561376, 0.8283755647997416
3399.676541532447, 0.8314324489377459
3389.7608182877248, 0.8337005850066422
3365.6797761219705, 0.8385747542744163
3348.6813934167317, 0.8458972447112229
3277.8547988115715, 0.6818878542340513
3249.524160969507, 0.7251622563202476
3202.7786085301013, 0.6460672513341015
3140.4512052775603, 0.7493565567617344
3114.953631219703, 0.7449175004113846
3088.0395252697417, 0.7576501248021016
3066.791546888194, 0.7676127435474388
3034.2113133698203, 0.776989567696768
3015.7963987724784, 0.7808040857404778
3011.546803096169, 0.7808064696384157
2994.5484203909305, 0.7802752136876209
2981.7996333620013, 0.7803339842885879
2954.8855274120406, 0.7608743188437211
2930.8044852462863, 0.7775694605346376
2895.391187943706, 0.7714326854958715
2851.4786992885065, 0.786982524227936
2842.9795079358873, 0.7879862666023867
2835.8968484753714, 0.7883739947160676
2830.2307209069586, 0.788192201021737
2813.2323382017203, 0.7925530547814414
2782.0686365754495, 0.7952664374816543
2770.7363814386235, 0.7972208139241054
2746.6553392728692, 0.7979665272662929
2726.8238927834245, 0.7993283150036128
2706.99244629398, 0.8003575683074837
2698.4932549413606, 0.8002194643750926
2694.2436592650506, 0.8001718991682621
2682.911404128225, 0.8007393356024918
2671.5791489913995, 0.802039372866422
2651.7477025019543, 0.8031998157248361
2640.415447365129, 0.8038451551517269
2603.5856181704457, 0.8084066987553181
2595.0864268178266, 0.8092147585453797
2589.420299249414, 0.8089476105665898
2582.3376397888974, 0.8094235536422557
2565.339257083659, 0.810506033373646
2545.507810594214, 0.8140255687455701
2535.5920873494915, 0.8140494700069683
2522.843300320563, 0.8140842792121746
2510.094513291634, 0.8129983417549463
2498.7622581548085, 0.8139365194193068
2481.76387544957, 0.8157151220466348
2467.5985565285378, 0.813379275759504
2459.0993651759186, 0.8125814076700413
2450.600173823299, 0.8133152595092454
2442.10098247068, 0.8130677808360999
2422.269535981235, 0.8178107616231588
2403.8546213838936, 0.8155710572955708
2391.105834354965, 0.8163268442172883
2384.023174894449, 0.8163630236268951
2362.7751965129005, 0.8204340813035707
2351.442941376075, 0.8169749852611703
2342.943750023456, 0.816627132672728
2324.528835426114, 0.8148941269256897
2308.9469846129787, 0.8117019404722855
2289.115538123534, 0.8140963791049519
2274.950219202502, 0.8182924861882382
2252.2857089288505, 0.8220960962881398
2226.7881348709925, 0.8298778403673905
2214.0393478420638, 0.8306587215733031
2204.1236245973414, 0.8294797412238515
2197.0409651368254, 0.829224454748045
2184.2921781078967, 0.8301098215562833
2170.1268591868647, 0.8336097466830976
2138.963157560594, 0.8277341598782764
2134.7135618842844, 0.8274462687659422
2126.2143705316653, 0.8269663922586785
2110.6325197185297, 0.8339724417207737
2096.4672007974978, 0.8352701530734725
2083.718413768569, 0.8399903644137399
2070.9696267396403, 0.8412920704062268
2063.8869672791243, 0.8392215841744324
2056.8043078186083, 0.8403045997459447
2046.8885845738857, 0.8411335218644476
2028.473669976544, 0.8439591990434749
2019.9744786239248, 0.8478707546191961
2012.8918191634086, 0.8448275789681633
2001.559564026583, 0.8461435303615715
1988.8107769976543, 0.8538017144335087
1970.3958624003126, 0.8523046243807889
1951.9809478029708, 0.8508231510072188
1936.3990969898355, 0.8489836322707797
1922.2337780688035, 0.8484471908050557
1906.6519272556684, 0.8433878291776477
1888.2370126583264, 0.8475732677807476
1851.4071834636434, 0.8542417755498961
1842.9079921110242, 0.8547125921711675
1828.7426731899918, 0.8581920136280591
1823.076545621579, 0.8579825033618017
1808.911226700547, 0.8603065482803115
1798.9955034558247, 0.8602930771093059
1789.0797802111024, 0.8593616946278968
1760.749142369038, 0.8638825884763335
1748.0003553401093, 0.8656593430458456
1739.5011639874901, 0.8653436763010499
1731.001972634871, 0.8666264882916364
1714.0035899296322, 0.8695475321264627
1695.5886753322907, 0.8741756541336818
1681.4233564112587, 0.8774666059081887
1668.6745693823295, 0.882253931492206
1651.6761866770912, 0.8868428931435679
1644.5935272165752, 0.8891967990683208
1634.6778039718529, 0.8929780585143119
1616.262889374511, 0.8999457218504656
1563.8512093666927, 0.5652791773343461
1467.5270407036746, 0.7554689526856868
1451.945189890539, 0.7842845799514415
1396.700446098514, 0.8511485928073882
1365.5367444722438, 0.8181459183443394
1308.8754687881155, 0.8709987267747366
1286.210958514464, 0.7302385457706712
1191.3033217435495, 0.6569665572706739
1126.1428547068022, 0.5908166077533902
1051.066664425332, 0.6232186462450251
1014.2368352306485, 0.7900724285738653
992.9888568491006, 0.7395422937837496
878.2497735887409, 0.8373830189971684
800.3405195230648, 0.9226864437457407
760.6776265441749, 0.5400202194831253
722.4312654573882, 0.8364324439897025
665.76998977326, 0.9515248984449935
630.3566924706797, 0.9703729007797413
611.9417778733382, 0.9866295899484645
572.2788848944483, 0.6402050154315609
548.197842728694, 0.857592151886561
468.8720567709147, 0.771271991445948
444.79101460515994, 1.0176410513767806
412.2107810867865, 1.0709819629099833
##END=

##END=

