##TITLE=X7354
##JCAMP-DX=4.24
##DATA TYPE=INFRARED SPECTRUM
##DATE=26/10/2018
##SAMPLING PROCEDURE=Diamant-ATR
##ORIGIN=ComPlat
##XUNITS=1/CM
##YUNITS=TRANSMITTANCE
##RESOLUTION=4
##FIRSTX=3997.453
##LASTX=373.96442
##DELTAX=-1.4165319
##MAXY=0.88621002
##MINY=0.20770261
##XFACTOR=1
##YFACTOR=8.253474e-010
##NPOINTS=2559
##FIRSTY=0.88601649
##XYDATA=(X++(Y..Y))
3997+1073507332+1073268147+1072191021+1070986720+1070197381+1070041969
3989+1070614293+1071762771+1073001881+1073741823+1073577167+1072663758
3980+1071829644+1071662099+1071606275+1070787110+1069397210+1068293796
3972+1067685001+1067274444+1067195077+1067757652+1068463724+1068146978
3963+1066497093+1064924410+1065041113+1066661244+1068484234+1069902516
3955+1070722548+1070000732+1066669621+1061327754+1056774938+1055648920
3946+1056949993+1057128876+1055252878+1054616713+1057919226+1063354254
3938+1067360166+1067830231+1064106545+1056927172+1049613692+1046952471
3929+1050094083+1054751182+1056213084+1054255264+1052555116+1052993116
3921+1053085194+1050519373+1047366206+1048287559+1054499432+1062172990
3912+1067344784+1069032149+1067471743+1061710725+1050581119+1035887140
3904+1023374422+1018146442+1020113795+1027210912+1037966935+1048889276
3895+1054831272+1052817555+1045290816+1040240419+1042161336+1045382532
3887+1043413807+1037474050+1033349339+1031783227+1030932576+1034054978
3878+1042746516+1050057902+1049514392+1042222360+1033506268+1026500940
3870+1023366911+1026188888+1031009849+1031502012+1028299665+1028839636
3861+1036180993+1044563367+1047809623+1043547843+1030861803+1011410197
3853+999240802+1008708896+1028646815+1044894557+1052967696+1052970801
3844+1046799009+1037040672+1025825777+1014956300+1008180552+1010102480
3836+1019221185+1028726255+1035121849+1039628447+1043533977+1045680719
3827+1045173101+1043416840+1040734893+1033999731+1022725835+1015601564
3819+1018696668+1025778908+1032597842+1041749190+1052937653+1060880872
3810+1061720980+1055286532+1045558093+1038906270+1035932564+1030831038
3802+1022592232+1019036958+1023784762+1031362632+1039211679+1048663452
3793+1058432621+1065173994+1067864896+1067726743+1065521577+1061541808
3785+1057888534+1056969347+1057378316+1055806860+1053001349+1053486363
3776+1058149600+1062877545+1063699310+1059378672+1052110905+1046800164
3768+1046010609+1047519308+1049260619+1050682729+1049596432+1043669457
3759+1035396060+1031224913+1032374907+1032766037+1026253956+1011246263
3751+994836825+989430324+994274828+999354472+1001822582+1006798306+1016435028
3741+1024663434+1025984367+1018141892+1002696055+988894324+989450328+1005021102
3731+1023900961+1036125024+1038746164+1034034901+1027598215+1024860661
3723+1027089081+1032636768+1039848999+1046930950+1051238733+1049909134
3714+1041165383+1027051455+1017059350+1021131847+1035441196+1049388300
3706+1057158847+1057635050+1053074000+1049140016+1050253973+1054584432
3697+1057896622+1057890845+1053548109+1043966200+1029861516+1017052634
3689+1015423692+1026533583+1041241933+1052313765+1057125410+1055057169
3680+1047059931+1034634019+1018824277+1005001603+1003200928+1010448186
3672+1014697688+1014708377+1020144271+1033952284+1047969151+1056595188
3663+1060004655+1060387553+1058742074+1054334342+1047383250+1041379364
3655+1038450071+1033704072+1020082453+997222463+979955946+986256864+1008843798
3645+1030590264+1044485517+1051289430+1054463540+1056491844+1057326464
3636+1055963572+1052390893+1047045271+1038716194+1025751177+1013422397
3628+1014559319+1028460494+1041857444+1047568993+1044515270+1034668611
3619+1024332100+1020634990+1022226811+1023195177+1022731035+1023597719
3611+1025578576+1026777750+1029323422+1036395191+1045115616+1049502549
3602+1047500820+1042388388+1038625199+1037097941+1036351355+1036743496
3594+1039842355+1043794899+1043179966+1034695043+1023018172+1019668068
3585+1028213076+1040028533+1048071628+1051654273+1052912449+1053787582
3577+1054999972+1056210412+1056552796+1054659322+1048166306+1034695548
3568+1016376821+1004286793+1008562077+1023505713+1037505031+1046124929
3560+1051021863+1054282346+1055493435+1053386775+1048773511+1044871520
3551+1043819453+1043380298+1039839539+1033771090+1030668548+1034542447
3543+1043078067+1051099353+1055241035+1055191710+1053344311+1052884717
3534+1054607036+1056198713+1055073057+1050966184+1045832159+1041727236
3526+1039380018+1039139100+1041776561+1047035088+1052747215+1056709436
3517+1058485268+1058797176+1057987833+1055757102+1052332036+1049494677
3509+1049331537+1051185797+1051634269+1048780950+1045212965+1045028738
3500+1048525299+1052477121+1054551067+1055178350+1055833581+1056758544
3492+1056914534+1055746125+1054186007+1053499362+1053430394+1052413281
3483+1049968641+1048043030+1049040067+1052742665+1056459563+1058004587
3475+1057539289+1056706403+1056567817+1056786926+1056634402+1056116457
3466+1055690806+1055382654+1054962925+1054681709+1054977657+1055741142
3458+1056508238+1056998162+1057091901+1056697159+1055706622+1053881177
3449+1051280691+1049073865+1048838218+1050440511+1052048798+1052669148
3441+1053016442+1053695144+1054131700+1053828241+1053295419+1053100937
3432+1053035075+1052800078+1052673770+1052927326+1053166077+1052659254
3424+1051127734+1049246826+1048405924+1049447952+1051614626+1053364026
3415+1053960399+1053694711+1053070028+1052446501+1052135604+1052281989
3407+1052714934+1053123975+1053327195+1053271660+1052821166+1051840956
3398+1050644598+1049860531+1049585599+1049318827+1048957739+1048964310
3390+1049369668+1049606542+1049523492+1049768093+1050961634+1052845431
3381+1054380273+1054678820+1053857200+1052876629+1052543128+1052808167
3373+1053030597+1052720928+1051947405+1051113146+1050519590+1050192949
3364+1049992040+1049865514+1050017894+1050602134+1051267909+1051487595
3356+1051316945+1051267692+1051517999+1051838717+1052087435+1052255918
3347+1052320192+1052331675+1052278017+1051807014+1050635282+1049176053
3339+1048219819+1048044908+1048263799+1048472725+1048700716+1049125934
3330+1049571228+1049589426+1049139510+1048871872+1049466440+1050856629
3322+1052280906+1052974628+1052765197+1052119933+1051613470+1051326477
3313+1050837708+1049835616+1048694794+1048359849+1049440080+1051370963
3305+1052807228+1052904433+1051916279+1050686051+1049955425+1049947987
3296+1050240107+1050275350+1050107516+1050234547+1050755452+1051210568
3288+1051185003+1050656731+1049931521+1049506376+1049746500+1050497274
3279+1051213240+1051477918+1051205657+1050528978+1049815034+1049567111
3271+1049968786+1050724182+1051443687+1051823696+1051529914+1050533022
3262+1049500238+1049202556+1049597948+1049968064+1049818573+1049335726
3254+1049082603+1049341937+1049730179+1049637162+1048979548+1048206675
3245+1047743110+1047770986+1048243939+1048806804+1049049022+1048977310
3237+1048858439+1048664246+1048144929+1047329881+1046537942+1046074088
3228+1046176854+1046935934+1047958969+1048477275+1048164283+1047590009
3220+1047478216+1047758926+1047865663+1047687503+1047545378+1047453878
3211+1047188984+1046977748+1047315148+1048073361+1048468464+1048012843
3203+1047026567+1046094598+1045371555+1044725929+1044358630+1044680143
3194+1045461394+1045845592+1045590085+1045539100+1046328005+1047317820
3186+1047480093+1046749684+1045846530+1045286627+1045219176+1045733799
3177+1046612976+1047095462+1046582139+1045462116+1044705780+1044698920
3169+1044958831+1044990174+1044893980+1044959698+1045080157+1044876070
3160+1044243299+1043541849+1043201776+1043234563+1043248862+1042909078
3152+1042209578+1041367231+1040714239+1040622450+1041234495+1042230376
3143+1042964324+1042880913+1041968660+1040842281+1040094323+1039638268
3135+1039129567+1038757069+1038903093+1039292563+1039237894+1038466104
3126+1037178102+1035673953+1034287735+1033298931+1032659589+1032090730
3118+1031491468+1030963557+1030460561+1029687905+1028380332+1026565069
3109+1024615410+1023165568+1022749017+1023205649+1023548972+1022788087
3101+1020901256+1018762097+1017190425+1016352484+1015986846+1015889641
3092+1016014505+1016146952+1015834466+1014949006+1014058779+1013796268
3084+1014069756+1014324612+1014309807+1014178949+1014093010+1014036030
3075+1013826599+1013203505+1012101536+1010707664+1009056118+1006971989
3067+1004684207+1002955749+1002202736+1001904044+1001207866+999847647+998373179
3057+997697366+998331509+999870178+1001326953+1002022553+1002074333+1002183671
3047+1003076064+1004855362+1006714533+1007622165+1007436132+1006920137
3038+1006602452+1006243891+1005510304+1004511318+1003634018+1003369484
3030+1004155501+1005890458+1007852900+1009416701+1010524086+1011352712
3021+1012015308+1012661873+1013378778+1013925826+1013927198+1013389394
3013+1012879754+1013109984+1014265394+1015766221+1016845369+1017317817
3004+1017581194+1017956221+1018343957+1018544867+1018612246+1018729527
2996+1018922926+1019142034+1019553531+1020438341+1021732265+1022944293
2987+1023628050+1023731682+1023443751+1022961626+1022502538+1022311089
2979+1022523481+1023081651+1023763097+1024259521+1024376875+1024243417
2970+1024161955+1024228179+1024285953+1024214674+1024031169+1023818921
2962+1023730455+1023890056+1024210124+1024511922+1024792704+1025121511
2953+1025391533+1025454073+1025420564+1025608258+1026155451+1026748863
2945+1026884777+1026469959+1025948258+1025694847+1025577132+1025276418
2936+1024751757+1024205936+1023841453+1023834954+1024367053+1025425547
2928+1026623638+1027446919+1027714197+1027619953+1027395211+1027166498
2919+1027014913+1026923341+1026807865+1026730737+1026873583+1027279735
2911+1027832200+1028392176+1028784390+1028851769+1028694695+1028641616
2902+1028867801+1029258932+1029668117+1030034116+1030223615+1030099184
2894+1029840717+1029841728+1030126988+1030233437+1029886070+1029431315
2885+1029339816+1029584778+1029810964+1029885709+1029942616+1029987897
2877+1029800131+1029290852+1028785834+1028791106+1029447203+1030310493
2868+1030808867+1030819844+1030579576+1030225060+1029812408+1029578351
2860+1029717008+1030028628+1030157319+1030046754+1029914379+1029878559
2851+1029813636+1029599366+1029421494+1029600738+1030073403+1030334325
2843+1030040255+1029427849+1029028702+1029160788+1029741129+1030451245
2834+1031017070+1031370576+1031606655+1031837246+1032057799+1032156304
2826+1032123661+1032169809+1032469728+1032861437+1032972797+1032620158
2817+1031966805+1031315546+1030840282+1030541590+1030395060+1030464172
2809+1030844687+1031513567+1032253725+1032786403+1032942898+1032630413
2800+1031804532+1030690358+1029840356+1029676133+1030083224+1030608896
2792+1030889534+1030822588+1030539856+1030309915+1030377439+1030823383
2783+1031504251+1032091958+1032248815+1031819625+1030918349+1029956915
2775+1029485262+1029720908+1030303344+1030699024+1030689997+1030330786
2766+1029746545+1029146706+1028740626+1028520073+1028361339+1028299448
2758+1028435506+1028661259+1028751170+1028662486+1028528956+1028440850
2749+1028387915+1028322558+1028176173+1027922111+1027652884+1027473278
2741+1027371379+1027312233+1027322416+1027356719+1027245215+1026888027
2732+1026360044+1025801801+1025334625+1025077169+1025124400+1025460284
2724+1025886585+1026117898+1026077889+1026024448+1026213369+1026554814
2715+1026780711+1026799343+1026676429+1026417095+1025965663+1025375645
2707+1024847012+1024541025+1024406267+1024298230+1024225290+1024281620
2698+1024359326+1024208319+1023835676+1023578725+1023707201+1024131768
2690+1024583851+1024908613+1025051749+1024915185+1024466064+1023914249
2681+1023513296+1023231359+1022846872+1022309067+1021792855+1021463687
2673+1021364966+1021458560+1021612456+1021583063+1021214392+1020697602
2664+1020440291+1020569200+1020814234+1020996872+1021274910+1021672613
2656+1021755735+1021156401+1020189262+1019587906+1019710965+1020269785
2647+1020802101+1021123037+1021244073+1021166656+1020953758+1020797191
2639+1020871503+1021258445+1021999975+1023034782+1024100715+1024846795
2630+1025052687+1024770822+1024316717+1024000404+1023811916+1023540811
2622+1023212293+1023110250+1023315925+1023534456+1023508891+1023354345
2614+1023307115+1023351673+1023307693+1023167951+1023097323+1023150258
2605+1023239880+1023385182+1023720850+1024198064+1024536259+1024563269
2597+1024414933+1024332533+1024395146+1024432482+1024189398+1023710667
2588+1023422663+1023573453+1023834376+1023754142+1023309426+1022805058
2580+1022591005+1022913890+1023634622+1024192214+1024182032+1023760064
2571+1023296282+1022984302+1022904213+1023052187+1023183406+1022983508
2563+1022496472+1022097686+1021974627+1021950001+1021890132+1021909920
2554+1022065694+1022257576+1022507521+1022902768+1023265373+1023312170
2546+1023136537+1023206443+1023809244+1024584284+1024725036+1023795162
2537+1022226811+1020871864+1020288634+1020522547+1021192293+1021686334
2529+1021609495+1021137191+1020804124+1020963508+1021505646+1022086998
2520+1022586816+1023169324+1023853658+1024334627+1024316212+1023751470
2512+1022825062+1022005753+1021847452+1022396234+1023051681+1023266384
2503+1023144553+1023178062+1023568976+1024018242+1024220018+1024352465
2495+1024748651+1025199650+1025086702+1024246450+1023226376+1022571867
2486+1022282780+1022116390+1022027202+1022030812+1021942346+1021654631
2478+1021574397+1022357381+1024034202+1025600386+1025780786+1024331017
2469+1022384534+1021324741+1021495535+1022199441+1022689654+1022737534
2461+1022324377+1021414507+1020347780+1019897070+1020411621+1021357961
2452+1022166798+1022904068+1023597141+1023776024+1023349218+1023029149
2444+1023176906+1023053703+1021945884+1020428447+1019768739+1020339475
2435+1021239596+1021522039+1021286826+1021274044+1021787944+1022493150
2427+1023065186+1023495964+1023739482+1023563343+1022973180+1022368502
2418+1022007414+1021722443+1021439639+1021471270+1021985821+1022671744
2410+1023211932+1023662498+1024124041+1024412839+1024306101+1023882762
2401+1023369366+1022791553+1022050889+1021284371+1020828244+1020808168
2393+1021009655+1021137263+1021022871+1020613974+1019883349+1018818283
2384+1017572384+1016588491+1016374438+1017107736+1018572021+1020469611
2376+1022733490+1025483105+1028598863+1031475075+1033579930+1035192839
2367+1037077936+1039400456+1041355026+1041900703+1040742621+1038617833
2359+1036641381+1035399237+1034470807+1032587082+1028884845+1024458986
2350+1021647553+1021863990+1024907241+1029469446+1033830309+1036724503
2342+1037801629+1037487338+1036748985+1036329400+1035955963+1034896097
2333+1033136369+1031421273+1030249325+1029326167+1028050009+1026197554
2325+1024038535+1022040995+1020587976+1019811709+1019477846+1019097765
2316+1018319548+1017121240+1015604236+1013924960+1012481834+1011783562
2308+1012051778+1013084996+1014370470+1015350825+1015970524+1016846452
2299+1018364828+1019764623+1019849623+1018656732+1017677605+1018125643
2291+1019489474+1020264730+1019874899+1019210713+1019251661+1019920757
2282+1020585015+1021043019+1021597218+1022557279+1024052979+1025962919
2274+1027660755+1028199427+1027161804+1025150398+1023232008+1022089742
2265+1021764257+1022003875+1022744900+1024128229+1025927532+1027286957
2257+1027541163+1027069221+1026711238+1026518633+1025841737+1024673978
2248+1023975417+1024206369+1024496323+1024085621+1023662715+1024309640
2240+1026012532+1027941971+1029393257+1030145476+1030564266+1030936476
2231+1030409792+1028023288+1024937861+1023462166+1023824843+1024187953
2223+1023727927+1023477548+1024266165+1025739333+1027303711+1028653315
2214+1029440993+1029362059+1028668336+1028127281+1028324075+1029345593
2206+1031063868+1032980813+1033902671+1033000095+1031407262+1031332156
2197+1033191038+1034925706+1034580939+1032447196+1030137748+1028434929
2189+1026838774+1024988630+1023667770+1023797906+1024871566+1025353763
2180+1024664734+1023934903+1024474585+1026063229+1027284068+1027194952
2172+1025984656+1024531421+1024169321+1025732039+1027660033+1026832997
2163+1022902118+1019336950+1018673847+1019886093+1021929058+1025637000
2155+1030374261+1033076934+1031583473+1026850257+1021950218+1019850417
2146+1021302281+1023915693+1024268548+1021721865+1019024536+1018840815
2138+1021107077+1023863263+1025228104+1024402801+1021944946+1019313407
2129+1017644963+1017044256+1017014719+1017116185+1017134239+1016939685
2121+1016356961+1015225238+1013669526+1012187114+1011412941+1011768613
2112+1013089618+1014560980+1015310166+1015050616+1014104204+1013178446
2104+1013038560+1013776480+1014689022+1015368879+1016143269+1016935858
2095+1016898593+1015778498+1014553109+1014259327+1014845229+1015393939
2087+1015311177+1015040000+1015267413+1015749538+1015598531+1014468614
2078+1012860544+1011673430+1011790423+1013312843+1015029312+1015513603
2070+1014676240+1013443485+1012372136+1011562143+1011425579+1012379863
2061+1013981073+1015314499+1016154535+1016994787+1018134454+1019410973
2053+1020596787+1021384103+1021265305+1020174241+1018925165+1018264734
2044+1018164713+1018602713+1019721581+1020695219+1020305316+1019232956
2036+1019341788+1020052627+1018771991+1015927627+1015319193+1018405992
2027+1022165209+1023400853+1022164776+1020087724+1017681794+1014515050
2019+1011317036+1010334443+1012409256+1015230510+1016468537+1016893755
2010+1018379849+1020443902+1021138563+1020222122+1018746137+1016668580
2002+1013433013+1010021307+1008330475+1008569444+1008700591+1006943391
1993+1004018938+1002274232+1002845906+1004849874+1007220490+1009471803
1985+1010705858+1009831880+1007200053+1004624627+1003375117+1003173991
1976+1003507781+1004741331+1007005498+1008712073+1007540270+1003509587
1968+1000248671+1001542739+1006795850+1012027152+1014605900+1014889571
1959+1013953630+1011654220+1007536442+1002757512+999927736+1000568090
1951+1003306511+1005218256+1004475498+1001197755+996842309+993913378+994715211
1941+998747194+1003190673+1006099384+1006991488+1005776860+1003067398
1932+1000555379+999754775+1000743940+1002124741+1001724439+998346964+993653684
1922+990882187+990860811+991787652+992857773+995031091+998052966+999711300
1912+998530108+995687405+994046909+995151261+997748930+999734265+1000477601
1902+1000722202+1001067619+1001230326+1000708697+999877689+999854868+1000575095
1892+1000034979+997167578+994345601+994686035+997627315+1000466768+1002112247
1883+1002852912+1002870244+1002555086+1002632937+1003085741+1003037500
1874+1001462000+997130385+989111410+979297249+973702115+976641662+984895850
1864+992592590+996861664+998072970+998146343+998743800+1000133123+1001479332
1854+1002135285+1002043785+1000774343+997366898+991565149+984271745+977425151
1844+974760537+979114033+987283654+993665672+996172057+996407776+996613668
1834+996543328+993854738+987618094+980983459+978341088+979232109+980662307
1824+982709750+986784775+991520591+994186794+994064602+992625665+991049804
1815+988665900+984592247+980109842+978107608+979695241+982944168+985060867
1805+984009956+979376544+973459536+970191760+970964850+973146400+973353954
1795+969882380+964117173+962034127+968323417+978549725+985604449+987194104
1785+985251233+982090700+978627647+976159682+976024923+976681093+974500770
1775+967381049+957203272+950446228+952107451+959463179+967769364+974314593
1765+976866837+974420031+969690425+967287455+967681186+968587084+969826628
1755+970908231+968228451+958771406+945431507+937112901+938462721+944784726
1745+950482915+953977238+955951668+957367279+959045472+960111838+957178935
1735+947996534+938175367+938243180+947309094+958662935+968825041+975323257
1725+976970108+975377420+972441628+966685232+954500744+936469226+924206959
1715+928933748+944103497+958686984+967783735+970356055+966920301+959741289
1706+953306480+950104928+946803137+939105097+929374564+925643440+930992528
1696+944102558+959713919+969840999+971299434+966548163+959777542+951463631
1686+939012659+927266820+929085188+941977410+954890502+963115297+965556182
1676+963295986+959719552+956228045+951295580+947490938+951874549+962831410
1666+970687029+970900793+966863826+965584852+968129296+968814208+962894095
1656+947628007+920925533+893191864+886419726+891771126+895235840+900256627
1646+916320286+938793912+955682730+963658446+963542176+955875695+942317988
1636+930994478+933199861+944104725+951459659+951614277+947113673+942404938
1626+939343560+937145472+937353964+942204823+948181266+949721741+946819819
1616+946809276+954040573+962199722+965302409+963103454+959120506+957194967
1606+958180666+960359833+962322420+964019462+965193216+964151476+959077320
1596+949904524+938145036+924769967+908473334+886255937+855444857+815522004
1587+769574684+725179393+693117359+682165481+692224532+715005443+744196754
1577+780839770+821941792+854551597+873670785+884715390+895792349+910243244
1567+923801023+932669928+936100627+932544847+918310099+895320840+887258029
1557+903890619+923024034+935842015+942839544+946196364+948995881+951286047
1547+948453816+936826197+918476922+899329352+887361517+895095087+918480244
1537+936667463+942600792+941710638+943817949+951014870+955502330+952522991
1527+944806247+937472834+930779920+923170708+918650389+920376246+923659982
1517+926561182+932327905+939311423+940198978+930008057+908082997+875143519
1507+836738320+806733334+781492545+747056356+703650735+664744419+651079613
1497+677507010+733245815+788082766+825081743+845949898+860641422+880281588
1487+906554872+931684085+949707081+959968775+965095000+967613301+967150314
1477+961695643+951027219+938784668+933469882+942614369+960135597+973604332
1468+977919337+975570891+973309468+974316760+973269026+963401929+942512976
1458+919261061+912657985+921827604+930944359+933741060+930487655+923943075
1448+918294428+915698926+913453462+906777302+892920253+871557046+841118032
1438+797761591+744977354+697429835+659559047+622457955+580759560+538690904
1428+502739878+472912438+446301537+423590026+407670550+399996558+402920759
1418+418866306+442198022+463542307+478068020+484984484+486584286+486876695
1408+489004516+495565633+509696459+531250140+554944388+576784195+597211425
1398+617421208+636991178+655328682+671384109+682717440+688395625+691771511
1388+700380432+720993008+751209304+781818463+806638295+824632477+837024591
1378+844782210+848488059+850612341+855746221+865377671+875352300+881626930
1368+883735180+881998129+875217542+863497702+852140322+848253424+852236155
1358+859139945+865790901+871975981+878132607+884233987+890426072+897418979
1349+905562024+913953353+920802908+924089460+922103475+915121185+907312796
1339+904426040+907229457+910688754+909796722+902397952+888461897+870046109
1329+852049761+841130886+841979227+853659853+869956920+884288006+894474305
1319+902581818+910843300+919082178+926303437+932776376+939239422+945227276
1309+949632047+952272613+953816481+954696309+955005617+955109683+955704684
1299+957343302+960021782+963115586+965761424+967335624+967541011+966400117
1289+964470606+962614179+961040196+958887099+955173523+949751206+942786970
1279+933617206+920932827+904451533+886214628+870138981+860282500+858976877
1269+865822099+878107259+892187677+904675047+912952561+915269808+910624481
1259+898552146+879283829+854440598+827162694+800618233+776075716+752796431
1249+729773013+707094578+685545411+665178519+644637221+622272933+598164915
1239+574909244+556123160+543905091+537564454+534534960+532099058+528198981
1230+521216762+509752897+493086076+471913957+448306046+424545502+402000020
1220+380994580+361191563+341890459+322494569+303157717+285015525+269713166
1210+258631387+252506049+251654765+256229735+266064551+280506184+298566444
1200+319146703+341187167+363757203+385866021+406089164+422842249+435717102
1190+446668836+459217048+475814035+496088741+517953319+539955724+562003735
1180+584290858+606311173+626923533+644941185+659465237+669643086+674246672
1170+671908770+662230234+646699035+628161127+609314560+592403463+580706371
1160+578837704+589411053+608989581+628504088+638361291+633433159+614264286
1150+584940131+550016328+512495507+473756229+434940726+398060151+365536429
1140+338952898+318659451+304543285+297061627+297796568+308979578+331704774
1130+364019245+400891985+436276464+465283872+484882874+493554335+490975407
1120+478017756+456856831+430976844+404712659+382171186+366268174+358870524
1111+361657656+376132563+402275567+437328747+476362492+514428809+548474012
1101+577587039+601950816+621954815+638208118+651713250+663406803+673584292
1091+682146632+689434620+696486745+704291956+712994832+721984484+730490062
1081+737897209+743940309+749050791+754230746+760203506+766845290+773558931
1071+779886352+785630616+790698056+795092933+799005757+802745692+806532280
1061+810335044+813850021+816693447+818794475+820507261+822113886+823442763
1051+824232030+824536427+824443844+823699714+821879396+818698858+813833123
1041+806268541+794205378+776685739+755731067+735636291+719223459+705673624
1031+693028603+682181947+677232655+681899359+696250232+716852987+739284149
1021+760222355+778054263+792614351+804566082+814665286+823340070+830736818
1011+836937208+842118535+846546849+850430064+853865962+856945250+859762316
1001+862310733+864528897+866481301+868352966+870219937+871953016+873430805
992+874732889+876017858+877293005+878327956+878675756+877856158+875706094
982+872518552+868837980+865262918+862286973+859972181+857789041+854879826
972+850218249+842133556+827511000+801786858+761077339+706292529+645991158
962+593912198+561522874+551458876+557440266+569914817+581696836+589789618
952+594671603+599291546+607595853+622187933+642627910+665811290+687842871
942+705759780+718188653+725114253+727364699+726185024+722930174+718702481
932+713771316+707074791+696433954+679465696+654582313+621812113+583184664
922+541954781+501035108+462352775+427510975+398328042+376581973+363580017
912+359926635+365520974+379860257+402245416+431398451+465033891+500256494
902+534547850+566400309+595200091+620669341+642364171+659599923+671779500
892+678663792+680214232+676127075+665590232+648057882+625095921+601244058
882+581557817+567591611+556679489+545485646+533463755+523114064+518276601
873+522120422+534992133+553219578+570820209+583354773+590243217+593573245
863+595492753+597033770+598474403+599538350+599015783+594862763+584971509
853+567856469+543424699+514066529+484492393+459193325+439783172+425090781
843+413325588+403771013+397074307+394496968+396672236+403029916+412635946
833+425375319+442048676+463418490+489228571+518014090+547772670+576797916
823+603970347+628577750+650122079+668152730+681895820+690163657+692621224
813+691723630+692196367+697100379+704922199+711497038+713737085+710849607
803+704279462+698328078+698785072+708415439+724355751+741042504+754728108
793+764479151+770289783+771241106+764901336+749236318+727210659+708777972
783+704720351+717309114+738681854+758030188+768699839+769670806+762826234
773+749485541+730018336+707693624+691099598+689241077+703746713+727796849
764+752560279+772951653+787945914+798301346+805209614+810003565+813949032
754+817842068+821594497+824416040+825869493+826585531+827433077+828260113
744+827962505+825557801+820975736+815381469+810980887+809663276+811173347
734+812891477+811515225+804435874+789996461+768635277+745165120+728276880
724+725273348+736834887+757060738+777828438+792703540+797370027+789050771
714+768922486+744329634+723745150+707869401+688960295+660597537+626181425
704+596763351+582174592+585300172+602854259+628939850+657842145+685295394
694+708923201+728147899+743179785+753670481+758493681+757529431+753941297
684+753110650+757720663+764804636+769076454+767883058+761238385+748909677
674+731053359+711665811+697898311+696945111+713575173+740516109+762310672
664+776175810+785403275+789644328+786174054+772769015+747692088+709570416
654+659847268+606111419+561213277+536124759+533684127+549812061+578825102
645+615384020+652759395+683412030+702364178+708491845+703353993+690543233
635+674874243+659673657+645474513+632559181+622746753+617455439+615826281
625+615380554+613238290+606957304+595598300+579954875+561346085+540718451
615+518830583+496488755+474790242+455695536+441780495+434694970+434456543
605+441031562+455756921+479823161+511467091+545620332+576519012+600153175
595+614743377+620416507+618548453+610760935+599064313+587026932+579217713
585+578371972+583725538+592664783+602467895+610219448+614107501+616393262
575+623057434+638397328+660725362+684110591+703077400+715785899+723491883
565+727522133+728090053+725993141+723713591+723778082+726319998+728578244
555+726900339+719667959+708734569+698294858+692255008+692185318+697414597
545+706429020+717453116+728424637+737905730+746053542+753823438+761354077
535+767834744+772678743+775978439+777748710+777366245+774098686+768032332
526+759851878+749000166+733029884+710444899+684623192+664629304+659182432
516+667524076+678970283+681730008+670060215+645243922+613074211+581122345
506+555727227+539308835+531106210+529356232+531727174+536216114+543112610
496+554890116+573825005+599976566+630643247+661290032+687641167+706525503
486+715250117+712353178+699052421+677987618+651073330+620837680+593175036
476+576323916+577535078+600451650+640454809+684557113+722163295+750794269
466+771855100+786789926+796325760+800523700+799489110+795332118+793146378
456+796602282+803527593+810087699+814969250+817921436+817876083+814284699
446+808497322+802405114+797061875+793201553+790882933+788832024+786326722
436+784781409+785872690+789068320+792543072+795089105+795814098+793503422
426+788047596+781858111+777520791+773943924+769196047+768918370+782711146
416+804643788+821636600+830303656+834058468+836428434+837840362+837671372
407+836515962+834495601+829879450+821031633+808591566+796740506+793157500
397+800875688+812309764+821223298+828218155+834904209+839620599+838528379
387+831768735+828699630+839411384+857907334+869448508+868632448+857527397
377+838507003+819549727+814798022
##END=
