##TITLE=JMB-209
##JCAMP-DX=4.24
##DATA TYPE=INFRARED SPECTRUM
##DATE=11/4/2019
##SAMPLING PROCEDURE=Diamant-ATR
##ORIGIN=Angelika Moesle
##XUNITS=1/CM
##YUNITS=TRANSMITTANCE
##RESOLUTION=4
##FIRSTX=3997.453
##LASTX=373.96442
##DELTAX=-1.4165319
##MAXY=0.92590863
##MINY=0.63573819
##XFACTOR=1
##YFACTOR=8.6231961e-010
##NPOINTS=2559
##FIRSTY=0.84770691
##XYDATA=(X++(Y..Y))
3997+983054205+983172402+983740787+984196711+984202517+983849445+983344514
3988+982833224+982463149+982396861+982734173+983404373+984100148+984438981
3978+984308687+983982780+983803341+983833133+983931423+984107751+984536787
3968+985164547+985581970+985516582+985243276+985282122+985769911+986273322
3958+986185123+985288067+984042985+983271315+983492088+984619871+986089735
3948+987055982+986899284+985890044+985009370+984862003+985012204+984756247
3938+984071117+983447574+983330068+983919327+985093352+986276985+986782538
3928+986505362+985989717+985792237+985869238+985758161+985357672+985164270
3918+985767285+987132845+988417948+988798391+988263876+987350577+986377626
3908+985328019+984395503+984129317+984784103+985862465+986807491+987552065
3898+987943015+987538863+986339332+985213969+985399836+986930250+987935481
3888+987331223+986426840+986750328+987589460+987540384+987239568+987663005
3878+987849909+986900459+985706527+985113121+984686435+984342626+985051741
3869+986503150+987147015+987044923+987461447+988520524+989169296+988867651
3859+987550268+985196412+982802534+983248505+988056582+992390625+992608564
3849+990379334+987818044+986036858+985474003+985765626+985965455+985785809
3839+986106808+987582548+989345210+990141971+989762841+988797769+987880599
3829+987364885+987353342+987380645+986630540+985465225+985739636+987843757
3819+989260744+989131625+989133491+989713903+989512069+988059554+985993726
3809+984258090+983999646+985145539+985843111+985639894+986330485+988373987
3799+989731667+989891130+989994466+990103540+989592111+988816156+988477461
3789+988494258+988503036+988673282+989164043+989408663+988918110+988267540
3779+988376060+989081512+989403548+988936980+988033081+987371175+987543909
3769+988271203+988581420+988449052+988627040+988951011+988703350+988200078
3759+988379586+989008313+988793484+987281248+985275279+984436492+986346797
3750+989588932+990757842+989800028+989602134+991658008+993174046+991964700
3740+989381983+987458337+987342974+988896889+990823576+991829498+991581560
3730+990574947+989708788+989826640+990958363+992134807+992676027+992902123
3720+993057507+992673400+991331341+989396844+987987599+988391267+990678352
3710+992911385+993527186+992747291+991207476+989552989+988697751+989175517
3700+990411199+991526540+992136189+992073427+991323392+990279937+989786273
3690+990784454+993087644+994852725+994914382+993846734+992654184+991887560
3680+991428802+990964100+991053819+992768304+994736602+994225035+992092228
3670+991391338+992933711+994306805+994229804+993601630+993151305+992558382
3660+991296435+989804728+989396705+990362606+990836294+989580844+988089345
3650+989036100+993133541+997247847+998687505+997933254+996253261+994424934
3640+992781160+991496126+990790674+990760952+990970666+990493176+988994558
3631+987932855+989760283+993815768+996054537+995290056+993014445+990665150
3621+989379149+989770582+990785974+990835119+990163260+990024880+990708627
3611+991593587+992495758+993606745+994558960+994743099+994174369+993391778
3601+992792704+992254041+991657317+991551354+992541171+994017118+994512787
3591+993661005+992739273+993188907+994658425+995412262+994996290+994319178
3581+994046840+994112505+994223238+994329961+994524123+994641214+994221579
3571+993121859+992045295+992090086+993294524+994171535+993939357+993447351
3561+993486267+993838094+993887516+993465392+992912698+992737683+993177778
3551+993749204+993650844+992837149+992133425+992245194+992992188+993732338
3541+994137044+994321805+994543477+994869867+995075158+994862610+994180866
3531+993329569+992796298+992827610+993177709+993504169+993777751+994036679
3521+994098819+993854752+993562162+993553936+993752245+993670475+993004768
3512+992160313+991960760+992685220+993660936+994123703+994092875+994080710
3502+994230634+994197939+993829246+993459378+993458065+993738836+993896916
3492+993783834+993700473+993944748+994400396+994743306+994867586+994847265
3482+994667135+994271346+993784110+993476106+993514745+993791230+993979170
3472+993836573+993487303+993309247+993499192+993860213+994082230+994056932
3462+993829592+993485022+993235011+993385349+994042831+994953919+995665108
3452+995832174+995488572+995061956+994995737+995317981+995656744+995672711
3442+995398922+995169439+995185268+995213953+994900557+994281645+993750794
3432+993594787+993721210+993819431+993764411+993814316+994245702+994891572
3422+995332773+995414474+995280241+995102184+995099903+995555136+996389292
3412+996930235+996560160+995567301+994915418+995077853+995533777+995580642
3403+995179047+994775102+994709783+995060504+995733054+996512673+997203195
3393+997722987+997972860+997779943+997139811+996384661+995950855+996008433
3383+996335999+996502858+996228999+995704092+995439496+995663449+996082946
3373+996366827+996513088+996618567+996712226+996920212+997337428+997695891
3363+997575344+996964588+996281877+995862380+995669117+995532602+995468942
3353+995615548+995972836+996422885+996919798+997430950+997773860+997726443
3343+997242041+996515991+995976776+996078177+996814664+997564008+997753815
3333+997525024+997408692+997567395+997731696+997686007+997463920+997220890
3323+997197389+997635065+998432171+999038711+998991432+998486777+998146286
3313+998262410+998569101+998719923+998629167+998330632+997927240+997673289
3303+997716697+997832959+997769851+997679441+997840701+998153751+998255636
3293+998075022+998059953+998707620+999827730+1000537468+1000248472+999387497
3284+998796095+998667875+998545254+998221628+998074676+998408117+998991777
3274+999492699+999897543+1000245983+1000369088+1000155227+999757019+999393372
3264+999144605+998999865+998990810+999225269+999759438+1000435445+1000910101
3254+1000880655+1000303077+999469406+998851530+998776603+999212689+999811210
3244+1000122049+999945582+999592165+999613040+1000167185+1000816027+1001078134
3234+1001003622+1000937887+1000863029+1000434684+999685893+999167898+999276488
3224+999881438+1000600368+1001051938+1001011363+1000646679+1000388166
3216+1000458393+1000757066+1001085461+1001215064+1000969338+1000474498
3207+1000119284+1000185433+1000673706+1001388558+1002049772+1002440515
3199+1002511917+1002259072+1001646242+1000908027+1000674051+1001321856
3190+1002348722+1002919111+1002898789+1002755432+1002652441+1002411553
3182+1002207369+1002489522+1003211701+1003757898+1003755271+1003549981
3173+1003665344+1004015236+1003977496+1003258082+1002326050+1001848906
3165+1001996273+1002449363+1002853238+1003108019+1003314208+1003531180
3156+1003638042+1003427636+1002852132+1002213452+1001999383+1002333170
3148+1002746239+1002777551+1002536801+1002344229+1002190089+1001965237
3139+1001867223+1002222368+1003108227+1004280109+1005272829+1005656867
3131+1005402985+1004879736+1004372317+1003804831+1003065441+1002375679
3122+1002134861+1002466228+1003064266+1003462612+1003403098+1003023277
3114+1002735525+1002850474+1003280961+1003637834+1003612536+1003232576
3105+1002791997+1002588158+1002686794+1002899964+1003025903+1003098342
3097+1003291191+1003556340+1003541479+1003013945+1002202738+1001529497
3088+1001137717+1000876024+1000612188+1000338675+1000011939+999466295+998556037
3078+997314757+995916986+994520183+993186280+991844636+990298393+988531514
3068+987034001+986415435+986626047+986997644+987037319+986697865+985986952
3058+984867602+983464232+981983792+980538466+979216729+978151915+977444252
3048+977116340+977115096+977361444+977933907+979117816+981018514+983169430
3038+984808019+985600080+985919490+986344171+987016445+987635771+987989050
3029+988272448+988814981+989650795+990503406+991109185+991405094+991423342
3019+991196209+990829451+990529742+990443755+990524004+990576813+990398065
3009+989885808+989099484+988259384+987696183+987701920+988305349+989255560
2999+990325695+991467994+992587828+993449079+993960439+994255172+994388921
2989+994305976+994140361+994153011+994328924+994393829+994226279+993956637
2979+993699782+993438780+993138172+992813025+992491058+992175381+991852239
2969+991539604+991271137+990958777+990378159+989458569+988466125+987720860
2959+987272332+987003795+986875368+986898040+987014993+987163535+987393432
2949+987824196+988490594+989276434+989997784+990492831+990652155+990510802
2939+990294107+990178882+990045063+989666347+989053587+988417118+987927325
2929+987677451+987719477+988030800+988560822+989284383+990100775+990774431
2919+991125221+991231530+991370118+991751391+992305398+992737752+992842263
2910+992748051+992789939+993107689+993456061+993512809+993286091+993034905
2900+992859820+992639738+992344521+992157894+992265585+992679552+993261761
2890+993847149+994376341+994902216+995429128+995840814+996052740+996136446
2880+996242755+996457307+996704416+996790057+996626862+996388117+996291485
2870+996338280+996474242+996838649+997556059+998409914+998982031+999054470
2860+998753724+998376529+998136678+998048756+998045300+998135572+998343765
2850+998608845+998865216+999096012+999232734+999144674+998734370+997910237
2840+996524078+994526957+992211186+990186693+989026077+988893641+989531561
2830+990600867+991938710+993479493+995088982+996583108+997817199+998702228
2820+999242964+999613800+1000049679+1000560554+1000912451+1001008391+1001114008
2810+1001544703+1002255270+1002859114+1003005789+1002714374+1002347685
2802+1002232045+1002363998+1002540672+1002656657+1002751146+1002876601
2793+1003038138+1003223521+1003442497+1003708683+1003971344+1004142212
2785+1004228614+1004333471+1004493072+1004624886+1004632490+1004503647
2776+1004336581+1004274925+1004339415+1004394436+1004371004+1004407085
2768+1004646106+1005012035+1005307735+1005451369+1005520353+1005600533
2759+1005681958+1005687073+1005558715+1005332412+1005159539+1005211242
2751+1005510745+1005886419+1006120325+1006107538+1005904667+1005685483
2742+1005616846+1005730274+1005914759+1006017749+1005951186+1005807275
2734+1005869622+1006321399+1006927386+1007244307+1007144634+1006883424
2725+1006689332+1006579844+1006534846+1006571273+1006661891+1006751541
2717+1006821146+1006849555+1006809741+1006747670+1006747878+1006800341
2708+1006819833+1006828542+1006975701+1007282876+1007497844+1007370591
2700+1007002037+1006727279+1006717188+1006874162+1007044339+1007158596
2691+1007209677+1007231588+1007274374+1007346261+1007415589+1007471992
2683+1007536275+1007624474+1007729815+1007814419+1007801217+1007620949
2674+1007305894+1007014617+1006931533+1007136270+1007548648+1007976785
2666+1008250920+1008367389+1008464228+1008634059+1008848128+1009047612
2657+1009167399+1009096481+1008812461+1008545722+1008590859+1008926650
2649+1009200301+1009158552+1008977108+1009043534+1009463515+1009951442
2640+1010197099+1010155765+1009964229+1009781957+1009750783+1009940659
2632+1010267119+1010528881+1010565861+1010403011+1010238019+1010237466
2623+1010368658+1010481671+1010486303+1010388980+1010252327+1010151133
2615+1010112287+1010116435+1010205739+1010488584+1010970774+1011456489
2606+1011682585+1011563281+1011288939+1011143024+1011240692+1011500727
2598+1011779769+1011951467+1011983539+1012004344+1012185926+1012575839
2589+1013135860+1013786706+1014297651+1014398913+1014129340+1013833916
2581+1013753804+1013842210+1013961445+1014039413+1014090356+1014201019
2572+1014393937+1014492987+1014298134+1013831082+1013243067+1012675927
2564+1012401446+1012751200+1013595033+1014249680+1014261293+1013940846
2555+1013818917+1013960200+1014124018+1014202747+1014165836+1013925847
2547+1013598281+1013580863+1014041556+1014608213+1014854146+1014831198
2538+1014856496+1015027157+1015157450+1014990453+1014388683+1013554113
2530+1013032385+1013200419+1013812488+1014364698+1014764565+1015242124
2521+1015751893+1015971768+1015877832+1015879146+1016320485+1017126923
2513+1017932878+1018378226+1018338067+1018013196+1017734016+1017596395
2504+1017389861+1016955502+1016500270+1016428660+1016913822+1017747771
2496+1018557941+1019036053+1019047666+1018746435+1018564370+1018866568
2487+1019550454+1020090291+1020016884+1019379863+1018736205+1018596857
2479+1018908594+1019237196+1019392028+1019539533+1019706737+1019596281
2470+1019028381+1018287539+1017864793+1017954029+1018263692+1018327975
2462+1018007252+1017608215+1017449927+1017515938+1017681691+1018005109
2453+1018512460+1018976540+1019228072+1019434399+1019761205+1020014051
2445+1019934354+1019654965+1019577688+1019867859+1020213327+1020107019
2436+1019389125+1018454329+1017820970+1017605726+1017598192+1017695653
2428+1017986516+1018467807+1018930574+1019169112+1019182176+1019116441
2419+1019043311+1018934307+1018865462+1019026376+1019414700+1019748694
2411+1019814774+1019722151+1019731897+1019970781+1020332700+1020592803
2402+1020635313+1020527691+1020318184+1019933317+1019421958+1019091834
2394+1019180102+1019518866+1019706530+1019561583+1019260214+1019051122
2385+1018976609+1018931265+1018854195+1018723971+1018514602+1018348642
2377+1018536514+1019167937+1019811180+1019976932+1019766320+1019730930
2368+1020225976+1021168030+1022311435+1023482004+1024463181+1024821022
2360+1024266600+1023294478+1022916315+1023518915+1024437398+1024743191
2351+1024125869+1022953779+1021767450+1020942419+1020665242+1020961565
2343+1021656511+1022355327+1022601053+1022182869+1021315121+1020497900
2334+1020157132+1020327930+1020667108+1020860855+1020918779+1020945598
2326+1020816272+1020314244+1019498337+1018737242+1018349057+1018350508
2317+1018611856+1019048772+1019592618+1020131349+1020549741+1020766505
2309+1020762911+1020626396+1020503291+1020461749+1020503429+1020726829
2300+1021281044+1022041516+1022535526+1022403159+1021844244+1021402905
2292+1021331641+1021353483+1021122341+1020754616+1020697107+1021096974
2283+1021568796+1021729088+1021689620+1021743603+1021787979+1021462072
2275+1020820765+1020424838+1020584509+1020870187+1020708097+1020252312
2266+1020206830+1020801619+1021423917+1021454953+1021095522+1021053773
2258+1021612757+1022318485+1022595385+1022424863+1022280261+1022528476
2249+1023130937+1023835836+1024332127+1024266600+1023645891+1023270285
2241+1024049628+1025736740+1027093108+1027472722+1027418185+1027455580
2232+1027188080+1026079928+1024565411+1023713422+1023947536+1024714367
2224+1025472282+1026322336+1027369662+1028158612+1028207066+1027678219
2215+1027132438+1026822636+1026588038+1026405351+1026521267+1026826230
2207+1026834041+1026696904+1027326254+1028884455+1030144743+1029987354
2198+1028764944+1027735590+1027636194+1028031844+1027876321+1026803213
2190+1025685107+1025665753+1026986868+1029039425+1031115345+1032756768
2181+1033658939+1033504453+1032061131+1029740384+1027801186+1027275588
2173+1027864709+1028646263+1029399339+1030283746+1030759508+1030116335
2164+1028831992+1028138014+1028427840+1029258539+1030596106+1032608088
2156+1034459502+1034896003+1033760133+1032117120+1031127510+1031216331
2147+1032069080+1032852432+1032656127+1031497585+1030634744+1031120252
2139+1032454708+1033427521+1033771054+1034028669+1034269004+1034054658
2130+1033411830+1032829967+1032463555+1032113041+1031821280+1031760246
2122+1031671633+1031152601+1030296257+1029434246+1028633959+1027993412
2113+1027862911+1028245636+1028597394+1028607832+1028550737+1028649926
2105+1028730937+1028687736+1028900007+1029976986+1031995397+1033990790
2096+1034644609+1033691841+1032091683+1030707114+1029650941+1028948876
2088+1028803860+1028965603+1028693473+1027698610+1026623014+1026342381
2079+1027064215+1028218610+1029037766+1029073156+1028316624+1027266326
2071+1026889407+1027840516+1029569032+1030868996+1031302871+1031312893
2062+1031262849+1031347800+1031836625+1032427129+1032130598+1030653200
2054+1028996017+1028083961+1027803882+1027737111+1027895606+1028442079
2045+1029335541+1030390815+1031287733+1031760246+1032103710+1033034843
2037+1034707163+1036220090+1036478811+1035373078+1033838309+1032929848
2028+1033081085+1034048438+1035278382+1036214561+1036382733+1035529499
2020+1033912061+1032328631+1031741860+1032632626+1034423144+1035739974
2011+1035740941+1034970723+1034352502+1033994177+1033941783+1034922131
2003+1036952638+1038466740+1038154657+1036707050+1035659309+1035345222
1994+1034887708+1033472381+1031049196+1028433024+1026985555+1027558501
1986+1029438877+1030737320+1030098570+1027814734+1025512926+1025161859
1977+1027687482+1031737851+1034627674+1035144632+1034347802+1033563897
1969+1032970906+1032329667+1031794185+1031456182+1030999981+1030339735
1960+1029964544+1030335242+1031353053+1032521617+1033304969+1033337387
1952+1032720134+1032250247+1032801628+1034195942+1035348333+1035830661
1943+1036387917+1037463859+1038315433+1038241266+1037454182+1036450817
1935+1035615348+1035348816+1035743292+1036280018+1036424551+1036211796
1926+1035875659+1035433766+1035030720+1035125416+1035845798+1036624312
1918+1036766909+1036106593+1034964156+1033760202+1032884642+1032509175
1909+1032354482+1032064380+1031748703+1031668453+1031689328+1031518045
1901+1031206792+1030998944+1030900585+1030697299+1030242896+1029603316
1892+1029072396+1029038872+1029629168+1030426551+1030859319+1030807271
1884+1030589055+1030591336+1030954292+1031453624+1031725409+1031716907
1875+1031780361+1032190526+1032778749+1033203499+1033391785+1033555326
1867+1033834092+1034174307+1034553299+1035010260+1035531089+1036051020
1858+1036460425+1036588438+1036381074+1036090764+1036086963+1036443006
1850+1036779489+1036628251+1036092423+1035993303+1036895889+1037964988
1841+1037988144+1037059845+1036095119+1035713708+1035787667+1035814279
1833+1035653710+1035615210+1035787391+1035732647+1035307551+1035004039
1824+1035042886+1034987934+1034573137+1034172234+1034196841+1034521089
1816+1034673916+1034464548+1034155437+1034030466+1034019337+1033918213
1807+1033773404+1033757437+1033923812+1034282620+1034871396+1035599450
1799+1036207234+1036497336+1036516551+1036572125+1037106709+1038192121
1790+1039155948+1039441073+1039232949+1038899162+1038553694+1038211751
1782+1037981577+1037847897+1037571688+1037047196+1036482336+1036165070
1773+1036310363+1036892710+1037510654+1037883356+1038082149+1038051044
1765+1037623736+1037003234+1036684032+1036817298+1037142445+1037550606
1756+1037947155+1038014686+1037752302+1037728248+1038495840+1039860709
1748+1041077174+1041767281+1041987847+1041839375+1041429762+1040959392
1740+1040530425+1040013674+1039503213+1039653345+1040907965+1042269931
1731+1042815851+1042999990+1043244818+1043412092+1043401862+1043307096
1723+1043067315+1042617957+1042339951+1042936468+1044416147+1045561280
1714+1045652105+1045115931+1044520935+1044156251+1044155422+1044544920
1706+1045002711+1045024277+1044695674+1044740810+1045515660+1046335162
1697+1046829103+1047228416+1047262009+1046726803+1046091855+1045713139
1689+1045283896+1044541119+1044165237+1045105287+1046486468+1046727425
1680+1045980570+1044971260+1044193300+1043910802+1043896355+1043626920
1672+1043184130+1043233275+1043909696+1044416908+1044373983+1044197102
1663+1044327327+1044729682+1045043008+1045009761+1044569666+1044029690
1655+1044432253+1046651392+1048585682+1048607110+1048046329+1048312929
1646+1049474305+1050307079+1050415530+1050322147+1050276527+1050240238
1638+1050535248+1051811849+1053569742+1054341896+1054091677+1053715449
1629+1053768742+1054140476+1054503294+1054934196+1055594443+1056093498
1621+1056007166+1055629418+1055638335+1056230359+1056728654+1056658219
1612+1056151837+1055269089+1053773373+1051321779+1047501653+1041630006
1604+1032785592+1020253901+1004003555+984847349+964478203+945575327+931434010
1594+924531212+925094689+931314015+940560578+950404832+959355141+966985716
1584+973218107+977665924+980112956+981611643+984563192+990442372+995863279
1574+995940072+990753003+982753735+974912270+970630966+971361509+976032795
1564+982103856+987109205+991095776+997217572+1006623736+1014152427+1018712013
1554+1022432743+1025835169+1028685524+1031024865+1032815728+1033942820
1545+1034669561+1035446761+1036598737+1038630972+1041600077+1043830483
1537+1044526811+1044737285+1045565358+1047044001+1048212980+1048762287
1528+1049264868+1050095844+1051009627+1051812609+1052920071+1054638910
1520+1056406825+1057754207+1058945996+1060048826+1060665526+1060643477
1511+1060155480+1059055691+1055767661+1045710374+1025404751+999090275+969781880
1502+937763515+906940603+886318750+884424274+899183674+918854349+936215751
1492+951841518+967319987+980422066+987273576+986965295+980651825+970004381
1482+957863365+948280112+944572446+947659058+956340208+968550968+982055817
1472+993633702+1000486249+1003023208+1003123364+1001892867+999520832+996091517
1462+992072183+987947439+983863131+979340041+973490445+966773168+961077090
1452+958593493+961366363+970022491+982231869+993533269+1000963462+1004225711
1442+1003395633+997608453+984795370+961814545+929992278+901037023+885804004
1432+886456440+901289661+924094296+945254328+959821709+968772640+974078667
1422+976861628+978561459+981112380+985084228+989130243+992556931+995775909
1412+998821393+1000975213+1001505097+1000433164+998647484+997351253+997222964
1402+998264276+1000511824+1003998716+1008021161+1011632817+1014705328
1394+1017370023+1019280259+1020303185+1020950091+1021753073+1022628563
1385+1023164253+1023409841+1023778050+1024453711+1025268928+1026045091
1377+1026932746+1028297131+1030135758+1031828193+1032903374+1033574404
1368+1034204928+1034821144+1035364991+1036028763+1037003165+1038063140
1360+1038810756+1039217535+1039570468+1040068764+1040609500+1040959530
1351+1041095630+1041287856+1041824445+1042694474+1043585586+1044205189
1343+1044578168+1044997250+1045633373+1046222079+1046350368+1045983196
1334+1045387578+1044780071+1044313710+1044183140+1044498263+1045142059
1326+1045903016+1046699638+1047601948+1048642569+1049626372+1050155357
1317+1049822262+1048265996+1045066855+1039950083+1033391993+1026916572
1309+1022473593+1021252635+1022854383+1025552394+1027355146+1026856644
1300+1023464724+1017230951+1008520424+997739438+985261524+971583734+957667752
1290+945132052+935872080+931274201+931678077+936475509+944522195+954308180
1281+963961314+971753910+977138805+981177631+985570082+991164206+997398324
1271+1002928995+1006559729+1007626893+1005765664+1000584125+991645014+978692167
1261+961922789+942134746+920660281+899307816+880343353+865940618+857124681
1251+853408997+853751286+857711037+865481376+876955096+891061646+906089997
1241+920542775+933626883+945143388+955174408+963841527+971207714+977410037
1231+982812349+987815003+992535434+996879500+1000852868+1004566893+1008025515
1221+1011144268+1013962620+1016667198+1019361546+1021909287+1024096008
1213+1025919774+1027606679+1029323513+1031012285+1032557146+1033965423
1204+1035308173+1036618713+1037913769+1039175509+1040252834+1040875478
1196+1040750300+1039491877+1036489802+1030996594+1022269064+1009488398
1187+991872699+969461434+943820199+917650395+893978564+876200292+868140887
1177+872369797+887802093+909682852+932433020+952403128+968320103+980254654
1167+988739638+994378346+997582671+998395468+996718102+992962189+988498958
1157+985254474+984703646+987152752+991801712+997361690+1002726470+1007317713
1147+1011036992+1014058007+1016653995+1019022367+1021145566+1022881271
1139+1024205151+1025274665+1026212364+1026897494+1027036566+1026443851
1130+1025226625+1023664208+1021983800+1020366362+1019116372+1018610128
1122+1018984834+1019944031+1020897835+1021252289+1020623286+1018952417
1113+1016555152+1014036787+1011988101+1010511394+1008809489+1005147236
1105+997378763+983895273+964488226+940675872+915392962+892232146+874552716
1095+864749175+863775117+870996979+884576963+902223974+921688806+940879227
1085+958075913+972271629+983189544+991005227+996146123+999171493+1000567397
1075+1000599746+999465120+997664856+996168726+996029031+997754645+1001099078
1065+1005344301+1009639014+1013229035+1015636945+1016747931+1016845116
1057+1016673280+1017237656+1019174227+1022243696+1025539537+1028192758
1048+1029861277+1030632118+1030654997+1029968553+1028472285+1025780149
1040+1021179021+1013976029+1003886463+991082712+976075443+959617456+942699743
1030+926798528+914000168+906218908+903945025+906125249+911428995+919237834
1020+929330994+941131036+953541072+965299226+975383815+983188093+988432394
1010+991099301+991576929+990667431+989190171+987584207+985891426+984005314
1000+982079111+980983884+982121828+986256249+992495689+998787870+1003468971
990+1006252762+1007955219+1009615167+1011873843+1014828433+1018091649
982+1020976703+1022927444+1023918159+1024320307+1024446868+1024396271
973+1024174461+1023769272+1023275124+1023049858+1023473779+1024466084
965+1025520391+1026305401+1026963574+1027732549+1028525370+1029083110
956+1029424085+1029909455+1030826072+1032059749+1033238958+1034087215
948+1034560142+1034746010+1034780156+1034825845+1035007081+1035342457
939+1035807574+1036393585+1037013741+1037465172+1037640395+1037692028
931+1037862067+1038189356+1038460519+1038416972+1037979296+1037323543
922+1036771263+1036578346+1036762831+1037112031+1037393839+1037611225
914+1038047242+1038995379+1040416167+1041955982+1043347809+1044598835
905+1045714936+1046567686+1047173672+1047712680+1048144619+1048224731
897+1047986262+1047805233+1047949559+1048385852+1048970549+1049596028
888+1050236022+1050950736+1051731668+1052374773+1052695703+1052818255
880+1053019398+1053327610+1053539052+1053665751+1054045918+1054832104
871+1055678494+1056220612+1056575619+1057013987+1057442262+1057635594
863+1057702573+1057858303+1057905928+1057356621+1056005507+1054132596
854+1052142594+1050193236+1048310026+1046784035+1046144871+1046588975
846+1047646946+1048542343+1048717082+1048002851+1046470363+1044052777
837+1040125029+1033559543+1023419726+1009665487+993201487+975376350+957763761
827+942613065+932916869+931012024+936913254+948400522+962423504+976037149
817+986826983+993645868+997114512+998992261+1000872499+1003376556+1006348218
807+1009389693+1011719565+1011630813+1007141523+998085805+987347812+979415867
798+977566389+982376540+992387307+1005384184+1018946334+1030787364+1039604614
788+1045612983+1049835257+1052999975+1055245311+1056337497+1055707110
779+1052658378+1047173880+1040623946+1035342941+1033089241+1033726885
771+1035512496+1036709815+1036718939+1035719237+1033821789+1030832984
762+1026290333+1019346408+1009162837+995995162+981583304+967889477+955443567
752+943059312+928849634+911235109+889641963+865503426+842978456+827859210
742+824991161+836241066+859864718+891010772+923470960+952201571+975013671
732+992252659+1005222924+1015048930+1022459977+1027896643+1031665550+1034162349
722+1035941946+1037512105+1039142746+1040922896+1042854352+1044725120
714+1045821383+1044665053+1039017775+1026626815+1006876858+982153070+957050015
704+935253168+916627607+897607985+874377632+845284481+811328577+776648490
694+748976403+737241958+746111533+771940708+804907900+836073585+862267858
684+884684101+904690775+922067314+936139511+946910543+954979002+961173791
674+966198148+970359596+974090003+978733156+985570634+992466382+996125801
664+997649857+999539356+1002722737+1006545421+1010047728+1012944048+1015389836
654+1017482621+1019090175+1019888319+1019596143+1018402833+1017160654
646+1016845600+1017754683+1019471725+1021553520+1023841296+1026024631
637+1027411066+1027568455+1027041128+1026918991+1027522489+1027947723
629+1027184209+1025313165+1023216647+1021263349+1018743532+1014919466
620+1010540632+1007984457+1009535954+1015330254+1023166396+1030433878
612+1035934688+1040029157+1043479001+1046392532+1048384539+1049371591
603+1049713811+1049819082+1050028520+1050599323+1051559971+1052912260
595+1054817934+1057042326+1058579584+1058662253+1057842474+1057321369
586+1057672574+1058738494+1060230269+1061904318+1063389873+1064313402
578+1064683616+1065002403+1065840568+1067230252+1068649727+1069673689
569+1070366285+1070955198+1071435107+1071663415+1071564088+1071108786
561+1070405131+1069959437+1070507983+1072153416+1073741823+1073715004
552+1071786382+1069089407+1066396165+1062911346+1057182781+1048569162
544+1037257946+1023120845+1005460701+984657128+963780700+947476647+938869940
534+937790749+941751537+947822668+953149016+954160606+946248223+925853295
524+893778458+855110625+816613453+785937009+770485981+772823041+786837106
514+800835689+805009439+796757048+781010942+765578715+755708609+752784364
504+756772731+767870984+784740934+802821681+816986431+825074244+827929507
494+827245552+824112560+819670757+816230383+816699716+823139885+836002113
484+853976276+874318464+893825046+909904801+921085101+927221827+929648883
475+930566814+931502854+932239342+932082575+931978962+933929979+938799644
465+945635463+952684037+958454283+962709666+966930143+972689882+979365547
455+985204845+989582434+992277473+992411845+989323299+983544206+976177327
445+967752271+958709133+950854328+946321077+944985239+944683317+943213038
435+939617348+934736348+930523406+928012229+926254129+924080956+922398405
425+923494323+927932671+933388483+937276418+939466664+942165436+946448191
415+951372392+956434420+962147019+969100828+976824303+983511719+987290787
405+987921657+986808113+985445179+984278550+982983148+981465728+979888657
395+977732073+974843425+972800752+973278864+975261747+975883908+974943512
385+976503096+983427529+992464446+999204049+1002674905+1003315383+1001784761
375+1001029335+1005354392
##END=
