##TITLE=X9387
##JCAMP-DX=4.24
##DATA TYPE=INFRARED SPECTRUM
##DATE=5/11/2018
##SAMPLING PROCEDURE=ATR platinum Diamond 1 Refl
##ORIGIN=ComPlat
##XUNITS=1/CM
##YUNITS=TRANSMITTANCE
##RESOLUTION=4
##FIRSTX=3997.453
##LASTX=373.96442
##DELTAX=-1.4165319
##MAXY=1.0312471
##MINY=0.60915202
##XFACTOR=1
##YFACTOR=9.6042374e-010
##NPOINTS=2559
##FIRSTY=1.0177052
##XYDATA=(X++(Y..Y))
3997+1059641862+1059331559+1059025475+1058791382+1058692457+1058713557
3989+1058908304+1059408266+1060187377+1060989078+1061542412+1061752301
3980+1061674725+1061365042+1060789987+1059898546+1058772019+1057713013
3972+1057144537+1057283677+1057893983+1058514218+1058878763+1058954353
3963+1058805035+1058630768+1058590180+1058538422+1058354101+1058296757
3955+1058478968+1058294647+1056973249+1054689164+1052863832+1052852165
3946+1054100331+1054726897+1054108896+1053645550+1054574724+1056283754
3938+1057525093+1057632086+1056328562+1053742985+1051011070+1049875854
3929+1050761089+1052167386+1052562589+1052080253+1052123199+1053118530
3921+1053709473+1052800655+1051351287+1051603006+1054309973+1057832294
3912+1060316587+1061196609+1060546833+1058011402+1053003221+1046014681
3904+1039471365+1036093273+1036256679+1038873720+1043099314+1047554409
3895+1050221533+1049981854+1047912499+1047044642+1048768442+1050648014
3887+1050046025+1047244229+1044791959+1043734196+1043487814+1044909254
3878+1048494505+1051570486+1051230269+1047378529+1042347261+1038419248
3870+1037148430+1038966252+1041420197+1041668316+1040154344+1040162846
3861+1043123766+1046655520+1048133436+1046683696+1042111927+1034562233
3853+1028529243+1030834428+1038859321+1046719815+1051613432+1052689814
3844+1050115657+1044806854+1038186521+1031927815+1028169166+1028827010
3836+1033143524+1038379467+1042968490+1046707155+1049429637+1050652855
3827+1050307177+1049097364+1047274639+1043612060+1037695682+1033303454
3819+1033877641+1037073833+1040592679+1045079301+1050365390+1054337404
3810+1055383252+1053201691+1048983172+1045267593+1043011187+1040456083
3802+1037317856+1036735291+1039805252+1043640484+1046893337+1050373333
3793+1054054655+1056792900+1058128945+1058453399+1057949093+1056587355
3785+1055024789+1054016177+1053020598+1051281903+1050016732+1051383186
3776+1054986063+1058174373+1058878267+1056638121+1052666107+1049359384
3768+1048172162+1048630046+1050082517+1051851994+1052307271+1050190751
3759+1046711996+1044938671+1045590185+1045842648+1042687354+1035455660
3751+1027848498+1025809864+1028569955+1031055179+1031473344+1031951150
3742+1034710931+1038069722+1039112591+1035985473+1028941699+1022466525
3734+1023080989+1031146284+1040847190+1047431901+1049377754+1047335955
3725+1043754924+1041754953+1042612633+1045423242+1048800217+1051614673
3717+1052857378+1051639870+1047435004+1041015685+1036177427+1037409023
3708+1043633533+1050421493+1054881180+1055937827+1054154697+1052103216
3700+1052209091+1053924327+1055440100+1055902825+1054796281+1051106395
3691+1044447150+1037380785+1035180607+1039349167+1045744841+1050843506
3683+1053261766+1052477442+1048724130+1042618094+1034615171+1027441504
3674+1026624722+1031078141+1034363142+1035059402+1037703005+1044554763
3666+1051933666+1056510276+1057890756+1057446152+1056402290+1054748742
3657+1052299576+1050101383+1048811140+1046304256+1039552913+1028374401
3649+1019524100+1021622375+1031546017+1041409275+1047975801+1051432090
3640+1053121757+1054049317+1054222715+1053310794+1051478512+1049088799
3632+1045617368+1040019051+1034182359+1034161631+1040490527+1047124328
3623+1050273167+1049024505+1044018682+1038081824+1034998396+1034919517
3615+1035299950+1035489980+1036509824+1038039312+1038838345+1039641349
3606+1042275147+1046067060+1048529384+1048592313+1047428798+1046628710
3598+1046231149+1045520056+1044926880+1045610913+1047108440+1047028754
3589+1043594683+1038489005+1036894601+1040810450+1046320144+1049911229
3581+1051144749+1051100313+1050751532+1050557033+1050783307+1051415458
3572+1051602385+1049632700+1043969902+1035357728+1028866853+1029774182
3564+1036170166+1042753511+1047069590+1049496663+1051004492+1051672266
3555+1051003374+1049156694+1047405711+1046871864+1046838848+1045568960
3547+1042868324+1040977083+1042046391+1045323324+1048328183+1049569646
3538+1049391780+1049034807+1049140434+1049205350+1048496740+1046941248
3530+1045066765+1043560798+1042798815+1042656945+1043007091+1044068827
3521+1045835946+1047646011+1048831123+1049363605+1049549166+1049360626
3513+1048429838+1046775050+1045296141+1044995891+1045572312+1045608679
3504+1044333454+1042630879+1042073449+1043018387+1044344998+1044990802
3496+1045098416+1045504790+1046332060+1046710879+1045997800+1044688070
3488+1043848387+1043839326+1043963324+1043519093+1042862614+1042961166
3479+1043931549+1044803130+1044825224+1044235523+1043625713+1043163857
3471+1042763317+1042500676+1042508743+1042722605+1042928647+1042956946
3462+1042798195+1042607048+1042541139+1042593270+1042627900+1042551565
3454+1042389338+1042118753+1041468232+1040185995+1038635034+1037668685
3445+1037633559+1038076301+1038581351+1039152683+1039793833+1040328548
3437+1040598264+1040535335+1040241663+1040052005+1040200517+1040486183
3428+1040592431+1040515289+1040319239+1039759265+1038626593+1037358009
3420+1036773459+1037097788+1037681656+1037784553+1037288811+1036599006
3411+1036070062+1035700242+1035376284+1035126862+1034921379+1034476775
3403+1033639762+1032663484+1031799722+1031035940+1030434074+1030196692
3394+1030264835+1030339556+1030302071+1030240941+1030178508+1030051035
3386+1029879437+1029794724+1029900041+1030130783+1030320007+1030410491
3377+1030478944+1030574580+1030686848+1030821706+1030943345+1030930374
3369+1030728801+1030452630+1030252857+1030204884+1030340549+1030619015
3360+1030909584+1031207724+1031727545+1032525895+1033250206+1033529294
3352+1033374328+1033015120+1032653244+1032455332+1032490148+1032641328
3343+1032694328+1032423681+1031694218+1030714589+1030022922+1029938457
3335+1030210593+1030374372+1030250436+1029996732+1029886574+1030085727
3326+1030508733+1030890283+1031063557+1031101104+1031121149+1031082299
3318+1030892952+1030573897+1030141892+1029490192+1028585594+1027685464
3309+1027198411+1027323402+1027848933+1028355411+1028606260+1028606198
3301+1028374649+1028003712+1027858304+1028256796+1028979804+1029496336
3292+1029641248+1029748117+1030127680+1030652218+1030965128+1030973320
3284+1030910329+1030917404+1030842558+1030552921+1030187010+1029986058
3275+1030065868+1030462250+1031210455+1032153034+1032792011+1032670000
3267+1031968589+1031428536+1031585116+1032286340+1032987627+1033320831
3258+1033315680+1033174802+1032985765+1032755954+1032598506+1032647844
3250+1032842963+1032992902+1033020519+1032973974+1032845694+1032567600
3241+1032208640+1031976285+1031945502+1031985345+1031990683+1031973430
3233+1031924340+1031820388+1031728352+1031749577+1031943330+1032314392
3224+1032747142+1033017478+1032981483+1032663422+1032199269+1031839999
3216+1031842854+1032180713+1032524157+1032631088+1032575481+1032544203
3207+1032579764+1032584791+1032496168+1032368385+1032264495+1032162219
3199+1032035304+1031936938+1031933649+1032034311+1032207151+1032399725
3190+1032498526+1032343995+1031899143+1031419972+1031285300+1031572517
3182+1031949785+1032055784+1031899329+1031865878+1032310110+1033101943
3173+1033737321+1033951803+1033954534+1033978489+1033964960+1033807078
3165+1033562496+1033303578+1032999170+1032649706+1032421447+1032546189
3156+1033082704+1033834074+1034514695+1034928640+1035039418+1035023965
3148+1035187371+1035622666+1036017248+1035958663+1035366851+1034551435
3139+1033950252+1033846362+1034208983+1034753939+1035188116+1035386276
3131+1035361762+1035200404+1035043577+1035012546+1035094218+1035155410
3122+1035043204+1034661903+1034045019+1033370728+1032835392+1032536880
3114+1032512676+1032779103+1033252006+1033742534+1034102859+1034314735
3105+1034436064+1034528844+1034616598+1034694485+1034775536+1034905305
3097+1035124628+1035453736+1035867371+1036226145+1036283861+1035854152
3088+1034973572+1033885460+1032864498+1032042007+1031380253+1030813824
3080+1030356747+1030015102+1029656018+1029098092+1028347777+1027654124
3071+1027233662+1026974372+1026568060+1025969670+1025513399+1025451028
3063+1025619834+1025728936+1025723165+1025699706+1025678915+1025543809
3054+1025078291+1024143284+1022967542+1022105332+1021945463+1022350596
3046+1022847268+1023079934+1023080244+1023125859+1023314027+1023360945
3037+1022923231+1021979721+1020788154+1019656786+1018825792+1018342276
3029+1017935530+1017176465+1015854260+1014137597+1012353784+1010670447
3020+1009010073+1007161034+1004895443+1002068575+998713135+995015616+991167537
3010+987280298+983360043+979265521+974793546+969919602+964834528+959715693
3000+954709250+950134192+946367475+943486552+941296117+939671489+938568980
2990+937716078+936561500+934613474+931759237+928273469+924547650+920738422
2980+916555711+911330939+904351521+895196936+883809962+870409365+855531162
2970+840021615+824639603+809630948+794884253+780453942+766752847+754290670
2961+743370766+734069965+726480366+720911901+717731224+716943611+717964510
2951+719824410+721596866+722666049+722683178+721396596+718607460+714310744
2941+708818055+702592863+695893526+688724016+681186549+673608803+666214510
2931+658996407+652063101+645806195+640618411+636736509+634464216+634253395
2921+636324922+640309596+645436189+651034133+656728706+662260804+667390810
2911+672023337+676276176+680402907+684711911+689469180+694769295+700521956
2901+706565559+712737938+718907524+725020200+731033083+736768492+741972723
2891+746543685+750566713+754159473+757438703+760532867+763405412+765727851
2881+767123473+767461891+766747820+764867688+761706250+757432000+752396823
2871+746825131+740916696+735280895+730979711+729040125+730047930+734062580
2861+740541415+748290634+755768213+761634136+765155650+766368628+766016433
2851+765189660+764851863+765629671+767899109+771863738+777518219+784639570
2842+792868270+801812159+811129468+820569719+829936428+839008225+847512041
2832+855218624+862120589+868522965+874877803+881488765+888407239+895573583
2822+902938335+910437325+917955678+925318879+932288367+938663622+944452652
2812+949824819+954855838+959476511+963674861+967547329+971135373+974412306
2802+977461042+980485140+983597612+986695189+989573072+992107324+994308123
2792+996235855+997932286+999441108+1000828228+1002156515+1003466122+1004787954
2782+1006131632+1007451727+1008654527+1009685605+1010609690+1011542525
2774+1012488021+1013355879+1014164034+1015046353+1016002337+1016855859
2765+1017545478+1018236649+1019028048+1019748822+1020171456+1020302032
2757+1020335234+1020412810+1020548351+1020719452+1020910972+1021101499
2748+1021317656+1021652536+1022128418+1022617581+1022975548+1023164523
2740+1023220502+1023234838+1023344499+1023592929+1023832545+1023893799
2731+1023779731+1023605403+1023443734+1023321164+1023283866+1023397561
2723+1023693591+1024105985+1024466434+1024634246+1024661429+1024757375
2714+1025034662+1025352290+1025518985+1025596499+1025851196+1026398820
2706+1027058837+1027590884+1027925888+1028127585+1028265671+1028371795
2697+1028427277+1028389048+1028287764+1028240412+1028284785+1028289750
2689+1028142108+1027912421+1027704331+1027453481+1027066284+1026659600
2680+1026465970+1026540319+1026700374+1026727618+1026545222+1026257322
2672+1026070271+1026120292+1026341538+1026561668+1026726563+1026937942
2663+1027249115+1027582444+1027930232+1028470595+1029300472+1030182542
2655+1030766348+1030985546+1031051083+1031105634+1031083602+1030952592
2646+1030908715+1031183706+1031720780+1032255000+1032700224+1033204467
2638+1033800375+1034286001+1034521273+1034613309+1034712482+1034802098
2629+1034826178+1034923861+1035297591+1035840002+1036176124+1036181585
2621+1036150679+1036362120+1036809019+1037378055+1037938836+1038275516
2612+1038261490+1038053028+1037915687+1037955841+1038105966+1038240265
2604+1038322558+1038496514+1038875023+1039266564+1039405704+1039369275
2595+1039409366+1039531874+1039619504+1039752252+1040077388+1040564752
2587+1041054349+1041344483+1041293717+1041054411+1040990613+1041203791
2578+1041464012+1041676881+1041987929+1042387228+1042637830+1042644284
2570+1042584458+1042638947+1042812593+1043080075+1043533615+1044166883
2561+1044644379+1044641896+1044342764+1044172717+1044116862+1043834486
2553+1043399564+1043340854+1043838582+1044391667+1044505487+1044323773
2544+1044286288+1044483021+1044710660+1044939043+1045321462+1045830609
2536+1046192671+1046205207+1045971735+1045790269+1045846000+1046048070
2527+1046161144+1046030444+1045673098+1045273675+1045118523+1045389853
2519+1045934995+1046314434+1046190313+1045682283+1045279261+1045355720
2510+1045803550+1046199622+1046288617+1046194037+1046162882+1046246416
2502+1046312697+1046303015+1046385928+1046786096+1047461690+1048090614
2493+1048473653+1048756774+1049069809+1049211928+1048933896+1048314405
2485+1047669966+1047276501+1047237030+1047441086+1047661898+1047802900
2476+1047955570+1048176630+1048338609+1048233602+1047812085+1047375798
2468+1047432397+1048150565+1049009238+1049239483+1048678329+1047993923
2459+1047934593+1048513000+1049133111+1049365466+1049279947+1049131125
2451+1049077008+1049148502+1049177422+1048866125+1048193387+1047592018
2442+1047476460+1047784034+1048221066+1048691859+1049177671+1049457440
2434+1049348089+1049055287+1048934516+1049034434+1049129387+1049073284
2425+1048919125+1048809402+1048890329+1049228188+1049674157+1049896583
2417+1049698236+1049252516+1048870594+1048614407+1048373611+1048207909
2408+1048296780+1048596906+1048868484+1049036172+1049258970+1049640023
2400+1050072587+1050414294+1050667998+1050900850+1051058609+1050995058
2391+1050720129+1050476975+1050456991+1050550703+1050550083+1050514460
2383+1050735893+1051388275+1052409299+1053661686+1055009398+1056325707
2374+1057636430+1059143018+1060931237+1062845316+1064770317+1066768302
2366+1068822017+1070683468+1072062831+1072817490+1072887246+1072125512
2357+1070401836+1067863674+1064806933+1061524911+1058632134+1056972380
2349+1056953638+1058341565+1060555025+1062958390+1064964815+1066078310
2340+1066175249+1065728659+1065395890+1065333953+1065121457+1064338870
2332+1063081767+1061816472+1060817169+1060009883+1059325477+1058847484
2323+1058667384+1058722742+1058658571+1058003086+1056779743+1055618338
2315+1054940758+1054433474+1053649770+1052728044+1052131888+1052005904
2306+1052087949+1052076654+1051906855+1051724893+1051668170+1051712233
2298+1051765729+1051902635+1052347487+1053122998+1053845262+1054078486
2289+1053815845+1053418035+1053167558+1053081542+1053100408+1053275544
2281+1053701529+1054272985+1054666822+1054665705+1054375509+1054054406
2272+1053887835+1053888828+1053840917+1053507155+1053041823+1052927010
2264+1053389736+1054095615+1054492307+1054434094+1054438687+1055065128
2255+1056041841+1056556821+1056417681+1056177133+1056140269+1056034518
2247+1055600713+1054911218+1054220109+1053889201+1054276336+1055426819
2238+1056952521+1058263493+1058918730+1058880004+1058420630+1057673543
2230+1056555208+1055382755+1055019327+1055843246+1057061624+1057671805
2221+1057634072+1057513922+1057545325+1057699112+1058124725+1058838672
2213+1059326097+1059033791+1058092950+1057135476+1056490168+1056020988
2204+1055748169+1056035635+1057007507+1058278884+1059375498+1059975874
2196+1059823949+1058968007+1057963367+1057425051+1057468990+1057787486
2187+1058131427+1058558529+1059217739+1060010876+1060634959+1060867563
2179+1060699130+1060424201+1060607280+1061536206+1062790082+1063732785
2170+1064156660+1064262536+1064570109+1065914221+1068727064+1072036889
2162+1073741823+1072467219+1069382550+1067160526+1066696808+1066771156
2153+1066568714+1066334249+1066051251+1065211693+1063537914+1061002235
2145+1058025303+1056073740+1056510276+1058607806+1060187997+1060203885
2136+1059428125+1058927419+1059060105+1059664949+1060307154+1060381999
2128+1059505825+1057984716+1056738163+1056504690+1057076642+1057579086
2119+1057551283+1057343504+1057272754+1056958603+1056013417+1055009149
2111+1054979236+1055984869+1056904237+1056814498+1055984869+1055259627
2102+1054990779+1054938897+1054855239+1054786724+1054962107+1055567448
2094+1056459510+1057080986+1056992860+1056487934+1056263025+1056493023
2085+1056765842+1056885123+1057103949+1057522239+1057809332+1057677515
2077+1057310239+1057183759+1057589140+1058384015+1059157168+1059523823
2068+1059199741+1057994645+1056184332+1054805094+1054891730+1056295421
2060+1057867917+1058878143+1059642731+1060674057+1061850606+1062616436
2051+1062604768+1062019659+1061680063+1062394382+1064004611+1065468625
2043+1066046287+1065970572+1065825847+1065770737+1065667219+1065470859
2034+1065155714+1064795638+1064942846+1066186296+1068255526+1070271136
2026+1071550705+1071523647+1069688634+1066497717+1063440727+1061654369
2017+1061031652+1060860488+1060816052+1061065909+1061739765+1062737951
2009+1063999026+1065392414+1066238551+1065753856+1064138042+1062500382
2000+1061839310+1062471586+1063875897+1064856954+1064673750+1064018016
1992+1063900970+1063965761+1063527860+1063383631+1064560427+1066272188
1983+1066931025+1066480836+1066134537+1066313396+1066299122+1065930978
1975+1066232717+1067601778+1068566326+1067372401+1064264273+1061447707
1966+1060868308+1062502740+1064915043+1066662178+1066909676+1065558613
1958+1063400015+1061916018+1062137202+1063397284+1063964396+1063104481
1949+1061672615+1060548322+1059445502+1057742306+1055894881+1055192601
1941+1055899846+1056834853+1057111148+1056902127+1056507669+1055804893
1932+1054914445+1054543445+1055149903+1056059218+1055875642+1054111626
1924+1052151623+1051713102+1052447529+1052731395+1052378021+1052686835
1915+1053915266+1054700956+1053972859+1052152864+1050709206+1050747932
1907+1052059277+1053543026+1054249774+1053987753+1053240045+1052481290
1898+1051674624+1050743464+1050122236+1050043667+1049804112+1048856816
1890+1048046303+1048563889+1050125587+1051572844+1052340908+1052427918
1881+1051945954+1051286372+1051125262+1051755799+1052636194+1052758702
1873+1051293074+1048006832+1043925963+1041786604+1043646442+1048017382
1864+1051962214+1054017046+1054413118+1054081465+1053793503+1053834091
1856+1054066570+1054244685+1054191188+1053652128+1052309506+1050047018
1847+1046999337+1043796008+1042191116+1043683802+1046929829+1049505227
1839+1050595635+1050879129+1051169821+1051168456+1049637665+1046134458
1830+1042552062+1041489085+1042550572+1043724886+1044879217+1046947951
1822+1049485492+1051197376+1051695973+1051600151+1051352404+1050536926
1813+1048637121+1046197512+1044778554+1045273303+1046820478+1047796198
1805+1047025775+1044360513+1041030083+1038998772+1038928457+1039517476
1796+1039189981+1037206395+1034144378+1032632267+1034888487+1038986298
1788+1041668068+1041919663+1040730082+1039169998+1037475180+1036022275
1779+1035339793+1034723777+1032519875+1027834597+1021744324+1017533811
1771+1017602698+1020408218+1023411277+1025221217+1024859651+1021939691
1762+1017895253+1015320599+1014672561+1014492957+1014219765+1013626588
1754+1011323761+1005993733+998799896+993727793+993058219+994849293+996620197
1744+997534601+997704275+997494199+997441261+997414141+996087716+992733641
1734+990022702+991895945+997044072+1002596650+1007437763+1010629177+1011632265
1724+1011159983+1010009190+1007386625+1001612118+993198973+988108686+991775050
1714+1000479447+1008563298+1013742021+1015634441+1014434744+1011156073
1706+1008129493+1006788111+1005451632+1001799790+996734513+994048957+995329705
1696+1000158344+1006321662+1010031593+1009472984+1005537214+1000216185
1687+993776945+984616960+974937403+972191896+975724271+979259812+979970718
1677+977156262+971200102+964016195+956784191+948384202+939437458+934635506
1667+935391158+937192596+937308712+937453748+940736018+946595735+951498536
1657+952869769+949786527+943688001+942177193+949345089+955192145+955510331
1647+954194394+957716778+965676569+972093405+974597123+973376698+968700853
1638+961401388+955738963+957576086+964052563+968554017+969085568+966735388
1628+963621302+960815348+958063449+956162838+956427589+957333366+955959217
1618+951851662+948539788+948941011+950577740+950664625+949344593+948529983
1608+949681210+952337536+955058280+957177966+959166642+961575345+964105873
1598+966024234+967166773+968116613+969403009+970940999+972446593+973894595
1588+975302941+976464842+977195918+977595590+977698176+976905908+974203596
1578+969424606+965198763+965428947+968253891+968852157+966246659+963749644
1568+964856188+968236514+971026581+971960533+969825891+962563414+951006580
1558+947043565+955664800+965606192+972464094+976400113+978276210+979494153
1548+980282511+978760160+973292854+964730887+955830503+950795760+956094261
1538+968982485+978679916+982105857+982184550+983557955+987034476+988972572
1528+987320948+983414657+979631804+976152925+972300192+969877463+970334044
1519+971695099+973353860+976834352+981007691+982131488+977687005+967271159
1509+952138817+938892441+937333660+940507200+937449714+926018739+908246580
1499+889729506+879542229+882769886+893094689+901732370+905989678+908773352
1489+915350801+926344248+936829044+942926639+943752792+940207943+933463674
1479+923454512+909154902+890507810+869474916+850228503+837894978+832364680
1469+828047981+820713886+809863304+798502892+789755240+782493694+773569478
1459+761728468+751333164+751309084+760009633+769600257+777529266+783825580
1449+789198927+794779618+800645417+805528607+808768676+810926281+812764894
1439+815021920+819534545+828642337+840805691+851917301+861372323+871463715
1429+883472290+895279353+903934039+908796563+910918731+910814345+908189794
1419+904995402+906641999+914911101+925662820+935594034+944075198+951525967
1409+957943238+962617717+965349881+967273517+969373902+970596872+969137513
1400+964823854+959339357+954244663+949814765+945625414+940236677+931024685
1390+915150407+891088016+861319571+831881413+807047793+788662784+778811007
1380+778431382+784886137+794177753+804976266+818388531+833904594+848404537
1370+859288384+865500543+866699620+863232532+857056430+852846227+855685445
1360+865591587+878201468+889737449+898837607+905834526+911374381+915644287
1350+918614454+920370463+921105573+921029921+920113594+917970821+914723739
1340+912259058+913363491+918445090+924923925+930185562+933258873+934449571
1330+934589270+934447275+934312417+933955630+933013361+931416475+929553535
1320+928202409+928132591+929352768+930914714+931805782+931708037+930772967
1310+929177632+927217195+925483589+924578494+924680274+925478810+926470728
1300+927340199+928167469+929312056+931096986+933538085+936316670+939052433
1290+941619143+944095802+946450885+948470405+950031047+951266429+952448500
1281+953844496+955661139+957926854+960340087+962362027+963591389+964042819
1271+964059948+964019298+964138269+964449503+964836887+965144832+965379298
1261+965749428+966360789+966976370+967286488+967245528+966944533+966393743
1251+965655903+964962684+964508089+964304778+964305150+964430637+964455834
1241+964054921+962995792+961209062+958737554+955761181+952710707+950231069
1231+948849161+948643678+949342607+950738043+952852640+955582321+958249632
1221+959850862+960061310+959833609+960530489+962454436+964632272+965983832
1211+966231641+965640574+964408171+962665939+960832415+959511141+958926963
1201+958695476+958267753+957459722+956555248+956165258+957015801+959511513
1191+963321983+967569857+971473666+974673768+977058516+978551015+979048805
1181+978377680+976333274+972936005+968716803+964757821+962335651+962279300
1171+964532355+968323523+972683107+976786938+980089688+982377807+983730236
1162+984390686+984603803+984472483+983999331+983303382+982635359+982103747
1152+981587711+980999375+980431581+979967677+979497256+978821290+977904218
1142+976960274+976301933+976173715+976675973+977674593+978831034+979922497
1132+981054299+982410203+983950551+985487238+986890184+988120974+989137405
1122+989801207+989920302+989457453+988636513+987763814+986969746+986118645
1112+984938745+983265897+981152541+978800500+976603548+975187073+975031549
1102+976003669+977470724+978741914+979219224+978406724+976103649+972518273
1092+968106559+963404338+958990203+955350028+952604397+950462556+948562875
1082+946738971+944849779+942604358+939805230+936643482+933592636+931090718
1072+929345693+928306609+927713557+927138812+926047721+924001143+920872845
1062+916864898+912505004+908777200+906968811+907980588+911640125+916690135
1052+921531434+925198606+927759233+929773912+931495354+932728130+933283760
1043+933253598+932827861+932100137+931137450+930044187+928846352+927512914
1033+926222484+925391491+925291821+925796561+926548428+927182316+927424850
1023+927249280+926946175+926841603+926975344+927191998+927414175+927634553
1013+927788650+927912710+928417512+929983181+933059658+937483413+942591697
1003+947622344+951959151+955189477+957227863+958410866+959244590+960008558
993+960652191+960956475+960672050+959610625+957701635+954976981+951546757
983+947581632+943263505+938840930+934787803+931691156+929874823+929284563
973+929730904+931022327+932909968+935113994+937376916+939418778+940946528
963+941775722+941886315+941417321+940666882+939921160+939115239+937783849
953+935506467+932353841+928863543+925691244+923314689+921938491+921556693
943+922017122+922984960+923942682+924390885+924093241+923164688+922015757
933+921150754+920799924+920679526+920202527+918953988+916939371+914439625
924+911771260+909256185+907318151+906401575+906660989+907695170+908627075
914+908618510+907485343+905781588+904266560+903460887+903644525+904903118
904+907064508+909751926+912487441+914735779+916059411+916258689+915239713
894+912879107+909089055+903771191+896709978+887854339+877780385+867831794
884+859973224+856374506+858469864+865951415+876750114+888178979+898212655
874+905972177+911466976+915160647+917653008+919422485+920611197+920952097
864+919917420+917174954+913158939+909084028+906144085+904772542+904781168
854+905905523+907907045+910341442+912565141+914012523+914412194+913790718
844+912324594+910212914+907704914+905094761+902436636+899262662+894807381
834+888494682+880034557+869191422+855635052+838804541+817869765+792331879
824+763203466+734038376+711074399+701426306+709021676+731176195+759721174
815+786214672+806345761+820123254+829351195+835641738+840055500+843392508
805+846209447+848617715+850316878+850989058+850742552+850161353+849883879
795+850213546+851160904+852592274+854138022+855209191+855424976+854993157
785+854540548+854586597+855216762+856204832+857340110+858550977+859800261
775+861043462+862301248+863655104+865199735+867077570+869467530+872392455
765+875579276+878640858+881422670+884061743+886663889+889073089+891026204
755+892360076+893021582+893104123+892917258+892812251+892886786+892965603
745+892867857+892649403+892581571+892906707+893699161+895004486+896960828
735+899635275+902822406+906069550+908897660+911140909+913132439+915356697
725+917862091+920229089+922092650+923456249+924511593+925350282+925852788
715+925734066+924718504+922779601+920193342+917351455+914644922+912529891
705+911450778+911494717+912208292+912923604+913280888+913449694+913898827
696+914955785+916610449+918726101+921266373+924197069+927299673+930234900
686+932863422+935452908+938360083+941426941+944000229+945716085+946953143
676+948341008+950162430+952404499+955037055+957794354+959495874+958942726
666+957350185+956274609+955835157+955809650+956225333+957084378+958077289
656+958746925+958792415+958262540+957503971+956709780+955608263+953905501
646+951764404+949401627+946582702+942975481+938597404+933452689+927155072
636+919357197+910285959+900735550+891986098+885708215+883314345+885206206
626+890677174+898243872+906131363+912859309+917573881+920026957+920474850
616+919549710+918000921+916382934+914861018+913364919+912099251+911673949
606+912429166+913939291+915513401+916936703+918535016+920692931+923371164
596+926079807+928406155+930460181+932644161+935084639+937490425+939514290
586+941038502+942056858+942471548+942316396+942172911+942865696+944565416
577+946459325+947312661+946490417+944643178+943137150+942599331+942330421
567+941556027+940665269+940555607+941390697+942567618+943526146+944156374
557+944512230+944465250+943791829+942518590+941011568+939716173+938939483
547+938953384+940103308+942464349+945483543+948344918+950632354+952405058
537+953843875+955091793+956152412+956677260+956195730+954773670+953202229
527+952549535+953454506+955376900+956818324+956759863+955762484+955524357
517+957009781+959322476+960936119+961211420+960636737+960606079+962522392
507+965886769+967943711+966808992+964213114+963622916+965929467+968913845
497+970488514+970235368+968522738+965748932+962496947+959416995+956606448
487+953673456+950454550+947323894+944884036+943556618+943443419+944352734
477+945736379+946795694+947270584+948099964+950393730+953715968+956922710
467+959831189+962696783+965327601+967364064+968221371+966904690+963648051
458+961188582+961425220+962752700+964127532+966830527+970493913+971851554
448+969279756+965297626+963287850+963935516+965712813+966950615+966838905
438+965315003+962713974+959671941+957057258+955674544+956037227+958365623
428+962612442+968412208+974683450+979141400+979000522+972972993+965028530
418+964522363+972253274+979735073+981941458+980242482+979876448+983989650
408+990298376+994472770+994416295+990344301+983420925+976071998+971861670
398+972709855+976384163+981282745+989218767+1000087719+1009821518+1013983251
388+1011906015+1006288956+999961674+995115906+993723572+995782439+999319469
378+1002820876+1006304347+1009942909+1013198493
##END=
