##TITLE=CZ 093 F2
##JCAMP-DX=4.24
##DATA TYPE=INFRARED SPECTRUM
##DATE=28/2/2019
##SAMPLING PROCEDURE=Diamant-ATR
##ORIGIN=Rieke
##XUNITS=1/CM
##YUNITS=TRANSMITTANCE
##RESOLUTION=4
##FIRSTX=3997.453
##LASTX=373.96442
##DELTAX=-1.4165319
##MAXY=1.0078353
##MINY=0.72178912
##XFACTOR=1
##YFACTOR=9.3861974e-010
##NPOINTS=2559
##FIRSTY=1.0078353
##XYDATA=(X++(Y..Y))
3997+1073741823+1073612532+1073679718+1073721756+1073480066+1072851773
3989+1072107016+1071657292+1071522032+1071340034+1070942508+1070526186
3980+1070217184+1069872111+1069419847+1068999207+1068659215+1068293060
3972+1067955481+1067868228+1068027365+1068185867+1068243020+1068269056
3963+1068171262+1067749987+1067086640+1066568333+1066476636+1066673112
3955+1066685559+1066208909+1065564741+1065381790+1065734038+1066001129
3946+1065790174+1065441419+1065394173+1065559279+1065556739+1065332576
3938+1065198014+1065310477+1065394173+1065275614+1064757815+1064235381
3929+1063928791+1063759620+1063684370+1063669002+1063432265+1062706496
3921+1061727669+1061103313+1061279659+1062139673+1063087129+1063666589
3912+1063936856+1064122092+1064100882+1063512532+1062377553+1061304298
3904+1060933508+1061233430+1061731670+1062266741+1062870142+1063319612
3895+1063350030+1063050997+1062810576+1062887795+1063106942+1063225755
3887+1063212420+1062963427+1062390317+1061851753+1061815239+1062153008
3878+1062307573+1062216638+1062272838+1062541135+1062669855+1062584063
3870+1062614671+1062739581+1062546343+1062061438+1061797522+1062054326
3861+1062556312+1062920690+1063002925+1062829881+1062616640+1062773554
3853+1063376447+1063735743+1063566700+1063134375+1062608067+1062158025
3844+1062015335+1062133640+1062094650+1061656737+1061131254+1060997074
3836+1061319158+1061797585+1062167106+1062295952+1062174980+1061895189
3827+1061565865+1061310268+1061310141+1061734591+1062488873+1062985398
3819+1062791653+1062352279+1062342690+1062880492+1063517104+1063842999
3810+1063723678+1063273001+1062839978+1062633214+1062392984+1061974440
3802+1061749768+1061973932+1062215939+1062126972+1061875947+1061628161
3793+1061356307+1061112521+1061045081+1061133604+1061176023+1061026412
3785+1060703883+1060415772+1060551223+1061399235+1062653916+1063471192
3776+1063420898+1062817181+1062074964+1061449401+1061238764+1061643782
3768+1062370123+1062896368+1063010355+1062800352+1062430832+1062026639
3759+1061649434+1061343479+1061242955+1061540527+1062304779+1063309070
3751+1063853921+1063232296+1061846101+1060802248+1060852796+1061705126
3742+1062202223+1062176377+1062386380+1063111387+1063775051+1063674273
3734+1063122564+1062943677+1063101100+1062959299+1062179807+1061014092
3725+1060084226+1059835296+1060221963+1060961068+1061718652+1062154533
3717+1062126782+1061782853+1061426985+1061398345+1061873090+1062536944
3708+1062877508+1062750376+1062349295+1062022828+1062037434+1062165645
3700+1061886870+1061281056+1060965513+1061160529+1061443051+1061388820
3691+1061086612+1060938080+1061015934+1060866132+1060360970+1060002371
3683+1060191291+1060625521+1060592055+1059978240+1059641360+1060515344
3674+1062196889+1063437853+1064046778+1064525142+1065068152+1065394173
3666+1065283234+1064811602+1064258876+1063811629+1063378733+1062866331
3657+1062447533+1062286110+1062182410+1061919383+1061653562+1061747101
3649+1062332466+1062939613+1063007561+1062539929+1061898999+1061450735
3640+1061352814+1061546624+1061945546+1062487222+1062982160+1063108276
3632+1062692716+1061995205+1061788504+1062629658+1063796261+1064329047
3623+1064074973+1063412643+1062855345+1062660012+1062576697+1062224639
3615+1061663849+1061354592+1061653562+1062342817+1062788033+1062541643
3606+1061809587+1061250956+1061243717+1061551259+1061646831+1061366404
3598+1061058290+1061038350+1061293249+1061671025+1062023146+1062208319
3589+1062127099+1061767041+1061267276+1060874450+1060737857+1060909059
3581+1061384121+1061905539+1061987966+1061491821+1060851653+1060380655
3572+1059825644+1058987412+1058260563+1058260499+1059116385+1060270479
3564+1061131826+1061514555+1061476707+1061219840+1061051559+1061167832
3555+1061418412+1061409077+1060988247+1060519472+1060391514+1060484037
3547+1060429997+1060124614+1059727914+1059316926+1058835514+1058322795
3538+1058016840+1058167976+1058704508+1059228785+1059517594+1059776366
3530+1060198975+1060548048+1060475464+1060063969+1059710959+1059638502
3521+1059772683+1059937472+1060010182+1060017548+1060138267+1060405993
3513+1060467400+1059997926+1059346518+1059221799+1059635581+1059877081
3504+1059646250+1059498225+1059927438+1060516487+1060460033+1059576587
3496+1058503333+1058000711+1058244052+1058868599+1059476190+1059886289
3488+1060078447+1060065239+1059825390+1059405258+1059024243+1058837419
3479+1058656882+1058231733+1057658179+1057236332+1057075226+1057022329
3471+1056893546+1056717962+1056714469+1056897737+1056893927+1056424961
3462+1055688777+1055020605+1054574564+1054455497+1054677819+1054933733
3454+1054870549+1054548210+1054272292+1054107313+1053799516+1053114325
3445+1052194810+1051569184+1051654277+1052196524+1052416814+1051897301
3437+1051096979+1050718124+1050744668+1050490976+1049559712+1048303253
3428+1047265560+1046587163+1046101306+1045691207+1045405764+1045350326
3420+1045473330+1045457074+1044954579+1043997216+1043065191+1042676619
3411+1042912086+1043320534+1043275193+1042425721+1040855179+1038925022
3403+1037088468+1035764379+1035171012+1035205113+1035505924+1035620609
3394+1035176473+1034086073+1032645075+1031262881+1030060272+1028883127
3386+1027638225+1026393958+1025217131+1024152894+1023312121+1022707578
3377+1022072681+1021109158+1019891689+1018781095+1017948832+1017216903
3369+1016340823+1015247819+1014036447+1012918550+1012077968+1011440911
3360+1010705744+1009709136+1008593144+1007532273+1006537126+1005619008
3352+1004901049+1004465232+1004298347+1004438624+1004924354+1005502671
3343+1005671969+1005246058+1004733530+1004874505+1005902737+1007446608
3335+1008969079+1010065004+1010596011+1010831987+1011258659+1012070602
3326+1013035521+1013879532+1014588918+1015323451+1016172923+1017018902
3318+1017619445+1017839608+1017745370+1017512761+1017325175+1017273801
3309+1017296535+1017263260+1017081325+1016685070+1016056840+1015290239
3301+1014439179+1013316647+1011693778+1009707104+1007809461+1006217645
3292+1004616812+1002571525+1000051368+997378296+994842008+992575289+990583217
3282+988722596+986817967+984875046+983047128+981424832+979973356+978641012
3272+977516574+976843702+976724762+976880343+976941750+976915333+977135750
3262+977845643+978989386+980313221+981583143+982793500+984174043+985973257
3252+988219783+990645132+992870893+994742373+996424172+998118861+999859463
3242+1001640580+1003511171+1005406719+1007075500+1008323767+1009256745
3234+1010166290+1011205825+1012298321+1013383959+1014587203+1016013151
3225+1017477263+1018609512+1019242250+1019580654+1019929791+1020353479
3217+1020744781+1021147514+1021749707+1022558538+1023339364+1023954131
3208+1024546291+1025292953+1026157983+1026974307+1027619047+1028075503
3200+1028470869+1029017498+1029764985+1030539525+1031280852+1032187032
3191+1033334140+1034421873+1035091126+1035292873+1035253692+1035270901
3183+1035558377+1036095226+1036589593+1036754001+1036679512+1036775020
3174+1037223411+1037701902+1037834749+1037703426+1037626588+1037649131
3166+1037588550+1037437160+1037391565+1037563085+1037893996+1038311652
3157+1038801065+1039357537+1039919915+1040344048+1040499756+1040446096
3149+1040421457+1040620791+1041065689+1041624130+1042019432+1041977775
3140+1041567740+1041209332+1041198981+1041445942+1041752722+1042113924
3132+1042645249+1043347205+1043998740+1044296440+1044154448+1043819473
3123+1043580386+1043430774+1043146410+1042690463+1042381079+1042514307
3115+1042933106+1043191370+1043069191+1042710212+1042361139+1042187079
3106+1042241945+1042437660+1042592542+1042568411+1042397780+1042300177
3098+1042472141+1042806291+1042967524+1042807752+1042484524+1042106431
3089+1041496490+1040453653+1039154520+1038156388+1037908792+1038320352
3081+1038917402+1039366618+1039701276+1040113407+1040711854+1041442068
3072+1042078871+1042319164+1042031688+1041425304+1040834794+1040364749
3064+1039890005+1039387383+1039037294+1039001923+1039312133+1039951094
3055+1040832064+1041681981+1042111003+1041861629+1040956783+1039599291
3047+1037922001+1035880143+1033497405+1031218175+1029855921+1030014105
3038+1031500952+1033367606+1034591107+1034722748+1033879245+1032319625
3030+1030307042+1028339165+1027119347+1027034126+1027800156+1028797399
3021+1029624327+1030218647+1030624237+1030771563+1030460210+1029604896
3013+1028474806+1027446194+1026571384+1025767824+1025342993+1025849298
3004+1027420856+1029580257+1031627194+1033046093+1033729443+1033903566
2996+1033744366+1033244729+1032599734+1032302479+1032531533+1032785225
2987+1032357854+1030903267+1028466614+1025405162+1022488558+1020690423
2979+1020535541+1021729640+1023553494+1025492922+1027350242+1028966633
2970+1030155017+1030892344+1031367025+1031708605+1031666566+1030683040
2962+1028391301+1024937212+1020673277+1015788162+1010533843+1005649997
2953+1002165935+1000672231+1000905856+1002041534+1003237666+1003877453
2945+1003622427+1002562000+1001153897+999730553+998178554+996218805+993733510
2935+990724510+987304015+983885615+981115956+979423108+978665587+978275872
2925+977784872+977212270+976912031+977100887+977707907+978706927+980404093
2915+983174324+986942749+991145595+995171904+998608402+1001196253+1002986831
2905+1004472154+1006137378+1007886680+1009168159+1009594959+1009278907
2897+1008583556+1007706841+1006661972+1005655839+1005179126+1005561474
2888+1006675117+1008184252+1009863003+1011625323+1013453304+1015322752
2880+1017100440+1018585000+1019729441+1020710744+1021673314+1022503481
2871+1022996514+1023168288+1023247476+1023400326+1023602518+1023702026
2863+1023465543+1022641917+1021089853+1018833485+1016034170+1012998436
2854+1010165338+1007976282+1006747383+1006678990+1007883124+1010254940
2846+1013309344+1016336505+1018881238+1020983169+1022864747+1024553213
2837+1025942011+1027075975+1028170503+1029328914+1030383436+1031142671
2829+1031677298+1032174586+1032624373+1032895656+1033047744+1033316804
2820+1033805328+1034361673+1034815335+1035202636+1035601177+1035859061
2812+1035793907+1035596351+1035671474+1036114023+1036666558+1037113932
2803+1037410997+1037539843+1037526317+1037528921+1037713967+1038076502
2795+1038477520+1038824752+1039142835+1039496481+1039907278+1040312042
2786+1040579261+1040622379+1040492199+1040305057+1040142745+1040072829
2778+1040150175+1040337824+1040541477+1040712806+1040824126+1040838478
2769+1040819808+1040925793+1041215238+1041579170+1041895730+1042121925
2761+1042236674+1042230197+1042165933+1042135515+1042139516+1042111765
2752+1042057978+1042050930+1042092333+1042097985+1042028323+1041939800
2744+1041897444+1041864360+1041712589+1041402316+1041095853+1040975643
2735+1041025238+1041131986+1041270802+1041463024+1041718494+1042097159
2727+1042631215+1043150220+1043384417+1043280337+1043060428+1042957554
2718+1042998450+1043063730+1043063159+1043005625+1042929549+1042839821
2710+1042743805+1042697448+1042754473+1042885352+1043016611+1043135805
2701+1043280654+1043453572+1043622615+1043782578+1043939111+1044052082
2693+1044047891+1043876942+1043570734+1043254491+1043058713+1043003847
2684+1043006959+1042996926+1042989115+1043028740+1043079034+1043029566
2676+1042871445+1042752251+1042752886+1042748187+1042631152+1042540026
2667+1042720753+1043224836+1043821251+1044182961+1044174769+1043962099
2659+1043807026+1043803724+1043866337+1043887992+1043834904+1043764988
2650+1043794770+1043983817+1044254464+1044469738+1044542638+1044460911
2642+1044329905+1044361085+1044642655+1044963850+1045040561+1044860913
2633+1044658784+1044637702+1044826812+1045098666+1045297619+1045422211
2625+1045580840+1045721942+1045650248+1045364106+1045102667+1045043990
2616+1045192459+1045479172+1045766648+1045905528+1045909021+1045910926
2608+1045969411+1046107529+1046409928+1046834442+1047104962+1047051810
2599+1046897944+1046966971+1047239270+1047464894+1047592788+1047729445
2591+1047746972+1047414028+1046900357+1046620311+1046652698+1046845047
2582+1047252351+1047857402+1048187107+1047885788+1047323283+1047046095
2574+1046997389+1046834886+1046671113+1046933886+1047644923+1048334814
2565+1048672837+1048773298+1048849628+1048919925+1048909384+1048775775
2557+1048561644+1048454833+1048654231+1049105289+1049541805+1049751680
2548+1049645187+1049252170+1048779077+1048484616+1048454643+1048617527
2540+1048864678+1049069093+1049140406+1049104908+1049034484+1048969838
2531+1048942850+1048963043+1048963678+1048836102+1048555104+1048309476
2523+1048429686+1049002605+1049645441+1049917295+1049860206+1049861539
2514+1050068748+1050215439+1050050904+1049707102+1049500147+1049542186
2506+1049758094+1050109453+1050522409+1050750955+1050626490+1050381561
2497+1050456367+1050951305+1051455006+1051524478+1051205569+1050926666
2489+1050993534+1051357911+1051720129+1051733655+1051273199+1050559241
2480+1049893735+1049373714+1048975363+1048730307+1048708716+1048935991
2472+1049318848+1049621945+1049633375+1049379937+1049074300+1048891984
2463+1048898398+1049091255+1049396194+1049655538+1049708245+1049526755
2455+1049250201+1049054360+1048986539+1048940119+1048785554+1048562153
2446+1048515796+1048836991+1049392574+1049873795+1050171177+1050383149
2438+1050473957+1050231949+1049692178+1049349138+1049691162+1050639571
2429+1051604554+1051988490+1051578963+1050623696+1049650648+1049150249
2421+1049304877+1049875955+1050370321+1050504819+1050448493+1050414455
2412+1050307327+1050062842+1049935964+1050104881+1050379783+1050530665
2404+1050576069+1050619314+1050651637+1050605852+1050509455+1050502724
2395+1050624902+1050688786+1050529776+1050249539+1050062207+1050036616
2387+1050110723+1050242554+1050459859+1050745303+1050904123+1050711901
2378+1050299833+1050201722+1050790326+1051746736+1052329625+1052192333
2370+1051716954+1051398362+1051212300+1050922348+1050660718+1050723966
2361+1051076659+1051484154+1051844594+1052094285+1052081648+1051766168
2353+1051316571+1050903678+1050592199+1050472877+1050695708+1051293456
2344+1052046722+1052709052+1053195227+1053300070+1052696923+1051459451
2336+1050179115+1049393590+1049152598+1049224292+1049412704+1049499195
2327+1049213815+1048549897+1047885471+1047646193+1047990948+1048779521
2319+1049629438+1050166986+1050427664+1050716727+1050967561+1050648589
2310+1049494876+1048009300+1047037014+1046965955+1047464259+1048004538
2302+1048464549+1049037913+1049739043+1050274813+1050344349+1049938822
2293+1049401718+1049154948+1049292177+1049538693+1049632232+1049618960
2285+1049756062+1050219566+1050910663+1051509872+1051745149+1051661580
2276+1051614715+1051879012+1052277299+1052449772+1052424561+1052489080
2268+1052585286+1052436944+1052174489+1052140769+1052168710+1051842054
2259+1051454308+1051826623+1052955442+1053665145+1053048155+1051535019
2251+1050143871+1049441979+1049462998+1049868842+1050094085+1049848902
2242+1049332120+1048782061+1048336211+1048312715+1048984888+1050223059
2234+1051736322+1053193195+1053960432+1053562208+1052519180+1051893300
2225+1052094412+1052787732+1053512930+1053681529+1052730770+1051120602
2217+1050242745+1050610170+1051209442+1051196424+1050956258+1051013156
2208+1051166896+1051176739+1051397219+1052346263+1053927855+1055215938
2200+1055253786+1054118235+1052650376+1051240177+1049769207+1048546658
2191+1048238100+1048833308+1049495194+1049689003+1049970065+1051145559
2183+1052799797+1053655937+1053676068+1054279658+1055863981+1056900785
2174+1056292368+1054857848+1053612629+1052494224+1051494314+1051299298
2166+1052231070+1053886324+1055910274+1058004712+1059480254+1059818786
2157+1059270061+1058480916+1058237448+1059085587+1060452731+1060962528
2149+1060099213+1058863646+1058575027+1059476635+1060565701+1060749859
2140+1060150650+1059811546+1060062572+1059993862+1058837038+1057124060
2132+1055989462+1055805368+1055990414+1055951678+1055631371+1055063913
2123+1054126871+1053028597+1052324291+1052217163+1052456376+1052907053
2115+1053609009+1054448956+1055227242+1055716211+1055542087+1054614761
2106+1053587672+1053209452+1053436917+1053732140+1053749413+1053321470
2098+1052485714+1051872979+1052249231+1053424026+1054389645+1054598441
2089+1054467943+1054688170+1055469440+1056389971+1056788449+1056404641
2081+1055624767+1055014890+1054793838+1054833146+1054911762+1054825843
2072+1054398535+1053582147+1052676603+1052352042+1053109054+1054643845
2064+1056022610+1056522311+1056101416+1055288014+1054821144+1055028035
2055+1055387903+1055123923+1054187897+1053243997+1052926929+1053475209
2047+1054741575+1056250330+1057517775+1058325653+1058547276+1058119270
2038+1057322314+1056559840+1055950027+1055667441+1056035501+1056755428
2030+1057132887+1057248778+1057538985+1057588644+1056839378+1055696525
2021+1054718778+1053876164+1053374939+1053930204+1055727387+1058060022
2013+1060094132+1061494679+1062521894+1063574257+1064432111+1064464688
2004+1063666462+1062652773+1061690711+1060509248+1059020179+1057754829
1996+1057326061+1057641033+1058003378+1058018238+1057927556+1057909267
1987+1057679134+1056985878+1056008131+1055182981+1054862103+1055135036
1979+1055925705+1057079608+1058285837+1059464887+1061177166+1063626646
1970+1065394173+1064550607+1061177547+1057708219+1056294146+1056956096
1962+1058183852+1058313905+1056884719+1055281409+1055327957+1057026901
1953+1058476027+1058276311+1057131870+1056502752+1056587147+1056524279
1945+1056008449+1055688269+1056007179+1056433852+1056244678+1055528624
1936+1055008920+1055099221+1055505573+1055918593+1056593878+1057787470
1928+1059088127+1059811546+1059656410+1058673138+1057116630+1055558661
1919+1054681629+1054716555+1055173265+1055358374+1055049054+1054491439
1911+1054100518+1054233619+1054943005+1055830578+1056337328+1056311165
1902+1056156536+1056254648+1056372953+1055951678+1054891949+1053784466
1894+1053348967+1053800342+1054690837+1055201714+1054926113+1054449972
1885+1054521984+1054985297+1055135544+1054831431+1054602822+1054814666
1877+1055309477+1055778633+1056122817+1056484908+1057013883+1057545652
1868+1057642494+1057209915+1056739616+1056677510+1056992673+1057350700
1860+1057568069+1057825000+1058316953+1058873552+1059147120+1059055677
1851+1058814939+1058594268+1058369724+1058151974+1058130129+1058412397
1843+1058767566+1058941500+1058929434+1058775568+1058566010+1058532163
1834+1058782870+1059097652+1059196081+1058984237+1058510064+1057929017
1826+1057522728+1057511107+1057803472+1058157689+1058492537+1058779568
1817+1058866249+1058689204+1058479646+1058494823+1058722416+1058990777
1809+1059210432+1059353884+1059371792+1059291398+1059259647+1059427928
1800+1059798909+1060175542+1060359954+1060394753+1060468606+1060620822
1792+1060674735+1060522964+1060269526+1060044918+1059954554+1060057872
1783+1060238283+1060260128+1060029169+1059685304+1059398400+1059196208
1775+1059085206+1059210115+1059669047+1060183925+1060405167+1060352905
1766+1060291942+1060449428+1060818187+1061113093+1061097344+1061009711
1758+1061207775+1061573295+1061692235+1061492329+1061327159+1061511443
1749+1061859437+1061895824+1061575200+1061270388+1061289312+1061651022
1741+1062125385+1062398699+1062402446+1062392413+1062584825+1062867855
1732+1063003687+1063100719+1063334090+1063603976+1063717137+1063679226
1724+1063668748+1063759811+1063852207+1063897040+1063989245+1064163369
1715+1064276975+1064273800+1064247001+1064300153+1064470657+1064668150
1707+1064716475+1064529714+1064223506+1064030331+1064204836+1064777247
1698+1065296125+1065394173+1065138068+1064583120+1063968924+1063478177
1690+1063118754+1062815212+1062543866+1062352978+1062254993+1062028798
1681+1061396948+1060404659+1059293811+1058216111+1057092118+1055803018
1673+1054394534+1052870539+1051042494+1048793365+1046347314+1043821187
1664+1040768053+1036524122+1031110094+1025124799+1018672442+1011488094
1656+1002668684+988700497+966322871+944445582+930554613+920074107+908672942
1646+896383442+885171514+874319011+861949243+847880658+833496720+820395087
1636+810994249+808961854+814390868+824400821+837914522+854681643+872724147
1626+889238528+903563536+916433068+927304241+935413820+942033378+949376165
1616+957790620+964985193+969796963+973029872+975180065+975763843+974020828
1606+969995472+964775889+959626285+955147585+951281493+947905576+945281909
1596+943978140+944534422+947319385+952515726+959811903+968079095+975770384
1587+981777207+985806436+988149423+989232838+989341363+988779684+988226896
1577+988876081+991518481+995437026+999968878+1005428119+1011682856+1017159306
1567+1020652766+1022441122+1023143332+1023192546+1022903928+1022299702
1558+1020872167+1018399382+1015112432+1010970549+1005875939+999678291+992318104
1548+984258945+975915868+966921191+956879233+945913504+933503667+919754499
1538+907980385+899309761+891554081+883227260+875430176+870652443+869636722
1528+871946432+877275176+884642094+892845086+902367086+913987398+925929604
1519+936629384+947119797+957887715+967911703+976852783+985040089+992456666
1509+999427139+1006248571+1010223316+1008768030+1002360316+990193566+969803758
1499+939671532+903200365+870895276+851931479+846637217+851975042+865355514
1489+882360388+897855619+910399637+920972032+930315273+938464351+945061302
1479+950150578+954538533+959198469+964923087+972234250+980211871+986729000
1469+991128703+994051911+995789274+996073511+994955424+992984308+989957210
1459+983259481+968201337+947147357+931710866+925946559+926922337+931782179
1449+938947985+947665029+957220559+966733732+975462460+982543745+986888074
1439+987507476+983823700+977487426+972958940+971858760+970804747+964953060
1429+952293595+936847007+925780055+924267681+932576277+946277691+960955518
1419+974574823+985010878+990460149+991706639+990297901+987111348+982901898
1409+978777605+975978037+975494021+977659264+981670395+986182942+990588234
1400+994870140+998761824+1001891351+1004262532+1005858221+1006314232+1005231960
1390+1002036644+995482049+984228782+968616707+951254949+936115078+927129482
1380+925557225+928734570+933302745+939045652+948078938+960686966+974403113
1370+987009617+997568930+1005669492+1011447770+1015585271+1018688699+1020856672
1360+1021788634+1021123002+1018537563+1013642224+1006052729+995735424+983284501
1350+970049131+957920990+948387623+941616866+936690029+932493851+928150602
1340+922960865+916503619+908914887+900827597+893090205+886627752+882326541
1330+880850745+882467136+886947170+893533770+900947870+907608514+912241589
1320+914422009+914467603+912914778+910222148+906895509+903770808+902115617
1310+903209637+907557585+914531423+922895076+931646919+940266613+948425851
1300+955816647+962206516+967520147+971891591+975556507+978583415+980809620
1290+982079542+982297736+981155200+978139533+973087977+966558275+959451018
1281+952407709+945744080+939798219+935085195+932140142+931324898+932663275
1271+935756035+939945608+944600274+949184452+953127128+955824775+956964072
1261+956954166+956928130+958014974+960557485+964104033+967965108+971579731
1251+974477156+976172481+976302725+974927897+972708169+970760168+970247957
1241+971904990+975704659+980886648+986403486+991498732+995952031+999865686
1231+1003325363+1006295944+1008755266+1010818080+1012695402+1014535893
1222+1016314152+1017912191+1019325756+1020734367+1022279064+1023804202
1214+1024926353+1025365409+1025102128+1024159942+1022324404+1019266762
1205+1014980347+1010006836+1005231960+1001595937+999953193+1000840893
1197+1004096410+1008760410+1013543160+1017458530+1020069179+1021316049
1188+1021290521+1020204248+1018385602+1016021724+1012858603+1008469315
1180+1002957557+996916760+990213379+981248930+968309164+951880130+935251444
1170+922737590+917338739+919568501+927718086+938904740+950138830+959136046
1160+965086161+969003691+972683403+976729398+979971515+981187523+980761041
1150+979817204+977833641+971926581+959355384+941221690+923413510+913051880
1140+913496397+922756577+936181565+949852370+961827597+971685526+979733444
1130+986388881+991906163+996476053+1000340875+1003726190+1006775324+1009476717
1120+1011472599+1011942644+1009762478+1003997600+994921386+985036279+978370110
1111+977459739+980756786+983751180+983010805+978936298+974785588+973645465
1101+976405853+981944028+988468332+994455977+998882669+1001493508+1003110217
1091+1005033071+1007731162+1010316855+1011205698+1008911101+1002703992
1082+993537287+984322765+978477937+977897017+982311008+990020204+998834216
1072+1006917061+1013489818+1018776396+1023257763+1027213203+1030811823
1064+1034133890+1037019949+1039176746+1040473339+1041032922+1041043908
1055+1040502486+1039050757+1036009625+1030444208+1020992377+1005831995
1047+983741274+956268085+928916949+909067991+901584038+906122938+918459303
1037+933699000+948170064+959486262+966203360+967918624+965628980+961620516
1027+958303783+956651196+955893104+954945838+953973361+954371077+957443643
1017+963378517+971297018+979899947+988093921+995323039+1001479347+1006515281
1007+1010062781+1011351437+1009811629+1006147157+1002355617+1000076388
999+999437045+1000050161+1002149742+1005848505+1010199502+1013982343+1016881420
989+1019295465+1021508334+1023529300+1025432341+1027424349+1029564953
980+1031624654+1033321948+1034564309+1035336690+1035525038+1035048960
972+1034124047+1033321821+1033319725+1034425938+1036263317+1038076883
963+1039424342+1040420251+1041316206+1042052835+1042243342+1041411905
955+1039246979+1035777016+1031383345+1026774465+1023083132+1021687538
946+1023336189+1027327952+1031868059+1035269568+1036712787+1036245918
938+1034673978+1033430537+1033930746+1036597912+1040545350+1044315300
929+1046860795+1047956530+1048122271+1048280138+1049118624+1050623759
921+1052342072+1053960368+1055413621+1056654078+1057573339+1058043512
912+1057938478+1057201723+1055839215+1053727759+1050455922+1045310955
904+1037233317+1024844689+1007172595+985380780+964152422+950203539+947721165
894+954977208+966152177+976249383+983468213+987721670+989047030+988047247
884+986393707+985650792+985514198+983534510+977267835+967500397+959098262
874+957613575+964815133+977826656+992031644+1004094632+1012747474+1017925781
864+1019859684+1019046218+1016754859+1014936340+1015169521+1017690377
856+1021580092+1025823262+1030059827+1034349735+1038486792+1041930529
847+1044476977+1046546585+1048498968+1050014390+1050455922+1049509926
839+1047241619+1044012774+1040653812+1038210683+1037109868+1036882466
830+1036921711+1037108471+1037376769+1037056780+1035279283+1032044977
822+1028342023+1025122068+1022734122+1021480457+1022043025+1024914986
813+1029550919+1034296202+1037289644+1037304694+1033359859+1024180644
805+1009669701+993052065+979866418+974185172+976695805+985980179+999859908
795+1015437692+1029510658+1039937124+1046496609+1050382259+1053007831
786+1055146848+1056902436+1058257515+1059458346+1060852224+1062516306
778+1064134920+1065223098+1065394173+1064222299+1060604120+1053358936
769+1042941107+1032432469+1025762998+1024731655+1028226702+1034036414
761+1040340555+1045177218+1045481903+1037548924+1018328132+986777008+946278199
751+906902685+882428780+881422902+901042425+930673554+960512843+985905183
741+1005961095+1021056324+1031881268+1039432089+1045013636+1049873414
732+1054575008+1058697714+1061089343+1060063334+1053104419+1037130824
724+1010816682+977881586+947466330+929083071+925105913+927704052+923015731
714+899529670+856681335+807975407+773976581+768989924+792190224+830709916
704+870353664+903305652+928183496+946152147+958112641+964453487+966442510
694+967149229+969965499+975789053+982003466+984605542+981895893+976401661
684+972738587+973421428+977123748+980825623+982694817+982732601+981621181
674+979705693+977077645+973796283+969326981+962706788+955148601+949160829
664+943954581+937318068+928338505+917705974+906847438+897593735+892322969
654+893171742+900744345+913410986+927812007+940331132+948372192+950808273
645+947938534+941476398+934243915+929108472+927845917+930832373+937152136
635+944404369+949390835+950595984+949766134+949979312+952511218+956417507
625+960402221+963868185+966639431+968867986+971204876+974355359+978088858
615+980675947+979750907+974363995+966371197+959436921+956332985+957209700
605+960286139+963717366+966576564+968663952+970277867+972098164+974598637
595+977575377+980316269+981461028+978702545+970192139+956834273+942374513
585+931155220+925841526+926589712+931344330+936759564+939741639+938280765
575+930638818+914895483+891035203+864013517+843437583+837760211+847928349
565+867739142+889788650+909858215+926810637+940572886+951270761+959680516
555+967236291+974979905+982735331+989566734+994876744+998905022+1002383368
545+1005998244+1010087674+1014476519+1018505749+1021486744+1023248111
537+1023987216+1023545937+1021244291+1016889675+1012019482+1009430107
528+1010787598+1015038706+1019450474+1021700112+1020141381+1012509912+995945236
518+969437031+936910954+906599461+885409585+874788484+872180566+874261668
509+878225109+882082883+885712111+890974177+899592919+911136011+923467677
499+934854999+945026883+954714816+964506765+973792219+981206764+986381832
489+990491329+995024959+1000755546+1007356117+1013263241+1016528918+1016380893
479+1013783517+1010741115+1009255475+1010596901+1014797714+1020225776
470+1024574423+1026938492+1028160406+1029396227+1030502122+1029682242
462+1025540549+1019976465+1017937592+1022465189+1030040586+1034803714
453+1034948499+1031670249+1026446094+1020701282+1016216295+1014789268
445+1017315332+1023192165+1030472212+1036947874+1041550276+1044481994
436+1046586465+1048720655+1050718759+1051152227+1048897763+1044286152
428+1038056245+1030427252+1022135358+1014599205+1008020860+1002021213+999846382
418+1006734301+1020382055+1034452990+1046375573+1055777490+1061937926
409+1063881100+1061598569+1056856270+1052878286+1052659140+1056781845
401+1062536627+1065394173+1065618591+1063908787+1064064178+1065525623
392+1066508387+1066057139+1063292623+1057592962+1050164700+1044569945
384+1043319835+1043558922+1041233018+1037832780+1038623639+1046650031
375+1058284122+1065394173
##END=
