##TITLE=X9465
##JCAMP-DX=4.24
##DATA TYPE=INFRARED SPECTRUM
##DATE=5/11/2018
##SAMPLING PROCEDURE=ATR platinum Diamond 1 Refl
##ORIGIN=ComPlat
##XUNITS=1/CM
##YUNITS=TRANSMITTANCE
##RESOLUTION=4
##FIRSTX=3997.453
##LASTX=373.96442
##DELTAX=-1.4165319
##MAXY=1.138045
##MINY=0.77268088
##XFACTOR=1
##YFACTOR=1.059887e-009
##NPOINTS=2559
##FIRSTY=1.0010116
##XYDATA=(X++(Y..Y))
3997+944451296+944091380+943463609+942899160+942718753+943075407+943861597
3988+944674893+945026711+944778931+944317677+944140981+944296870+944374589
3978+944033681+943361314+942673707+942157116+941851413+941846576+942276900
3968+943063765+943710882+943585699+942678656+941855912+941846014+942290172
3958+942455340+942300632+942086539+941490148+939913043+937557452+935760968
3948+935760968+937040636+937950885+937986876+938283413+939669987+941444821
3938+942584684+942703906+941696030+939592718+937166157+935912863+936452174
3928+937602385+937865686+937167619+936766594+937260916+937631404+936874119
3918+935640902+935789874+938093164+941230502+943504156+944338372+943934030
3908+942184728+938492501+932826195+926853510+923122479+922603301+924601788
3898+928170856+931976400+934290038+934075945+932130770+931174801+932727274
3888+934722162+934609857+932366965+930153428+929044551+928650669+929712869
3878+932666032+935213278+934864778+931638136+927640206+924687549+923804126
3869+925381568+927619623+928053490+926781133+926648583+929199202+932419715
3859+933838401+932595567+928499785+921572256+915752816+917427211+924540209
3849+931807353+936594060+938011677+936137023+931838564+926487914+921513545
3839+918514886+918914393+922089297+925806493+928840074+931316574+933415106
3829+934676610+934688532+933758094+932047371+928605398+923195419+919233255
3819+919848654+922968166+926292660+930023746+934142360+937316253+938441888
3809+937231335+934481581+932109963+930799477+928896817+925816953+924360476
3799+926480997+930205447+933731494+936894702+939654522+941664144+942835107
3789+943218585+942604873+941011066+939380368+938666892+938333126+937330143
3779+936299885+937113800+939840216+942475472+943231464+941531763+938114084
3769+934900432+933491532+933848692+935262710+936805116+937027027+935029271
3759+931992540+930526335+931115190+931267760+928367798+921685573+914290322
3750+911714340+913797519+916116443+916970343+918066567+920987393+924068214
3740+924876280+921920980+915521514+909708373+910133748+916944755+925133788
3730+930761911+932590731+931168559+928511426+927092853+927835348+930071210
3720+932930739+935618408+937127916+936426924+932822539+926789400+921721002
3710+922178601+927593923+933671940+937495817+938246297+936745843+935342510
3700+935987602+938035184+939713234+940058865+938716661+935250788+929613724
3690+923811549+922074732+925804468+931645503+936576851+939387791+939556220
3680+937045922+932161644+925308404+918899490+917595134+920518660+922409678
3670+922474575+925027726+931788063+939036086+943666905+945242998+944803563
3660+943410240+941327904+938694841+936529556+935408419+933489564+928003496
3650+918402582+910305833+911746507+920584457+929776192+936110536+939456513
3640+940847980+941285164+941017027+939819690+937819516+935515663+932694825
3631+928401877+923914293+924152794+929610068+935156422+937578991+936317431
3621+932249880+927842265+925922172+926326458+927021095+927587793+928819604
3611+930342159+931103437+931800435+934021901+937094005+938806921+938376035
3601+937027196+936089222+935389411+934390140+933780027+934654340+936399593
3591+936744606+934033036+929576101+927858911+930943049+935752982+939283416
3581+940968551+941446395+941381104+941229940+941337183+941726286+941748049
3571+940082878+935410894+928158091+922557243+923328475+928906940+934555307
3561+938128593+940175331+941725049+942771109+942608979+941116566+939377894
3551+938639561+938549582+937646250+935720309+934617168+935951386+938920126
3541+941559150+942787193+942826053+942602792+942811037+943284495+943357603
3531+942618876+941218018+939753499+938818112+938544745+938853823+939857931
3521+941492678+943143397+944202729+944662521+944834493+944752500+944172586
3512+943100657+942096043+941807660+942116569+942161165+941416309+940487277
3502+940494306+941580464+942723702+943098913+942990939+943204020+943875206
3492+944351982+944126360+943458210+943051450+943224490+943495664+943205257
3482+942544362+942489813+943421207+944524404+944942693+944716734+944310704
3472+943903662+943525301+943334714+943470582+943914684+944480876+944809299
3462+944639577+944206891+944028733+944275500+944652736+944852152+944839442
3452+944600211+943867446+942524511+941185906+940745460+941253616+942018605
3442+942679668+943342869+944023559+944643288+945238274+945780284+946147510
3432+946395514+946672987+946888936+946820440+946451976+945918851+945232088
3422+944368740+943602908+943404842+943891177+944642838+945162466+945340400
3412+945461309+945816050+946371895+946885224+947184742+947171020+946766227
3403+946116580+945558261+945198345+944857101+944465130+944186646+944197106
3393+944563207+945173264+945693567+945788607+945418569+944879370+944604597
3383+944876221+945609886+946436905+946986788+947081153+946823139+946544317
3373+946504501+946612139+946543417+946099259+945401473+944794115+944569168
3363+944773083+945239398+945739231+946146610+946536556+947010070+947417787
3353+947491682+947224332+946871053+946664214+946710328+946990500+947290129
3343+947276970+946772638+945941121+945188673+944847765+944913675+945132323
3333+945319929+945491564+945697166+945882747+945976663+946046059+946234677
3323+946531158+946735635+946713815+946567149+946500340+946595380+946743058
3313+946749019+946490779+946030200+945598751+945412045+945461534+945570746
3303+945627657+945613598+945500562+945333764+945268192+945338150+945400461
3293+945436902+945671072+946241313+946896809+947142339+946749694+946073952
3284+945673659+945666123+945714824+945587279+945426217+945485940+945797380
3274+946176078+946526996+946930439+947312736+947365824+947041450+946770614
3264+946925152+947348728+947586610+947374035+946840910+946352887+946187326
3254+946396752+946896809+947478410+947813244+947723940+947403840+947173607
3244+947089701+946949334+946604378+946154259+945879823+946027276+946563662
3234+947107810+947232768+946888374+946412723+946138400+946141437+946310147
3224+946473009+946516086+946456588+946321732+946071928+945849230+946039985
3214+946762628+947539371+947824716+947643971+947417562+947374035+947396304
3204+947297103+947023679+946662977+946363684+946232203+946285628+946494266
3194+946800644+947104098+947330732+947465026+947461876+947297777+947135928
3184+947172482+947293616+947161235+946641719+946014229+945789057+946254697
3174+947103986+947715504+947853397+947790074+947750934+947664441+947455241
3165+947181255+946882750+946585145+946420371+946516648+946787147+947004221
3155+947106460+947273033+947627213+948004786+948158313+948118835+948181033
3145+948472339+948701673+948514742+947982179+947507091+947329383+947326908
3135+947260549+947084303+946987575+947112871+947349065+947534872+947675689
3125+947751496+947570863+947079241+946553765+946257397+946108707+945885222
3115+945620459+945604375+945969239+946459962+946741033+946715952+946429706
3105+945968227+945609774+945679732+946074290+946266395+945935722+945315768
3095+944871497+944874759+945301259+945907829+946342989+946353562+945987010
3085+945500787+945061128+944652399+944266164+944016923+944011412+944183159
3075+944351982+944445335+944554434+944708860+944750363+944582553+944416542
3065+944560845+945006016+945391350+945417332+945170002+944997805+945174501
3055+945687831+946226579+946348950+945826398+944877683+943986105+943475081
3046+943269367+942997181+942335049+941277460+940000885+938543958+936889978
3036+935297127+934221204+933945588+934462292+935556997+936840433+937924341
3026+938744049+939550034+940445605+941115048+941169429+940580349+939625673
3016+938608124+937778688+937335767+937328400+937685335+938309451+938962754
3006+939170998+938523319+937021516+935020217+933008233+931481235+930727044
2996+930657310+931045625+931872587+933218165+934917360+936539623+937683198
2986+938224308+938333464+938255801+938062852+937676506+937076684+936330028
2976+935473317+934547828+933758657+933510203+934236557+936042714+938399936
2966+940364343+941280890+941234439+940801303+940509097+940511290+940584791
2956+940394655+939827619+939061730+938293254+937464155+936325698+934754161
2946+932945417+931275184+929993941+929099213+928459970+927960700+927526720
2936+927146503+926906766+926867850+926922625+926995676+927316620+928189696
2927+929527063+930881695+931900481+932539162+932926184+933190272+933376134
2917+933477529+933547038+933692916+933963640+934347006+934856511+935529047
2907+936391439+937452796+938624995+939662958+940293822+940425135+940228756
2897+940049417+940178312+940653344+941269699+941743101+941858274+941597447
2887+941212338+941061623+941290394+941731628+942161221+942542394+942907427
2877+943135467+943107068+943029180+943262900+943814358+944325325+944559383
2867+944573892+944465355+944300806+944255817+944512706+945038071+945573332
2857+945797830+945536329+944932121+944347483+943988130+943770268+943599983
2847+943549145+943711107+944097004+944671969+945296535+945716174+945819987
2837+945836746+946110056+946724050+947420036+947845186+947877129+947721353
2827+947674676+947841025+948101739+948265950+948220061+948032343+947886127
2817+947816618+947652407+947341980+947121194+947193514+947441631+947587172
2808+947498993+947275845+947110959+947092963+947126143+947066419+946894335
2798+946708191+946603141+946602353+946645431+946639919+946560401+946466710
2788+946393377+946298787+946166518+946076427+946110619+946252335+946438029
2778+946662977+946953496+947245702+947398779+947373360+947313524+947370773
2768+947518901+947626650+947644759+947623726+947599207+947566477+947526886
2758+947456365+947271121+946938199+946584358+946356599+946217244+946035149
2748+945826061+945728771+945791306+945966765+946244462+946610451+946956083
2738+947192277+947356151+947486058+947511702+947379658+947193290+947103873
2728+947119169+947130867+947124568+947234905+947549606+947984991+948423638
2718+948832255+949161465+949291709+949178898+948949227+948793339+948848451
2708+949159440+949620807+949972737+949981172+949642852+949191045+948926732
2698+949018736+949372578+949725070+949925723+950056080+950216242+950341650
2689+950326016+950210169+950151682+950256958+950477856+950665912+950749929
2679+950821463+950969140+951095673+951028751+950790982+950624746+950729347
2669+951038649+951306899+951385068+951346827+951321858+951320170+951320170
2659+951431857+951787611+952280133+952591909+952546807+952294079+952071831
2649+951923254+951755893+951548829+951369209+951261797+951251899+951384055
2639+951650393+951950585+952236943+952613279+953143930+953614069+953673680
2629+953291945+952934616+953112887+953782105+954384738+954511833+954292060
2619+954077573+954039782+954175312+954429615+954669971+954716648+954513296
2609+954209729+954048892+954166652+954490913+954891769+955377205+955968254
2599+956456389+956564701+956304438+955932937+955678297+955686958+955994685
2589+956385756+956560315+956534896+956559415+956681899+956760068+956782900
2580+956814843+956765017+956553229+956359212+956428608+956722502+956960496
2570+956973880+956867593+956826652+956927316+957214349+957746236+958399708
2560+958874122+959025399+958925410+958558858+957906961+957330197+957313101
2550+957750735+958011112+957793813+957446607+957338970+957367313+957238193
2540+956928104+956661541+956572012+956569538+956575274+956740498+957245392
2530+957922370+958337398+958265864+957849937+957335258+956943512+956916406
2520+957341556+957946552+958290159+958151479+957689325+957316812+957355953
2510+957635787+957584050+956927091+956112895+955797632+956069593+956391155
2500+956275982+955887835+955827774+956355950+957105474+957639387+957902237
2490+957984118+957882667+957630726+957297467+956852746+956318272+955938111
2480+955965330+956375296+956874454+957122121+956979054+956576961+956110533
2470+955690894+955499014+955824400+956725539+957772555+958344708+958212777
2461+957728353+957387558+957359890+957539960+957819794+958116387+958328512
2451+958393747+958260803+957876256+957370912+957083317+957200740+957526463
2441+957718568+957653671+957495308+957433560+957440758+957394307+957345606
2431+957442558+957668405+957886041+958045754+958155640+958188258+958192194
2421+958352807+958739828+959094232+959079498+958715534+958352357+958217838
2411+958210302+958127634+957888853+957555031+957312538+957387108+957794488
2401+958234484+958408481+958391497+958482039+958721270+958802363+958490699
2391+957967360+957686850+957936879+958535014+959002566+959064877+958883232
2381+958798539+959038333+959659525+960545592+961494531+962502857+963793716
2371+965372058+966869307+968038919+969058380+970147349+971197403+971952888
2361+972322814+972254992+971480836+969842209+967734791+965650655+963650875
2351+961895275+960994249+961363500+962750636+964423793+965723988+966535710
2342+967063211+967369252+967401532+967173210+966799685+966393543+965905745
2332+965197949+964367444+963747602+963443699+963172187+962666169+962039916
2322+961623763+961449204+961132816+960432331+959617797+959038895+958599236
2312+957995365+957262600+956689772+956382269+956257311+956274520+956394079
2302+956502391+956538383+956515775+956424672+956351114+956554241+957085679
2292+957511279+957385421+956852634+956474385+956579435+957005148+957383172
2282+957522414+957490247+957410053+957319512+957251915+957303428+957540747
2272+957869170+957970846+957526238+956703719+956187465+956377883+956870742
2262+957013921+956577186+955737233+954893569+954505647+954668847+955000081
2252+955246174+955576958+956020554+956236616+956126954+956102435+956460663
2242+956971068+957354603+957844651+958909326+960493404+961895387+962571466
2232+962750861+962938692+963173425+963280949+963465293+964014390+964721511
2223+965175904+965313684+965194350+964641992+963641427+962744225+962553583
2213+962960175+963321552+963358444+963426378+963792817+964195360+964421094
2203+964717574+965135639+965060506+964082773+962891791+962556169+963200981
2193+964017651+964361146+964205145+963750864+963265540+963154979+963601611
2183+964394213+965539981+967408168+969768313+971574977+972229348+972139707
2173+971585999+970162983+967927908+966094701+965965019+967755149+970582172
2163+972843229+972761011+970013618+967055563+966732651+968674733+970511201
2153+971110461+970711404+969496690+967604097+965692720+964355747+963541888
2143+963223250+963815649+965326844+966850749+967551234+967620180+967747500
2133+968088633+968248345+967935106+967149141+965989538+964721399+963912151
2123+964020351+964739507+965208522+965060506+964748955+964597340+964219766
2113+963348996+962551895+962493859+963024172+963549874+963866487+964158806
2104+964505337+964740069+964722973+964558987+964499376+964679108+965061631
2094+965572936+966149701+966738387+967334048+967836467+967889780+967211451
2084+966064783+965121580+964916765+965554715+966707682+967763359+968220789
2074+968095381+967847827+967875720+968046568+967707797+966316049+964247660
2064+962752323+962779317+964059604+965585871+966646721+967095154+967006637
2054+966595096+966239117+966139915+966201551+966497919+967347094+968604549
2044+969584194+969979651+970200662+970624462+971101688+971365438+971533474
2034+971992029+972804425+973429216+973335526+972819609+972824333+973813876
2024+975072118+975367923+974259046+972509407+971156687+970354976+969450913
2014+968263417+967682266+968666972+971154213+974152984+976413141+976816921
2004+975042875+972285022+970496242+970606242+971958174+973358920+974030275
1994+973772486+973044782+972709048+973066151+973720748+974707254+976501545
1985+978653165+979727062+979115094+977847404+977122399+976932094+976668231
1975+976212825+975550018+974185264+971877756+969442477+968213141+968767298
1965+970434045+972041180+972876184+972995293+972858300+972868423+973320229
1955+974229353+974895309+974318095+972514131+970747508+969955807+969523346
1945+968299408+966526600+965840398+966992690+968879547+970272757+970966607
1935+971253527+971346093+971406266+971536398+971558443+970975717+969279503
1925+966636936+964336064+963746815+964592279+965476434+965911257+966632662
1915+968006865+969298511+969652128+969109781+968640653+969076826+970258698
1905+971496245+972274900+972289184+971460816+970096849+968672258+967591162
1895+967188507+967354068+967305704+966592284+966039589+966738275+968377802
1885+969862341+970737386+971083467+970949399+970554504+970451253+970855258
1875+971151739+970412787+968133510+964471595+960628485+959066564+961291629
1866+965654704+969457324+971332596+971361164+970421672+969539655+969338889
1856+969785747+970428421+970782713+970454965+969229902+967181308+964523895
1846+961767617+960440879+961990315+965219544+967717695+968573619+968503210
1836+968481728+968323028+966869644+963735905+960683372+960037323+961321434
1826+962565392+963528166+965092899+967060624+968448998+968964802+969069403
1816+968979761+968229562+966449105+964280277+963085920+963430314+964468220
1806+964994822+964228989+962055100+959407584+957909998+958129546+958871310
1796+958615432+956627687+953552546+952020094+954098493+957891777+960407474
1786+960798320+959994471+958953415+957882554+957058685+956769966+956245839
1776+954104229+949717309+944033794+939927552+939778243+942383919+945206669
1766+946714265+946060568+943022881+938905786+936038778+934823557+933893850
1756+932798807+931488321+928678675+922954838+915275197+909568512+908325117
1747+909740934+911209221+911717545+911339803+910573183+910226314+910402335
1737+909844804+907848960+906822582+909875340+915336383+920697324+925233159
1727+928307006+929525545+929553269+929132843+927560462+923261384+916580003
1717+912802690+916853145+925489317+933711024+939437223+942190408+942096605
1707+940135347+938370074+937948860+937308886+934366239+930113275+928464694
1697+931133355+937641864+945685356+951618675+953930457+953543998+951919205
1687+948911998+943429586+938329977+940199513+947435783+954263154+958426589
1677+959671559+958862424+957701135+956540857+954372704+952532073+954838907
1667+960694282+965189963+965976829+964744681+965047797+967483525+969171191
1657+967608258+961628937+951624974+944411818+947125355+951424771+951175979
1647+948899289+951157196+958577416+965383531+968736143+968465307+964707564
1638+958322101+953629703+956504978+964101332+969836472+971707808+970717141
1628+968839731+967080532+965247100+964216954+965372733+967299968+967226523
1618+964878637+963881896+966913171+971104162+973319892+973243747+972372189
1608+972202804+972819047+973407734+973637742+973957167+974693982+975385582
1598+975376471+974720188+974092136+973957055+974226654+974692070+975294478
1588+975906784+976264450+976272211+976122959+975837726+974740996+971728728
1578+966505230+961693834+961683262+965006407+966446069+964333252+961483171
1568+961573600+963773809+965346302+965164544+962289270+954447161+941254909
1558+933945700+939871653+948519128+954586403+957850724+959052167+959503299
1548+959601038+957704396+952034490+942978679+932867978+925487293+927536562
1538+938091027+946947647+950017501+949308355+949248070+951259435+952120420
1528+949504397+944306093+938816425+933218502+926114333+918530914+912571051
1519+906600109+898882397+891255169+884840238+877107004+865503778+849659230
1509+830031521+810824687+803127445+805402617+807438332+806031850+802121481
1499+798219435+797606453+801330229+805663668+805844919+799587788+789168685
1489+783301444+788407857+800280063+812042664+820190869+823918300+823599269
1479+819796368+813090074+804885519+798246653+797482676+803907224+812037940
1469+816125680+814982105+810980126+808832949+810513866+812004029+808636176
1459+798389101+783998668+775119047+775006742+777722135+780122322+781957047
1449+783641845+785929783+789291000+793235224+797176411+801074858+804731880
1439+807644890+810280202+814345785+819373467+822027675+821009170+818816217
1429+819460409+823780070+829264619+834532826+840056966+845578857+849991646
1419+854083604+860687322+869635664+877079504+880033623+878138893+873491090
1409+868545514+863999107+860286747+859852543+864590437+872055759+878371657
1400+882328196+884970370+887258701+889138022+889973532+888998499+886134021
1390+882684625+881269989+884038695+889813707+895239433+898403090+899523046
1380+899629784+899202271+898091876+896833353+897112793+899697999+903048306
1370+905461764+906704935+907135484+906753861+905973688+906537237+909883944
1360+914790155+918861755+921046948+921798103+921938920+921705593+921022654
1350+920425925+920976371+923157571+926265948+928799921+929344687+927733447
1340+925912612+926743398+930771639+935759506+939623142+941933069+943222072
1330+944040092+944665108+945219491+945687043+945792431+945076424+943248953
1320+940482609+937255348+933735937+929447825+923852152+917060547+909613052
1310+901758402+893427484+884717079+875913940+867127953+858213072+849013857
1300+839551285+829995248+820534419+811288303+802267865+793410458+784821187
1290+777153131+771754062+770227739+773286458+779503717+785318152+786976687
1281+783196112+776143625+769672232+766570267+767281268+770551832+774647107
1271+777936847+778959570+776650543+770810633+762271526+752506288+743119355
1261+735559780+730802484+729021971+729771102+732466362+736542855+741382031
1251+746408982+751244165+755726182+759918185+764045684+768203889+772135460
1241+775459392+778075190+780222311+782243686+784398849+786810226+789486029
1231+792421027+795681412+799371445+803597584+808414603+813508644+817890896
1221+820404512+820981108+821141777+822675860+825765004+828866913+830570831
1211+831146134+832003520+834024277+836902082+839887187+842534478+844683455
1201+846352507+848005306+850501995+854375079+859329653+864669955+869938500
1191+874956734+879573212+883659940+887198528+890216700+892713726+894596759
1181+895559027+895193150+893555760+891610867+890816409+892095740+895224699
1171+899202890+903076874+906395407+909154553+911538993+913651641+915433504
1162+916896560+918299612+919874523+921522149+923025640+924415532+925874202
1152+927418802+928916838+930339066+931781090+933264785+934686451+935974893
1142+937168575+938334926+939528552+940779089+942004096+943001061+943591548
1132+943580863+942386731+938877948+932185545+923321614+915807422+913573809
1122+917624658+925289621+932940186+938735838+942748502+945589866+947549381
1112+948615631+948885905+948864984+949241546+950220291+951071491+950599890
1102+948509455+946267407+945977900+948235132+951657029+954595176+956601593
1092+958128872+959587991+961081866+962558981+963837131+964746143+965448990
1082+966380384+967729617+969233277+970537070+971533586+972316627+972982021
1072+973506148+973787557+973715237+973018238+971195041+968160841+965062756
1062+963821947+965463274+969154433+973074250+975957285+977606823+978227564
1052+977734930+975727502+971712644+965148911+955730485+944347708+933819336
1043+927868640+928649881+935256411+944715609+954112215+961809007+967423801
1033+971300091+973922975+975518526+976063573+975573413+974228229+972156128
1023+969173328+964819026+958591700+950051468+938829810+924793106+908247510
1013+889967290+871080331+852919727+836937062+824653427+817266443+814809176
1003+815696312+817403717+817716169+815483681+810749274+804670132+799033068
993+794988912+792019159+788765692+785042198+782267530+781719559+783292446
983+786384795+791147320+798211674+807612216+818437743+829412578+839622312
973+848778843+856993464+864474308+871404368+877823460+883403500+887279621
963+888023015+883846871+873456111+857539017+839664883+825093255+817881336
953+818701887+825260447+834520229+844411550+853956846+862647174+870159004
943+876456963+881789729+886464131+890651467+894379741+897685115+900760930
933+903858284+906995566+909894179+912279351+914164239+915820075+917513928
924+919261880+920847701+922123658+923230454+924455123+925955071+927668718
914+929418245+931039889+932436811+933585672+934594898+935683474+936945933
904+938206425+939262777+940166277+941118985+942215771+943366938+944410580
894+945283263+946066529+946833374+947584023+948408792+949470430+950750379
884+952083529+953446709+954921350+956416236+957712832+958721270+959487440
874+960047671+960451789+960851970+961408714+962147216+963030246+964082211
864+965267683+966384096+967326512+968296259+969454175+970536508+971134530
854+971239693+971268036+971598259+972254767+973040732+973844131+974683859
844+975550693+976449582+977579829+979159971+981014548+982648901+983857205
834+984943362+986131421+987090708+987369868+987023112+986466705+985918059
824+985094864+983004430+977749102+966914971+948722031+923592169+895492161
815+871473933+858313679+858212734+867171143+877428172+882350860+880469514
805+875169309+870162659+866224903+863155555+862937806+868374667+879306875
795+892412578+904524409+914645345+923121692+930388892+936709233+942207110
785+946823251+950434666+952957786+954121775+952966221+947441631+935184091
775+916188595+895163963+879865868+875793256+882462883+894905893+907941413
765+918588950+925693963+929006591+928957272+926531666+922936392+919431265
755+917229988+917124038+919168133+922904449+927775962+933180205+938401848
745+942887519+946623498+950039434+953454807+956706643+959387788+961331894
735+962705534+963728707+964527719+965202898+965837249+966492183+967322350
725+968530654+970116757+971852224+973531680+974980002+975633361+974266357
715+969795307+963042618+957055986+954106929+952960710+951229179+949701900
705+951559852+957550195+964726572+970049160+972938157+974408524+975520100
696+976747075+977982934+979031526+980061221+981348369+982808726+984067756
686+984893649+985458941+986176298+987195759+988158757+988615625+988511362
676+988144023+987957767+988465023+989994551+992266968+993943162+993679186
666+992607313+992233226+992447038+992591004+992480892+992504062+992964191
656+993664002+994105461+993972517+993418022+992855205+992586843+992811002
646+993719789+995227048+996809551+997941823+998480684+998500816+998124480
636+997604514+997187575+996916963+996906053+997546253+998988727+1000715759
626+1002065104+1002921816+1003565839+1004160262+1004736127+1005378126
618+1006052968+1006419294+1006121802+1005200306+1003956798+1002477995
609+1000539063+998051147+995469203+993637683+993225468+994312187+996413082
599+998818667+1000988957+1002713740+1003917994+1004436497+1004186469+1003550656
589+1003256875+1003782351+1005058027+1006594528+1007815542+1008556855
581+1009222024+1010136322+1011001468+1011469808+1011859192+1012607029
572+1013393782+1013520427+1012875616+1012106184+1011947484+1012632223
564+1013894964+1015275690+1016270968+1016373769+1015366793+1013627839
555+1011708140+1009664382+1007329656+1004924633+1002702830+1000460894+998134377
545+996305219+995442097+995189481+994736325+993424208+991239634+989195989
535+988648018+989800309+991482239+992398224+992043933+990920771+990520028
526+992020875+994095901+993708542+989416100+982243321+973757302+964802717
516+956737348+952255838+953527802+960170717+969621535+979238252+987378078
506+993086450+996361794+998597994+1001503411+1005363055+1009192556+1012177830
496+1014050402+1014794528+1014808025+1014931071+1015627170+1016504351
487+1017093938+1017552605+1018396719+1019995756+1022277508+1024484577
479+1025478281+1024835832+1023414279+1022559704+1023040304+1024442962
470+1025555101+1025824700+1025618423+1024964277+1023328349+1020759677
462+1017774403+1014434387+1011544828+1011771238+1016065929+1021653055
453+1026792310+1032218599+1037441872+1040083877+1039270693+1036320848
445+1032084080+1026570512+1021344877+1018986756+1020182350+1023804674
436+1028434087+1032679965+1035513512+1036798186+1037241107+1038051591
428+1040036750+1042418491+1043262155+1041674028+1038242234+1033151342
419+1027689625+1026822453+1031290916+1035384730+1035684022+1033821572
411+1033851940+1037466954+1042383849+1044699343+1041693486+1033411493
402+1022425861+1012447541+1007783374+1012532909+1025280553+1038698764
394+1049330555+1058749768+1067564998+1072304635+1069103525+1060206526
385+1054126317+1056428539+1062953244+1068300913+1071863514+1073741823
377+1072893322+1070258291+1070434312
##END=
