##TITLE=X7459
##JCAMP-DX=4.24
##DATA TYPE=INFRARED SPECTRUM
##DATE=29/10/2018
##SAMPLING PROCEDURE=Diamant-ATR
##ORIGIN=ComPlat
##XUNITS=1/CM
##YUNITS=TRANSMITTANCE
##RESOLUTION=4
##FIRSTX=3997.453
##LASTX=373.96442
##DELTAX=-1.4165319
##MAXY=0.92579782
##MINY=0.25830528
##XFACTOR=1
##YFACTOR=8.6221641e-010
##NPOINTS=2559
##FIRSTY=0.9221586
##XYDATA=(X++(Y..Y))
3997+1069521048+1070110516+1070614471+1070668392+1070402035+1070064268
3989+1069828951+1069905270+1070374522+1070904815+1071057729+1070896658
3980+1070877993+1071104392+1071161285+1070789991+1070276704+1070007375
3972+1070005923+1070104502+1070220501+1070289769+1070189531+1069864830
3963+1069452679+1069250890+1069507983+1070172041+1070884007+1071190666
3955+1070799461+1069849345+1068940775+1068695227+1069226971+1070021201
3946+1070359175+1070015532+1069547248+1069681498+1070323020+1070839557
3938+1071077224+1071087801+1070531930+1069334468+1068376539+1068453826
3929+1069027809+1069205679+1069025597+1069034100+1069345459+1069492913
3921+1069077237+1068195282+1067329157+1067024088+1067483800+1068449886
3912+1069577735+1070669014+1071401926+1071216313+1069880176+1068043473
3904+1066845112+1066769623+1067528389+1068927709+1070568638+1071538526
3895+1071321528+1070315969+1069520634+1069693941+1070291705+1070247531
3887+1069523399+1068813853+1068273605+1067464167+1066780891+1067358952
3878+1069040460+1070327237+1070340510+1069076960+1067036739+1065413577
3870+1065765654+1068007387+1069938591+1070284515+1069767219+1069448877
3861+1069276468+1068716380+1067710822+1066421348+1065062883+1064429863
3853+1065773396+1068412279+1070490660+1071639662+1071992499+1071546821
3844+1070351571+1068570862+1066594379+1065302693+1065791094+1068056331
3836+1070410055+1071404345+1071014247+1069970667+1069022901+1068549571
3827+1068555861+1068693153+1068371631+1067491543+1066911269+1067370497
3819+1068036145+1068204614+1068561115+1069494364+1070165751+1069880246
3810+1068685134+1067114717+1066265115+1066772319+1067323834+1066467250
3802+1064887985+1064579252+1066086277+1068474703+1071050886+1073043614
3793+1073741823+1073306168+1072350521+1071274451+1070295023+1069604349
3785+1069220819+1068931511+1068594367+1068330153+1068305820+1068437788
3776+1068536229+1068585172+1068608262+1068605635+1068700964+1068941466
3768+1069054562+1069044538+1069430419+1070228728+1070572509+1069846096
3759+1068527726+1067658214+1067480067+1067273992+1066410425+1065041660
3751+1064179269+1064281304+1064168070+1063189264+1062134140+1062018693
3742+1062459740+1062270878+1061012996+1058994482+1057361642+1057700930
3734+1060174247+1063317085+1066080746+1067994253+1068710366+1068370248
3725+1067658698+1067165597+1067042684+1067280628+1067724786+1068068913
3717+1068046929+1067387433+1065952304+1064391220+1064233812+1066009889
3708+1068252244+1069637048+1069842985+1069113668+1068160993+1067695682
3700+1067574152+1067276204+1066918804+1066957724+1067525762+1068427419
3691+1069468026+1070461003+1070921544+1070393463+1069190402+1067950770
3683+1066960074+1066065261+1064979236+1063657202+1062565370+1062786446
3674+1064506251+1065739523+1065280157+1064053591+1063919964+1065201626
3666+1066457503+1066662333+1065762128+1064310615+1062909428+1061910367
3657+1061777984+1062835666+1064042392+1063774239+1061818701+1059491040
3649+1058416006+1058650286+1059419076+1060644259+1062059203+1063005103
3640+1063193066+1063040428+1062981806+1062814582+1061987447+1060206254
3632+1057597305+1054757531+1053278919+1054580905+1056987029+1058330424
3623+1058525231+1058454580+1058923555+1060079402+1061128581+1061104939
3615+1059935266+1058457691+1057797988+1058375012+1059797491+1061509208
3606+1062748632+1062724783+1061493862+1060005779+1059196686+1059166546
3598+1059377736+1059356928+1058926320+1058258045+1057646387+1057055398
3589+1056401778+1056258611+1057465129+1059548210+1061064014+1061273546
3581+1060552524+1059933262+1059984348+1060175008+1059965476+1059844430
3572+1060356611+1060942000+1060739796+1059950198+1059676791+1060153785
3564+1060430234+1060135673+1059789610+1060016701+1060954513+1062076071
3555+1062558733+1061992078+1060817844+1059869524+1059427648+1059194543
3547+1058946091+1058690796+1058562630+1058940285+1060154822+1061732566
3538+1062459463+1061663506+1060092605+1058966761+1058628303+1058689828
3530+1058768290+1058599614+1058032268+1057335718+1057189855+1058040356
3521+1059465185+1060420763+1060317138+1059690963+1059467121+1059657988
3513+1059442649+1058562561+1057871196+1058197695+1059224614+1059992022
3504+1060061774+1059791477+1059676653+1059699811+1059561137+1059283859
3496+1059239961+1059638701+1060232800+1060620410+1060727215+1060880406
3488+1061391481+1062125706+1062582445+1062371116+1061574743+1060666381
3479+1059992644+1059494635+1059072184+1058789651+1058396028+1057170291
3471+1054721860+1051437860+1047778833+1043688644+1038890222+1033209708
3462+1026543060+1019065177+1011488023+1004776234+999663688+996449094+995069130
3452+995332652+997101885+1000162527+1003984701+1007889207+1011534893+1014976647
3442+1018232788+1021108577+1023358537+1024867221+1025827569+1026760058
3434+1028048909+1029478785+1030526789+1031061783+1031482920+1032131701
3425+1032741701+1032653699+1031655675+1030385972+1029622298+1029445741
3417+1029441179+1029300846+1028855513+1027935675+1026623250+1025432217
3408+1024906279+1025034653+1025290640+1025265615+1024973611+1024479542
3400+1023700037+1022698696+1021690441+1020675412+1019537746+1018426627
3391+1017613110+1017173792+1017091942+1017270642+1017289238+1016704748
3383+1015795625+1015420251+1015882244+1016454430+1016314442+1015541297
3374+1014823387+1014582954+1014712503+1014874404+1014875026+1014936897
3366+1015432349+1016244967+1016956518+1017755655+1019220926+1021078022
3357+1022209466+1022104112+1021408669+1020917849+1020818164+1021019539
3349+1021567252+1022515641+1023705430+1024819798+1025631379+1026193264
3340+1026735724+1027289936+1027553112+1027360033+1027134532+1027528986
3332+1028661605+1029984537+1030913085+1031412754+1031872811+1032529404
3323+1033253190+1033850193+1034239669+1034376269+1034348686+1034514943
3315+1035246057+1036569750+1038121225+1039321176+1039762776+1039686111
3306+1039885273+1040894150+1042416037+1043629261+1043948363+1043462728
3298+1042685504+1042000500+1041551572+1041531732+1042135579+1043204253
3289+1044284195+1045072963+1045562884+1045851155+1046058820+1046383176
3281+1047004651+1047873333+1048650625+1048997932+1048966064+1048971940
3272+1049321459+1049923301+1050523968+1050950497+1051045757+1050725826
3264+1050276553+1050240122+1050760875+1051312598+1051310524+1050808436
3255+1050328953+1050060177+1049575026+1048579145+1047645136+1047708943
3247+1048903294+1050324529+1051047486+1051127883+1051335687+1051984537
3238+1052461738+1052186257+1051586835+1051546117+1052224347+1052994796
3230+1053242902+1052851214+1052183284+1051803625+1051967669+1052335093
3221+1052438856+1052340278+1052497064+1053024453+1053509673+1053658509
3213+1053702268+1053899772+1054014872+1053660168+1052935691+1052329563
3204+1052044749+1051794016+1051420440+1051399770+1052308616+1053966274
3196+1055534202+1056336934+1056267459+1055641560+1054858253+1053976851
3187+1052775034+1051456180+1050761981+1051005662+1051645802+1052139042
3179+1052523817+1052909283+1053063926+1052842642+1052528103+1052435400
3170+1052514277+1052629101+1052886954+1053347426+1053761236+1053928529
3162+1053938622+1053850413+1053547556+1052981938+1052239832+1051532844
3153+1051271189+1051730693+1052577599+1053195963+1053373143+1053232464
3145+1052807179+1052100882+1051263032+1050491062+1050023124+1050182398
3136+1051039328+1052072539+1052524508+1052171532+1051555173+1051357739
3128+1051697649+1052131299+1052245363+1052074475+1051941953+1052062792
3119+1052373529+1052645969+1052728855+1052670648+1052571447+1052375188
3111+1051965941+1051444220+1051131962+1051218996+1051507958+1051627483
3102+1051445672+1051117583+1050748846+1050306417+1049909406+1049844770
3094+1050133869+1050410180+1050405134+1050312846+1050552795+1051298426
3085+1052280135+1052977168+1053009521+1052403531+1051523374+1050750367
3077+1050217724+1049883690+1049800803+1050073796+1050533784+1050775876
3068+1050591715+1050132694+1049746536+1049823201+1050493620+1051314464
3060+1051622782+1051211945+1050261828+1048842944+1047095763+1045662224
3051+1045275098+1045903693+1046697577+1046891555+1046518324+1046006489
3043+1045433059+1044695792+1044082198+1043904812+1043821234+1043292808
3034+1042451363+1041825118+1041532769+1041226525+1040487253+1039055373
3026+1037051860+1034948524+1033012758+1031038832+1028772696+1026100907
3017+1022809925+1018836773+1014728956+1011249526+1008606911+1006439768
3009+1004220778+1001417643+997695154+993154310+988017707+982153722+975264892
2999+967339602+958637158+949476385+940178942+930996670+922096307+913767854
2989+906520172+900878854+897171781+895459234+895597010+897451134+901015454
2979+906235566+912933529+920944885+929929171+938951962+946688389+952211496
2969+955375833+956484118+955865477+953834105+950855450+947470452+943995171
2959+940498805+937089888+933947811+931071744+928238884+925191722+921747134
2949+917882031+913769997+909538645+905032919+900089602+895023511+890589748
2939+887474148+886057406+886579749+889052237+892854571+896884133+900404833
2929+903460912+906330204+908927056+910846715+911778996+911843010+911508147
2919+911054242+910230287+908693329+906600501+904532628+903047932+902437173
2910+902655484+903445427+904726191+906755005+909691767+913248069+917026138
2900+920961269+925209972+929853197+934887489+940231826+945617019+950726731
2890+955533725+960257209+964952213+969348438+973160588+976443067+979532260
2880+982614886+985463024+987745682+989482217+990999265+992609431+994558331
2870+997018998+999817501+1002338518+1004024450+1004962469+1005822164+1007149590
2860+1008783467+1010079578+1010656948+1010696006+1010521661+1010165990
2851+1009350952+1007705392+1005039272+1001512005+997519289+993487445+989828072
2842+986903062+984927477+983984965+984072068+985035803+986610989+988579799
2832+990760491+992923072+994947116+996980700+999263981+1001868645+1004697081
2822+1007598172+1010357479+1012678227+1014411236+1015854108+1017559811
2813+1019703796+1021883313+1023663468+1025046405+1026280506+1027490895
2805+1028618329+1029499386+1029920800+1029806528+1029434197+1029303334
2796+1029688662+1030428902+1031155177+1031591385+1031698812+1031735865
2788+1032082758+1032835371+1033671148+1034196740+1034267736+1033962667
2779+1033428710+1032813941+1032249014+1031835274+1031588136+1031418284
2771+1031252442+1031121857+1031117294+1031390909+1032111515+1033153505
2762+1033967783+1034076385+1033580104+1032945011+1032474515+1032172004
2754+1031951964+1031794418+1031699296+1031580255+1031327517+1031007309
2745+1030864487+1031010904+1031199697+1031057774+1030563912+1030153697
2737+1030240316+1030727680+1031140522+1031148126+1030779665+1030218541
2728+1029669721+1029377718+1029466342+1029749151+1029964628+1030163859
2720+1030593015+1031259701+1031905371+1032332661+1032543644+1032641601
2711+1032764859+1033040548+1033493968+1033998683+1034328708+1034320343
2703+1034048941+1033755209+1033537105+1033283123+1032981926+1032877678
2694+1033153920+1033650962+1034092700+1034432817+1034732010+1034866605
2686+1034689150+1034357051+1034154640+1034076316+1033910612+1033634025
2677+1033396841+1033204523+1032931461+1032602059+1032375106+1032284754
2669+1032245558+1032232838+1032246940+1032225164+1032157625+1032121332
2660+1032109027+1032043699+1031954660+1031962472+1032202490+1032810623
2652+1033685043+1034309213+1034247342+1033745946+1033438181+1033609622
2643+1034066154+1034481830+1034633293+1034476092+1034103415+1033563098
2635+1032875328+1032351879+1032549036+1033600082+1034884994+1035696989
2626+1035974545+1036007036+1035755819+1035012607+1034036359+1033440393
2618+1033461616+1033804084+1034200265+1034656451+1035082635+1035207276
2609+1035071160+1035132408+1035620117+1036218918+1036564082+1036575488
2601+1036197418+1035363094+1034400326+1034002071+1034538862+1035630971
2592+1036592286+1037124238+1037369095+1037443617+1037250262+1036769189
2584+1036271802+1036092341+1036214424+1036263506+1036084530+1036068284
2575+1036509469+1036994966+1037011212+1036743749+1036640677+1036712088
2567+1036930883+1037718338+1039239465+1040634085+1040731004+1039433097
2558+1037757673+1036595605+1036077479+1036068492+1036503524+1037150992
2550+1037617340+1037607178+1036934754+1035674177+1034513215+1034316472
2541+1035125081+1036136239+1036658720+1036617450+1036306712+1036088885
2533+1036182901+1036554680+1037071493+1037626603+1038046911+1038195678
2524+1038187175+1038130419+1037822654+1037168067+1036643373+1036798016
2516+1037514613+1038236187+1038687880+1039012512+1039432336+1040003900
2507+1040483659+1040447642+1039808401+1038990944+1038283057+1037472306
2499+1036512580+1035949796+1036226798+1037081931+1037920473+1038317069
2490+1038125442+1037608007+1037379810+1037833715+1038819987+1040019454
2482+1041138592+1041668263+1041166382+1039985442+1039068646+1038838859
2473+1038840656+1038622967+1038419657+1038666104+1039216514+1039443604
2465+1039060972+1038525426+1038430995+1038703158+1038751479+1038357164
2456+1037908790+1037713568+1037672228+1037754216+1038136157+1038667556
2448+1038828628+1038446203+1037932916+1037659370+1037528508+1037277499
2439+1036858643+1036413103+1036096766+1036016575+1036178615+1036471517
2431+1036820483+1037286209+1037824521+1038127931+1037977919+1037569156
2422+1037224753+1037059810+1037105988+1037364948+1037576069+1037352643
2414+1036686648+1035987610+1035611545+1035595991+1035772548+1035936869
2405+1035994523+1035992657+1035955880+1035753399+1035230019+1034404197
2397+1033517542+1032983101+1033185098+1034106180+1035225318+1036009801
2388+1036347568+1036250026+1035510824+1034144547+1032796313+1032084624
2380+1031794626+1031321710+1030682746+1030455309+1030838356+1031324752
2371+1031259632+1030416251+1029024327+1027388307+1025741917+1024638748
2363+1024789381+1025940665+1026856632+1027063329+1027401234+1028290932
2354+1028874385+1028377897+1027177946+1026103603+1025529621+1025341865
2346+1025276814+1025273772+1025546004+1026073463+1026342377+1026031709
2337+1025676521+1026148399+1027531405+1028958240+1029599140+1029377372
2329+1028594756+1027457091+1026281888+1025599303+1025698228+1026373623
2320+1027264911+1028094742+1028571183+1028517124+1028078773+1027528225
2312+1027011966+1026657124+1026684084+1027212995+1028031419+1028627109
2303+1028562127+1027942934+1027455501+1027777368+1028943930+1030248612
2295+1030744478+1030064796+1028851158+1028112854+1028196777+1028761842
2286+1029520747+1030376156+1031030398+1031204605+1031118884+1031199005
2278+1031461006+1031540367+1031128009+1030260226+1029385806+1029057855
2269+1029434058+1030259673+1031251405+1032175391+1032680175+1032422322
2261+1031381023+1029987994+1028835051+1028067367+1027320837+1026518450
2252+1026053208+1025896353+1025682535+1025905409+1027480941+1029844826
2244+1031133125+1030660002+1029779360+1029895567+1030752497+1031155799
2235+1030668021+1029909601+1029493164+1029433505+1029518327+1029609163
2227+1029690736+1029955917+1030518286+1031077475+1031359524+1031478427
2218+1031365746+1030565156+1029140603+1028165116+1028880400+1031377429
2210+1034121596+1035141603+1033918839+1031727432+1030171463+1029935870
2201+1030593223+1031064479+1030669127+1029847177+1029403503+1029488049
2193+1029816137+1030178100+1030299077+1029686381+1027922195+1025301700
2184+1023291482+1023658214+1026653045+1030776209+1034463511+1036952659
2176+1037610150+1035946962+1032829426+1030489598+1030480680+1032214864
2167+1034071961+1035326109+1036303809+1037705065+1040301157+1043646544
2159+1045164214+1043147290+1039540939+1037177537+1037008516+1038392351
2150+1039788008+1039817665+1038696729+1037602200+1036646622+1035014612
2142+1032413128+1029001238+1025126941+1022199926+1022195502+1025215288
2133+1028908397+1031065447+1031537464+1031236128+1030531836+1029164038
2125+1027186311+1025523675+1025299972+1026473516+1027634547+1027698491
2116+1027267607+1027467046+1027995334+1027461515+1025469409+1023290790
2108+1022336042+1022641180+1023080637+1022831563+1022295256+1022281153
2099+1022599357+1022306800+1021329446+1020726153+1021061500+1021686155
2091+1021938340+1021935574+1021897761+1021703576+1021433556+1021535936
2082+1022195778+1023150388+1024171363+1025085394+1025428691+1024906625
2074+1024134793+1024022734+1024491156+1024664879+1024309760+1024225007
2065+1025059885+1026329104+1026885597+1026008827+1023770550+1020957184
2057+1019076790+1019521086+1021684703+1022749713+1020755118+1017311705
2048+1015990570+1018216266+1022132248+1025646380+1028827377+1032407390
2040+1035244675+1035095631+1031778657+1027794098+1025444315+1024874964
2031+1025381683+1026775750+1028546158+1029448368+1029209871+1029315017
2023+1030898292+1032876780+1033230377+1031288528+1028151981+1025928429
2014+1026552116+1029766779+1032482949+1031963163+1029290476+1027612494
2006+1027696832+1027688260+1026533244+1025317185+1025614788+1027617333
1997+1029645180+1029720600+1027974941+1026696320+1027589958+1029846624
1989+1031397476+1030880802+1028160346+1024330499+1021166854+1019900193
1980+1020767008+1023681442+1028285471+1032962570+1035191307+1033773321
1972+1029874690+1025598404+1022476237+1021496394+1022883548+1025044262
1963+1025507499+1023720915+1021694727+1021575340+1023439073+1025513790
1955+1025772058+1023676188+1021010759+1020440509+1022751856+1025912737
1946+1027349871+1026648206+1025257665+1024358911+1024200812+1024832172
1938+1025984977+1026732959+1026403626+1025372489+1024397831+1023903278
1929+1024094906+1024859479+1025507084+1025414589+1024886508+1024699167
1921+1024817863+1024579573+1024108524+1024262337+1024895910+1024857474
1912+1023941645+1023339043+1023846385+1024656722+1024755024+1024430253
1904+1024451130+1024706495+1024533394+1023833596+1023085614+1022623621
1895+1022455567+1022417269+1022223292+1021628916+1020723941+1020130740
1887+1020718825+1022650098+1024696817+1025176714+1023956093+1022548270
1878+1022079157+1022291592+1022487574+1022468771+1022440428+1022501607
1870+1022390862+1021837964+1021228656+1021261907+1022012377+1022859284
1861+1023027269+1022272374+1021155240+1020502311+1020666770+1021337396
1853+1021861398+1021758603+1021072561+1020235402+1019661972+1019538230
1844+1019748661+1019902681+1019858853+1019929020+1020326376+1020787332
1836+1020777793+1020051172+1018843478+1017621267+1016916699+1017121668
1827+1018104276+1019271114+1019976927+1019922038+1019276298+1018416534
1819+1017743903+1017449895+1017292833+1016958177+1016473786+1015993543
1810+1015510880+1015012387+1014609154+1014323926+1013993901+1013517598
1802+1013099779+1013050490+1013296660+1013453861+1013301707+1012875730
1793+1012458395+1012545706+1013165176+1013692289+1013801513+1013638575
1785+1013398695+1013263478+1013426486+1013819418+1014109831+1014136999
1776+1013990652+1013775106+1013571105+1013407890+1013301361+1013389778
1768+1013598549+1013456903+1012625758+1011142514+1009154140+1006849291
1759+1004226377+1000826309+996244954+990418646+982773538+971591900+954602964
1749+931008352+902468212+869858621+832035694+788910113+741890811+691492386
1740+640466264+596000884+560195918+526259523+489890425+459793556+442100362
1730+432586682+428086797+427899318+431611575+438703854+447758168+457365103
1720+468377166+483630985+504260353+526396642+546528726+565475273+585065486
1710+605719118+627447232+651355208+676795648+699447194+718047056+737338145
1700+759993355+780627562+797131762+812979438+827198283+837396000+845177846
1690+852776637+859975997+865830165+871643201+879925545+889310920+896314229
1680+901118526+905011212+908799305+913049736+917417826+920836283+923517473
1670+927034370+931814680+935991834+938541332+940303790+942369727+944817259
1660+946765261+947690284+947723466+947296660+947391990+949184589+950978363
1650+950821370+949833992+949865722+951812480+954074883+955108163+955079198
1640+954574897+954026700+954030226+955619238+958655754+961112826+962275724
1630+962822400+963384700+964159919+965010558+965871982+966898003+967959280
1621+968572666+968738577+969203335+970561800+972051473+972765651+972920778
1611+973136116+973734571+974459118+974858618+974934384+975009873+975185393
1601+975280308+975127255+974758587+974482276+974644800+975117301+975394164
1591+975283350+975074095+975098843+975400386+975787512+976110761+976320570
1581+976218880+975562218+974599244+974226290+974841750+975357180+974914544
1571+973803286+973003871+973000830+972969860+972188557+970665357+968343087
1561+964746967+959889025+955963918+953880284+951376549+947686275+943176953
1551+938149920+932669259+926866316+920788929+914102372+906542708+898203263
1541+888480328+877165754+867043942+858454179+848102026+832967353+813670872
1531+794266272+775488401+754075657+727893664+699174616+670538800+639661458
1521+604903735+572034183+544858764+520630303+499016841+483193498+473990383
1511+469841434+470252582+479130719+505788566+546277440+580445903+606663083
1502+632024992+660070925+691432589+724834957+755455760+778264091+793990929
1492+806952169+820708814+835101521+847184539+855847303+861726772+865432532
1482+867495634+868121050+866875750+863215201+856860327+847442254+834895929
1472+821349991+809765397+800222959+791107189+781374300+771660352+763845876
1462+758512116+754758726+752280362+752440812+755805901+759357225+761313453
1452+762247324+763035332+764444953+767100980+771106900+776163797+782295866
1442+789633347+797792502+806751763+817951305+832087402+845854071+856498227
1432+865532147+875212222+885550687+894780382+902158650+908425245+914005176
1422+918452557+921776998+925121279+929291105+933337742+936231229+937964999
1412+938887878+939283230+939180227+938352816+936568582+933734131+929791603
1402+924327257+916264330+904297173+887628929+865439998+836648571+803157924
1392+770477199+741998031+717409543+696455681+680853622+672340247+671123083
1383+677231786+690388179+707779242+723743332+732385841+730061360+717444385
1373+700713233+687518749+682642834+688200505+703369191+724775368+749028646
1363+772438128+790140965+799656304+802391554+800773991+796965436+792990348
1353+790080684+787963591+785228204+780400541+772943396+763651346+754355632
1343+747294392+744702518+748351314+758019844+770640552+782618770+792063873
1333+798474396+801856145+802410219+800385829+795827287+788542828+778564252
1323+766636222+754272123+743640065+737276343+736974385+742567935+752136918
1313+763011068+772578116+779106573+782250655+782792907+781898371+780190594
1303+777165830+771601246+762789369+751603860+740605070+733163342+732051323
1293+738256877+750718656+767003369+784347424+800518004+814288406+825478547
1283+834581044+842273229+849119061+855454232+861347044+866636285+871064863
1273+874466314+876811189+877915326+877077061+873198893+865333676+853005663
1264+836117379+815024636+791196021+767699297+748344056+735875986+730736756
1254+730964468+733027087+733268488+729281025+720434307+707446521+691697562
1244+674847162+658584985+644296595+632834775+624419703+618495092+613721211
1234+608398788+601177997+591621319+580293334+568374533+557204612+548041281
1224+541765838+538297262+536155974+532789640+525787645+514471481+500828934
1214+489009472+483638831+487823002+501783890+522939300+547330318+571261383
1204+592187490+608685399+619910035+625224232+624467886+618560350+609749026
1194+601240767+596393195+597723593+606181388+621141993+640960679+663576070
1184+686942900+709270851+729119124+745556129+758333001+767668257+773703614
1174+776262998+775041617+769647783+759418819+743644904+722325623+696748791
1164+669440400+643721437+623079073+610262175+606263929+609805574+617854330
1154+626999134+634833104+640522674+644397732+647002603+648196540+646793970
1145+641083384+630066966+614578072+597371378+582174004+572503953+570908062
1135+578642554+595537647+619915358+648707407+678082702+704528839+725717465
1125+740580944+748802039+750308441+745138587+733788411+717846788+700324033
1115+685066655+675372685+672765809+676772973+685515167+696355512+706260120
1105+712107651+711154700+701563250+682744109+655362787+621068578+582146628
1095+541142600+500424353+461833154+426581466+395350699+368445888+345926414
1085+327714161+313737442+304154978+299582887+301073735+309659523+325654860
1075+348188679+375217924+403940912+431405811+455052477+472966471+483966955
1065+487901118+486042812+480971087+475867839+473789493+477022371+486382791
1055+500911717+518412281+536410128+552908936+566851401+578236556+587715291
1045+595927192+603099177+609092572+613828293+617772549+621877255+626803359
1035+632188690+636656949+638253496+634743512+623953769+604519928+576753796
1026+543167993+508452197+478673842+459695046+455430962+466719405+491159125
1016+523836221+558690449+590165381+614508943+630131948+637031009+635934683
1006+628006905+615288931+601056468+589056405+581689336+578491195+576284165
996+571040307+560286166+544722751+528204276+515978471+512210875+518356493
986+533048772+552944054+573845689+591858433+604300442+610225191+610674533
976+608430103+606831275+608085977+612252692+617564538+621669798+622859656
966+620564416+615078294+607064380+597378913+587260557+578494894+573163449
956+573021941+578899958+590433604+606268491+624685575+644229816+663860331
946+682741689+700198425+715891458+729815881+742029001+752488788+761239001
936+768633721+775154367+780942033+785695520+789073467+790924964+791032391
926+789013393+784751832+778611191+770826718+760729170+746910378+728549704
916+706973468+686133462+671375406+667106725+674741255+692125544+714737340
907+737823158+758098375+774156482+785839793+793433053+797254190+797702979
897+795501963+791717189+787385530+783200565+779697493+777507468+777080455
887+778309993+780724758+783819274+786925749+789102363+789508706+787687281
877+783385693+776482830+767154348+755759238+742597730+728118957+713423325
867+700348505+690760096+685235953+682026336+677449752+667794218+651348295
857+629255730+605061351+583442255+568724294+563812396+569800365+586022377
847+610268051+639131926+668589001+694862106+715280975+728478984+733926325
837+731675051+722651846+708908128+693526800+680366743+673381753+675166195
827+685500373+701380264+718864513+735200244+749443907+761626748+771929957
817+780596938+787989653+794348191+799693358+804129540+808067091+811980585
807+815947239+819457984+821700893+822088226+820562744+817344278+812271966
798+804547083+793585000+780268088+767047267+756702719+751030638+750297450
788+753368600+758218799+762449252+763571570+759365659+748485080+731062148
778+709402473+688595581+675564519+675831774+690205193+714279841+741014110
768+764129100+780145729+788427589+789853317+785385819+775758006+762460866
758+748660669+738474635+735048574+739250614+749745243+763903738+778867593
748+792369633+803191175+811302631+817532311+822649143+826676217+829290973
738+830583143+830914827+830137880+827322232+821436196+812486890+802184027
728+793423998+788874996+789655745+795015153+803088380+811878826+819858728
718+826292202+831153600+834638076+837043992+839023863+841080053+842727065
708+843061444+842163520+841042723+840255821+839326858+837538683+834883209
698+832145126+830132902+828980789+828286866+827629721+826713339+825269845
688+823025968+819714593+815149760+809241810+801887115+793036526+782914921
679+772027568+760949486+750281066+740972286+734309441+731448514+734100877
669+744613824+760088961+772340241+779435077+783915019+787280246+789493360
659+789981414+788514762+785890811+783920065+784227415+787000893+791154267
649+795524638+799435159+802349454+803883439+804387946+804813854+805678457
639+806612398+807059251+806937445+806427130+805472313+803789492+801262737
629+798077385+794489215+790649344+786561022+782056747+777084534+772229426
619+768693449+767489696+768667525+771371597+774510909+777159885+778642714
609+778902503+778850656+779718785+781771864+783995071+785249496+785366186
599+784904055+784293779+783606217+782849317+782067877+781205001+780099689
589+778664974+776981669+775174207+773188115+770762773+767780178+764562335
579+761494020+758304105+754201196+749046274+743814341+739307923+734911905
569+729114699+721157264+711988403+703540355+697253713+693360474+691371616
560+690843397+691475311+693139605+696334082+701895417+709642422+717818445
550+724404695+728810045+731865365+734390875+736476169+738074168+739300457
540+739869808+739203883+737444328+735439294+733592360+731611314+729279090
530+726584350+723061438+717668019+709813656+700522020+691824415+684954734
520+679522325+674080515+667564777+660117242+652492735+645904964+642829804
510+646198488+656554857+670968164+685917432+699952185+712099771+720545260
500+725567385+730386891+736986414+744057331+749536057+753056272+755020451
490+754999020+752399611+748017695+744452545+744977930+751310474+762292812
480+774824204+785495666+791974281+794235993+794095730+792965323+790548830
470+785714945+777567957+765688525+751018471+736364939+725072348+719390451
460+720101241+727152042+739160124+752738276+765662740+778460558+790987664
450+801147567+807859011+812339575+816112113+819716943+823042283+825745387
441+827759270+829645470+831883747+834264016+836576192+839066032+841340118
431+842384873+842536613+843344184+844639949+843979900+840195540+835419586
421+832551124+833194996+836588774+839489036+839322987+835578653+830121703
411+826278376+825163593+824716393+823948226+825337799+830765230+837581405
401+840745258+837753607+832607672+832571378+837446534+841755863+843458455
391+843580123+841815729+836225844+827569094+821273879+821618145+825394140
381+827212662+825967846+822187634+814322003+801746506+790370545
##END=
