##TITLE=X8541
##JCAMP-DX=4.24
##DATA TYPE=INFRARED SPECTRUM
##DATE=31/10/2018
##SAMPLING PROCEDURE=Diamant-ATR
##ORIGIN=ComPlat
##XUNITS=1/CM
##YUNITS=TRANSMITTANCE
##RESOLUTION=4
##FIRSTX=3997.453
##LASTX=373.96442
##DELTAX=-1.4165319
##MAXY=1.0105244
##MINY=0.33890277
##XFACTOR=1
##YFACTOR=9.4112418e-010
##NPOINTS=2559
##FIRSTY=0.98609054
##XYDATA=(X++(Y..Y))
3997+1047779414+1047278636+1047220623+1047618673+1048023627+1047935024
3989+1047390736+1046859179+1046610151+1046491084+1046295574+1046112414
3980+1046176571+1046441938+1046611418+1046638715+1046771145+1046982869
3972+1046951835+1046728838+1046794198+1047320119+1047868017+1047889677
3963+1047276483+1046480191+1046157001+1046550111+1047284083+1047817794
3955+1047974227+1047982334+1048053774+1048062134+1047774157+1047293329
3946+1046964945+1046960639+1047260333+1047781440+1048318825+1048635682
3938+1048650375+1048422438+1048113308+1047954404+1048077904+1048408315
3929+1048829356+1049205683+1049195486+1048452648+1047233606+1046430918
3921+1046615028+1047421453+1048029771+1048183924+1048423135+1049034239
3912+1049584607+1049646104+1049290296+1048788126+1048234021+1047638053
3904+1047129549+1046818265+1046574241+1046315651+1046269417+1046549605
3895+1046851959+1046874949+1046790588+1047077109+1047699613+1048091458
3887+1048054724+1047932427+1048008934+1048077144+1047951807+1047847434
3878+1047921977+1047935214+1047654330+1047107319+1046436871+1045867757
3870+1045906073+1046875899+1048196591+1049019546+1049034049+1048525292
3861+1047910451+1047292633+1046648215+1046028497+1045499409+1045252599
3853+1045740900+1046792298+1047577507+1047873590+1047839390+1047587323
3844+1047199406+1046849805+1046680515+1046575191+1046282907+1045821967
3836+1045536079+1045637223+1046061747+1046696285+1047413853+1047954277
3827+1048004501+1047483140+1046647011+1045883907+1045669460+1046328381
3819+1047309669+1047885054+1048186204+1048769442+1049638884+1050193495
3810+1049900578+1048702055+1047255013+1046501218+1046418061+1046242184
3802+1045850087+1045793910+1046157887+1046555748+1046972862+1047562877
3793+1048249031+1048922836+1049613044+1050233268+1050454999+1050090261
3785+1049483844+1049154763+1049062296+1048789266+1048351125+1048215718
3776+1048465948+1048755762+1048972173+1049271866+1049682901+1050015275
3768+1050170505+1050218322+1050148718+1049880058+1049484477+1049237603
3759+1049409743+1049892914+1050191025+1049996971+1049406703+1048739422
3751+1048490142+1048907826+1049378393+1049193206+1048311731+1047517720
3742+1047547423+1047956937+1047992087+1047272683+1045869847+1044557324
3734+1044362257+1045320556+1046617751+1047544636+1047678967+1046947339
3725+1045931027+1045608596+1046333448+1047541533+1048513638+1049047286
3717+1049418673+1049854344+1050120345+1049622860+1048252831+1047134299
3708+1047124799+1047639637+1047946614+1048084428+1048500908+1049209736
3700+1049649270+1049589420+1049405437+1049399483+1049389413+1048994593
3691+1048228321+1047761364+1048222811+1049105236+1049546290+1049410123
3683+1048916819+1048326868+1047907157+1047696637+1047428610+1047026442
3674+1046844168+1046897622+1046972799+1047466736+1048838412+1050390209
3666+1051126333+1050898333+1050182158+1049590180+1049367437+1049298973
3657+1049201123+1049160020+1049048046+1048408631+1047107066+1045782383
3649+1045712653+1047307833+1049338557+1050761786+1051333180+1051223360
3640+1050743039+1050055555+1049186556+1048331555+1047838440+1047796134
3632+1047888284+1047854654+1048037307+1048958493+1050042951+1050485715
3623+1050330422+1049944784+1049522604+1049145833+1048943356+1048816436
3615+1048499768+1048068467+1047877834+1048012101+1048283231+1048661459
3606+1049260593+1050086588+1051005240+1051716094+1051815591+1051222283
3598+1050375705+1049746867+1049482450+1049570610+1049956818+1050407182
3589+1050508959+1050054731+1049576184+1049785627+1050455695+1050970026
3581+1051231404+1051603804+1052268742+1052938557+1053303801+1053410074
3572+1053439271+1053373024+1053047047+1052489903+1052180012+1052586613
3564+1053413304+1054027259+1054183376+1054067159+1053906039+1053679305
3555+1053347501+1053172321+1053496398+1054167226+1054540386+1054226633
3547+1053547191+1053229067+1053671008+1054596880+1055466068+1055967099
3538+1056187310+1056370660+1056452297+1056147600+1055577472+1055240791
3530+1055297981+1055388865+1055247694+1055027611+1054910001+1054880044
3521+1054993981+1055530478+1056701261+1058265914+1059577043+1060146284
3513+1060066610+1059795036+1059668876+1059691993+1059642593+1059350499
3504+1058898171+1058537171+1058391440+1058363004+1058389730+1058549837
3496+1058840095+1059079432+1059184755+1059378049+1059911127+1060660361
3488+1061176782+1061175516+1060779238+1060246351+1059681606+1059054668
3479+1058370414+1057796993+1057592172+1057792179+1058082437+1058209990
3471+1058306827+1058566494+1058914005+1059250052+1059673500+1060251861
3462+1060827118+1061176972+1061260446+1061297749+1061580597+1062122414
3454+1062600455+1062672655+1062194741+1061228653+1060112780+1059336312
3445+1059062585+1059034212+1059048082+1059085195+1058993742+1058539197
3437+1057861719+1057492802+1057756713+1058388780+1058933068+1059308509
3428+1059739493+1060289861+1060751308+1060925919+1060818948+1060597661
3420+1060426788+1060356044+1060350914+1060334321+1060144700+1059636006
3411+1058893548+1058171610+1057582292+1057013368+1056370027+1055795276
3403+1055560245+1055719339+1056042276+1056388520+1056804241+1057088228
3394+1056820011+1056103329+1055659742+1055879066+1056371357+1056657370
3386+1056767634+1056999371+1057399322+1057666842+1057508699+1056979991
3377+1056368000+1055852719+1055486208+1055348838+1055472528+1055760062
3369+1056129676+1056523800+1056744897+1056563764+1055991546+1055227998
3360+1054460333+1053856448+1053535475+1053391454+1053121654+1052528283
3352+1051659791+1050657856+1049651424+1048778119+1048065617+1047262929
3343+1046025837+1044313744+1042396450+1040485300+1038582826+1036600046
3335+1034402755+1031872267+1029074385+1026198919+1023255370+1019997307
3326+1016150623+1011575731+1006263448+1000291547+993773141+986816278+979537617
3316+972107526+964828929+958145350+952428556+947855690+944695984+943464402
3306+944413580+947044199+950371232+953461271+955614482+956367580+955569895
3296+953307814+949647394+944612891+938387085+931185755+922842713+912869277
3286+901053851+887764782+873672456+859471955+845913023+833846417+824117321
3276+817441405+814293986+814746567+818379564+824503149+832550107+842165962
3267+852950510+864309555+875615969+886445230+896669086+906313124+915331302
3257+923655597+931413629+938788746+945705899+951979015+957684472+963077632
3247+968245072+973047078+977351726+981267000+985150291+989240302+993252793
3237+996566969+998901884+1000602134+1002218720+1004026890+1005969011+1007833611
3227+1009406117+1010597546+1011481681+1012123122+1012440360+1012395963
3218+1012215336+1012193043+1012358153+1012518767+1012554170+1012511546
3210+1012461640+1012378610+1012238896+1012221099+1012642013+1013580615
3201+1014749941+1015848396+1016790481+1017527619+1018017060+1018506628
3193+1019468600+1021061373+1022922173+1024620840+1026115319+1027657172
3184+1029391115+1031135762+1032548415+1033470550+1034087164+1034762679
3176+1035731807+1036890176+1037844611+1038295229+1038421009+1038684793
3167+1039219074+1039704082+1039888825+1039877805+1039848292+1039818905
3159+1039778055+1039772672+1039833028+1039983445+1040269523+1040621150
3150+1040833887+1040838447+1040840474+1041040987+1041392235+1041761215
3142+1042100303+1042296700+1042106636+1041486538+1040812607+1040514560
3133+1040587963+1040710767+1040758710+1040909381+1041240488+1041520485
3125+1041458102+1040950294+1040047476+1038859403+1037535481+1036266468
3116+1035282456+1034760589+1034607512+1034481858+1034207814+1034001537
3108+1034116678+1034456905+1034681485+1034552032+1034085454+1033421783
3099+1032540245+1031180982+1029130941+1026422043+1023156507+1019418756
3091+1015467445+1011694102+1008255475+1004961755+1001573226+998054989+994562972
3081+991304593+988423237+985950509+983796032+981775695+979696774+977409233
3071+974847458+972242743+970309300+969867169+971144414+973584336+976215714
3061+977955547+977818050+975485986+971945836+969222181+968939714+970897667
3051+973102242+973206172+970098716+964671355+959412715+956866837+957970359
3041+961803110+966785489+971713782+975858957+978919293+981142233+983040400
3031+984845151+986478457+988017840+989898337+992545612+995884552+999293158
3021+1002073940+1003937337+1005052956+1005734487+1006157174+1006363261
3013+1006439072+1006554212+1006814829+1007188053+1007559820+1007835511
3004+1008126085+1008855560+1010418566+1012742967+1015431092+1018167287
2996+1020696889+1022712476+1024119429+1025159111+1026019812+1026570433
2987+1026588167+1026025512+1024981840+1023519281+1021556197+1018942489
2979+1015567132+1011318851+1006038678+999604949+991909237+982698653+971613462
2969+958439470+943340712+927010877+910579963+895040973+880539512+866275172
2959+851334493+835946491+822142458+813127004+811760775+819183835+834161057
2949+853295930+872261893+887574592+897668298+902676201+903494279+900946754
2939+895460620+887236328+876612395+864314558+851474587+839458394+829604152
2929+822998093+820302241+821586137+826211062+832896731+840096542+846611211
2919+852094431+857052554+862347991+868645743+876151834+884665433+893778484
2910+903033782+911959682+920098537+927151224+933138199+938329705+942900101
2900+946713345+949617690+951898201+954184412+956891537+959950860+963052996
2890+965923078+968364899+970229753+971424602+971880793+971442905+969741705
2880+966192372+960131867+950992596+938663853+924245802+910567043+901343728
2870+899084624+903435949+911446301+919511816+925455661+929289615+932338614
2860+935743610+939685928+943649145+947022855+949485767+951167776+952688603
2850+954965377+958746954+964193378+970841934+977870237+984403906+989879273
2840+994319772+998144099+1001629212+1004706585+1007255250+1009362101+1011238734
2830+1013005041+1014603957+1015920850+1016976682+1017948850+1018988595
2822+1020077108+1021054913+1021788757+1022351222+1023004950+1023909035
2813+1024892413+1025628285+1026004549+1026231346+1026604253+1027224921
2805+1027950153+1028562587+1028963488+1029255455+1029674532+1030382284
2796+1031297896+1032198181+1032945262+1033530843+1033986907+1034371721
2788+1034763882+1035192650+1035633704+1036092175+1036600742+1037139013
2779+1037627061+1038019918+1038362742+1038735333+1039154221+1039533588
2771+1039740498+1039708895+1039522125+1039354164+1039349351+1039595781
2762+1040104666+1040686953+1041018631+1041006914+1040913307+1040974994
2754+1041137444+1041256575+1041323771+1041413515+1041570645+1041740189
2745+1041773376+1041619539+1041475202+1041556712+1041782306+1041865842
2737+1041651459+1041206541+1040655793+1040067362+1039504645+1039086010
2728+1038944207+1039136297+1039606865+1040205619+1040783537+1041324025
2720+1041939056+1042667201+1043359499+1043806949+1043907650+1043724173
2711+1043472675+1043405922+1043618089+1043972440+1044250284+1044346234
2703+1044314314+1044242747+1044126530+1043924370+1043688896+1043523216
2694+1043457792+1043481732+1043596492+1043740703+1043790926+1043721893
2686+1043644436+1043638102+1043662929+1043681106+1043794346+1044178907
2677+1044869558+1045679783+1046348584+1046721682+1046818138+1046817758
2669+1046904145+1047056209+1047135819+1047179012+1047322716+1047452676
2660+1047283196+1046819088+1046410144+1046320274+1046519648+1046886602
2652+1047348176+1047800694+1048127241+1048346628+1048546255+1048641382
2643+1048452838+1048088861+1047941231+1048179618+1048539668+1048724792
2635+1048721942+1048611489+1048372595+1048043071+1047840467+1047934454
2626+1048221481+1048490965+1048718269+1048997696+1049267243+1049344320
2618+1049193966+1048950512+1048745185+1048717255+1049056026+1049744651
2609+1050347902+1050362342+1049841804+1049447173+1049701774+1050334918
2601+1050625239+1050307368+1049773657+1049428870+1049302076+1049317847
2592+1049485364+1049743447+1049975374+1050192735+1050422889+1050520802
2584+1050387549+1050244352+1050390779+1050788513+1051115313+1051181053
2575+1051134567+1051259777+1051663528+1052238089+1052882760+1053549091
2567+1054018962+1053980392+1053482021+1052964143+1052680030+1052464189
2558+1052185522+1052031242+1052222635+1052731773+1053308361+1053636365
2550+1053544975+1053177894+1052881430+1052912083+1053275807+1053737382
2541+1054016492+1054125806+1054365016+1054827667+1055239018+1055458722
2533+1055672092+1055909402+1055954939+1055901169+1056186486+1056912351
2524+1057617569+1057842529+1057593566+1057272845+1057334912+1057896236
2516+1058601454+1059006915+1059030412+1058844655+1058523934+1058115877
2507+1057907383+1058210750+1058836231+1059153469+1058811088+1058100550
2499+1057532195+1057395079+1057731696+1058324560+1058699684+1058528177
2490+1057982496+1057455245+1057122808+1056993228+1057142695+1057648349
2482+1058349514+1058825528+1058738381+1058225127+1057783503+1057711872
2473+1057829673+1057774953+1057406415+1056903358+1056617407+1056819884
2465+1057474562+1058222277+1058624001+1058474344+1057941393+1057438905
2456+1057333898+1057649679+1058021320+1058074900+1057878249+1057829483
2448+1058097193+1058440017+1058649841+1058910775+1059555889+1060563335
2439+1061474323+1061842544+1061644183+1061144609+1060508488+1059715933
2431+1058779548+1057867103+1057231235+1057102351+1057549422+1058296314
2422+1058797725+1058737178+1058313097+1057816309+1057234338+1056592580
2414+1056226070+1056286300+1056407520+1056249123+1055995156+1056064443
2405+1056611517+1057416802+1058057610+1058206190+1057895920+1057449799
2397+1057114131+1056853261+1056487004+1055912506+1055177711+1054446020
2388+1053895145+1053538578+1053119564+1052268742+1050740316+1048426808
2380+1045319859+1041612192+1037689254+1033888297+1030380067+1027257728
2371+1024548069+1022159195+1019836250+1017095115+1013596005+1009937992
2363+1007507507+1007018573+1007721194+1008487149+1009165323+1010416856
2354+1012827897+1016564508+1021066313+1024881077+1026449910+1025137261
2346+1021831254+1018635131+1017095052+1017067692+1017826933+1018971115
2337+1020334558+1021777167+1022906340+1023236180+1022927683+1022824956
2329+1023397111+1024236215+1024785507+1024975317+1025149927+1025809862
2320+1027363305+1029812346+1032691928+1035428503+1037639348+1039118374
2312+1039924355+1040623937+1041979019+1044152433+1046574431+1048693062
2303+1050415479+1051732941+1052469573+1052680600+1052931907+1053847645
2295+1055449982+1057117361+1058213853+1058686638+1058996402+1059570646
2286+1060479481+1061527650+1062360801+1062547002+1061926397+1060917939
2278+1060209744+1060165221+1060698615+1061522836+1062269601+1062534715
2269+1062114244+1061273936+1060669735+1060832692+1061695040+1062693555
2261+1063228976+1062972223+1062087391+1061315483+1061352216+1061954264
2252+1062162758+1061541266+1060730345+1060656751+1061479390+1062500768
2244+1063067223+1063240250+1063390603+1063548937+1063543870+1063486997
2235+1063795937+1064807879+1066346376+1067665485+1068083612+1067648131
2227+1066953363+1066552589+1066666716+1067094217+1067273451+1066650376
2218+1065041073+1062769555+1060642818+1059536509+1059716186+1060726862
2210+1061993024+1063244810+1064309192+1064904653+1065027266+1065259447
2201+1065989808+1066540556+1066029962+1064868679+1064319325+1064910226
2193+1066118122+1067054570+1067064957+1066389442+1066202102+1067327917
2184+1069306835+1071031025+1071554032+1070287616+1067356038+1064040785
2176+1062252058+1062911042+1064906173+1066453156+1067394291+1069020441
2167+1071658406+1073741823+1073563476+1070981118+1067280037+1064257512
2159+1063227203+1063926404+1064858166+1065124040+1064944173+1064364925
2150+1062823136+1060637308+1059547719+1060554785+1062442882+1063529304
2142+1063570217+1063219730+1062916616+1062835169+1063008069+1063212256
2133+1063160830+1062773482+1062103098+1061224726+1060332927+1059754060
2125+1059641200+1059728156+1059652283+1059427829+1059325419+1059486919
2116+1059933990+1060652001+1061397373+1061713027+1061332583+1060444901
2108+1059569886+1059195395+1059421876+1059988457+1060607731+1061069116
2099+1061193439+1061080072+1061283816+1062350668+1064166311+1065978788
2091+1067010490+1066902697+1065769281+1064185438+1063033403+1062870382
2082+1063391870+1063928178+1064300452+1064682226+1064974193+1065018780
2074+1065129233+1065682388+1066333076+1066246055+1065173567+1063856484
2065+1063248610+1063700177+1064964313+1066540429+1067841932+1068448413
2057+1068305913+1067528051+1066262269+1064902880+1064002531+1063702837
2048+1063455583+1062702295+1061786747+1061481416+1061710747+1061742097
2040+1061523406+1061680790+1062432875+1063539057+1064693372+1065335194
2031+1065254254+1065427027+1066855197+1069107968+1070999738+1071668539
2023+1070773131+1069017781+1067955425+1068029905+1067963279+1067066477
2014+1066539796+1067518424+1069342175+1070293190+1069378401+1067421271
2006+1066382856+1067244191+1068959894+1069788929+1069163574+1068054479
1997+1067856118+1069018034+1070489143+1070386163+1067874865+1064608759
1989+1063097876+1063839764+1065303780+1066160555+1066370569+1066408189
1980+1066509143+1066532449+1066098488+1065195607+1064327938+1063480790
1972+1061947044+1059852227+1058688981+1059505476+1061285843+1062255288
1963+1062248004+1062341928+1062784629+1062813889+1062242178+1061712647
1955+1061659320+1062051417+1062665309+1063164123+1063477370+1063987584
1946+1064851199+1065692774+1066209575+1066336749+1065949782+1065119987
1938+1064301338+1063805817+1063416950+1062685322+1061483570+1060234507
1929+1059566086+1059758936+1060582335+1061490410+1061815437+1061196922
1921+1060056477+1059238715+1059209519+1059683886+1060026900+1059961793
1912+1059667673+1059397429+1059263732+1059272092+1059333462+1059315476
1904+1059202362+1059095075+1059122182+1059355882+1059523779+1059010272
1895+1057675139+1056224106+1055145791+1054055379+1052609919+1051293280
1887+1050783699+1051093400+1051688544+1052121239+1052450509+1052968640
1878+1053812115+1055078531+1056773714+1058462121+1059622706+1060290177
1870+1060906412+1061800427+1062928649+1063960224+1064592799+1064758226
1861+1064555179+1064130465+1063628990+1063114216+1062584495+1062085427
1853+1061597190+1060979625+1060256104+1059591419+1058937311+1058140703
1844+1057330415+1056862191+1056972201+1057616619+1058401067+1058831861
1836+1058804565+1058451671+1057716939+1056618674+1055532062+1054796507
1827+1054337846+1053996669+1053856385+1054085209+1054575473+1055006584
1819+1055275435+1055499825+1055647772+1055613762+1055434528+1055104054
1810+1054639313+1054326953+1054346143+1054515750+1054623987+1054505046
1802+1054041636+1053501528+1053302851+1053387084+1053472964+1053348641
1793+1052789153+1052044542+1051831551+1052010468+1051886271+1051345404
1785+1050661086+1049912294+1049022079+1047940534+1046712435+1045466349
1776+1044045906+1042003783+1039226421+1036106868+1032940195+1029732673
1768+1026353200+1022374592+1017088465+1009461344+998917337+987230985+976781219
1758+966977137+956211843+944256070+929621925+906641065+866340025+803383912
1748+726055538+653770471+606188173+593830677+611819594+642398062+664553624
1738+666837619+650021383+617808152+581494396+564953028+574902967+599195210
1728+628688080+661110121+699111270+743682948+788288067+825362394+854804216
1718+881103243+905500113+924353405+936972786+945980893+952896716+957920199
1708+961096942+962893585+964406875+966762943+970203153+974512678+979054193
1698+982387876+984134043+985238008+985895916+985390325+983424581+980484389
1689+977548250+975177425+972864994+969778819+966257478+962773252+958433517
1679+951716307+940059785+921185466+899304011+884612740+882744340+892691239
1669+907644204+918425014+922262958+920366375+913023177+900552567+884167252
1659+864481948+841685451+812585946+759536768+660435747+558001168+495772408
1649+455976643+429365065+430389041+462296561+508269175+558028592+606712638
1639+650754215+692461638+737536373+780334461+809350113+826953583+840036375
1629+851482503+860951298+867710751+872708204+877881470+883767365+889025562
1619+892676798+894663949+895244653+895275433+896068748+898805323+904106967
1609+910866356+916374277+919408836+922094364+927610962+936866893+947764933
1599+957503022+964798086+969791169+972960691+974656254+975100919+974304057
1589+972106576+968536153+964194771+960265437+957776812+956628387+955733548
1579+954066169+950915836+945847386+939856168+934486821+929178275+922178471
1570+912440003+900479227+886123749+867751031+845896683+822874212+795911134
1560+754306565+703340488+673165771+661876583+655832165+649526433+639459643
1550+623291816+602267833+579034968+555052109+532968684+518171519+517692307
1540+536036303+561980346+583838368+605018911+632179653+664164187+692221224
1530+713712165+732956478+752916839+772190159+788893028+804955088+822544372
1520+839052490+852081575+863308443+873776259+882501266+889290295+894868579
1510+899581728+903694983+906656138+904445674+895269417+881820304+866287712
1500+851306120+841953795+844856684+860903355+881582171+899807512+915270628
1490+929682092+942003299+949356440+950402645+943066224+923751168+893824717
1480+865740067+855438311+867448424+890985859+907044689+898319809+860852751
1470+808645972+756671626+712844370+685445178+680994166+690944928+698281919
1460+695365286+683200957+669529607+667769381+678446894+692147694+704577454
1451+714064172+719445109+721492173+723249613+727554831+734432021+740687403
1441+741782565+734210924+717015321+696861793+687387741+692313311+705153915
1431+720829325+737610157+754708733+771230151+786397120+799721592+812074592
1421+826752626+847262595+871282504+891780377+906842909+918666441+928693964
1411+937215670+944057013+949060039+952558072+955085014+956706224+957003258
1401+955279068+950637992+942502557+931069728+917987380+907475293+903664583
1391+906521111+913265618+920666892+925099854+923643627+915277975+899516875
1381+875470619+842923810+803865816+763004908+727420944+704606397+696365322
1371+695809064+694500975+689352408+683059090+680139607+683094493+691098385
1361+700322902+707387369+712244665+716820951+723316936+733320139+746732834
1351+761808603+776699691+790478961+802595537+811903085+816706611+815648942
1341+808249758+795200723+778707742+761503969+745488838+732663244+726312482
1332+729691702+743538991+765293526+790499417+814593427+833998164+846865938
1322+853566997+856460070+858982578+864270984+873747252+886641817+900553073
1312+912636020+920963419+924815803+923765734+917170822+904912695+888557591
1302+871682202+858719681+852778686+853915331+859065608+863527766+862864602
1292+854207045+836966602+813454564+789059911+770702076+763542039+768443035
1282+782185445+799733372+816739861+830828007+841123430+846801338+845952353
1272+835604617+813119467+778494055+735907627+692700595+656020265+629721175
1262+614114418+607776260+608247144+611237940+611296143+605116445+594608728
1252+586092405+585836601+596150708+615085827+638623388+662636141+683705851
1242+699711228+710784069+719675579+730168223+744160673+760188153+774870431
1232+785370738+790262867+788659074+779103386+759247968+726827826+682331008
1222+632197006+589199164+567403463+573515838+601136380+633792439+655057280
1213+657596571+644829877+625997674+610190151+603205928+606677171+618232423
1203+633115975+646743751+656321669+661228048+663108482+665282972+670666063
1193+679349459+687955526+691790493+688747257+681421920+674278856+668458955
1183+660942224+649361196+635955847+625711534+621574719+622385831+624767992
1173+626175071+626551715+628032705+633332132+643845042+658313949+672811800
1163+683013996+688314120+693536026+704150650+718749644+727759208+720490111
1153+693377756+653081846+613748414+590150560+590122946+611218116+643548198
1143+675943133+701538398+720159194+736154121+753457770+772348493+790272810
1133+804799795+815504035+823471510+829202808+830967024+825866085+813554758
1123+798649800+787839982+783868595+783123477+779347663+769021080+753649607
1113+738442865+729170214+729244948+738730462+755335227+775923983+797609738
1103+818455184+837629830+854926450+870207609+883191980+893368906+899877496
1094+901537212+897277214+886850627+871296058+853009916+835980121+825773618
1084+827545435+842368883+865759447+890789525+912642796+930135496+944081650
1074+955386734+964467042+971605102+977345393+982353232+986937435+990945745
1064+994156942+996602563+998485593+999961326+1001045278+1001498556+1000600867
1054+997254201+990534838+979927371+964955913+944859828+918925095+888290007
1044+859017728+841994899+845788509+868503876+898832430+925018217+941267238
1034+947740803+948573828+949892621+956322930+967774188+980331502+990418241
1024+997259331+1001572466+1003268916+999994259+986304923+956725540+914552363
1014+875950243+857652069+858818734+860907978+847436572+818938988+787150091
1004+761262352+744896481+741551461+754779476+782391722+815666929+845665832
994+867550011+878952502+877987617+864954732+844948201+827053397+819671376
984+825856965+842757687+864667515+886053513+903194205+915388365+924978507
975+934736165+944634867+951913148+954471059+953254297+950900319+948820702
965+945717363+938020005+922223438+898789933+874154423+857184921+852860006
955+859983120+874474764+893043246+913287848+932193010+946439934+954285619
945+956493930+955284198+952251222+947221722+939789795+932059883+928293253
935+931033311+938732759+947395193+953272980+954595130+952736609+951356193
925+952899693+956810724+962018064+969093994+978389192+987865206+994572599
915+997486318+998015406+998467416+1000514037+1004441851+1009243604+1013547365
905+1016730758+1019205956+1021742334+1024714700+1027939576+1030844428
897+1032652155+1032872239+1031972967+1031234879+1031470796+1031993994
888+1031096875+1027325621+1020075398+1009562931+997161164+985708259+978396222
878+976614145+978990289+982600676+985002977+985633842+986093643+988999508
868+995820965+1005614787+1015979876+1024939217+1031733946+1036445449+1039468481
858+1041083991+1041207681+1039930815+1038418539+1038390862+1040218413
850+1042404557+1043537909+1043798589+1043907333+1043685096+1042556430
841+1040602973+1037875518+1032638285+1021463794+1002700244+980337519+962771289
832+956214186+960199064+970243116+982837543+996190959+1008196765+1016545698
822+1020799806+1022854090+1025072534+1028480190+1032656461+1036733426
813+1040074646+1042263196+1042999321+1042085039+1039209004+1033759794
805+1024954037+1011888599+993566104+970068442+944721381+924152828+914344123
795+916483907+927574608+944156193+963803307+983866395+1001193035+1013681125
785+1021040536+1023847918+1022494545+1017043435+1007586484+994323445+977151973
775+955691748+930766551+905878974+885457798+870677733+858889731+848681138
765+842906774+843810732+847538033+847289575+840179889+827430611+810272248
755+790546854+774023663+767571504+770682126+771295511+753388863+712818783
745+665721747+635847230+631702815+640584952+643601081+627945621+585860795
735+516348656+435281772+374328801+360104202+394926265+459961488+533142661
725+601034857+658717573+705526126+742139829+768956036+785325581+789635866
715+779989041+756418926+724088718+692419331+667906751+647993890+624642909
705+594943065+566209437+548986348+546551873+552993709+560218283+564960882
696+569080533+574997334+582591965+590007933+595762664+599668754+602429903
686+604910104+607949160+612443999+618995148+627653148+638218434+650306891
676+663195249+675861623+687034784+696140235+705413836+720334501+741680915
666+761210038+775737593+787872536+799263184+809819414+819388719+827988959
656+835164829+840388066+843674249+845547525+847001028+849679780+855388531
646+864725085+876441078+888544607+899849945+910326945+920382145+930142780
636+939326257+947753597+955725695+963473593+970713367+977115746+982162409
626+984093699+980648613+971973703+961227282+950724822+938670439+922190315
616+903723356+891268706+891207842+903166592+921412580+938700206+948884479
606+948281734+936097454+913605845+883312314+849408143+817897913+794522802
596+782661712+783797091+798416922+824730263+857154964+888556451+914744580
586+935229406+949963174+956725350+951101656+928714294+889822550+843558032
577+805962470+789549416+792934209+804682818+816714844+829873699+848577841
567+873805329+901738992+927017780+945720023+955743998+955910312+946360261
557+930082296+912692577+899680655+893949991+895937775+904972039+919385403
547+935761977+949837204+959117835+963816607+964792386+961959670+955713598
537+948777952+944525237+942857287+939469581+930689347+917884843+905632100
527+896887397+891233936+886550363+880830719+872728534+862448628+852721622
517+846893995+845540115+847219465+851634820+859485255+870750313+885104651
507+902407350+921268876+938707363+951775524+958704141+959222652+953968002
497+942989084+924524722+894660276+849380846+789771589+724840359+667029139
487+627193410+613623078+629394311+668476372+718711644+770117319+817889173
477+859383162+892661218+917900676+937495160+954059202+968634256+980869583
467+990506085+998491926+1006490435+1014823534+1021647714+1025343981+1027167668
458+1029875996+1033758147+1037103420+1039996555+1043760399+1048009441
449+1050683252+1050639869+1048983003+1048134904+1049692021+1052701816
441+1054356909+1052275455+1043992326+1025291857+994013238+955715688+918802038
431+883966675+845543599+805537883+780466512+788690297+829625242+882792916
421+928651024+956372836+961173132+948151584+924670326+895084863+866319125
411+847065945+840427586+842590170+848217854+855151727+865135233+880814949
401+902825731+928608020+951340107+965455107+975528799+987324655+998833357
391+1005235736+1005892884+1004226897+1002580164+1000257410+996365316+991511630
381+985874699+978685719+968493909+952875563+931987430+911251804
##END=
