##TITLE=S. Graessle SG-V2487 12-24
##JCAMP-DX=4.24
##DATA TYPE=INFRARED SPECTRUM
##DATE=8/8/2016
##SAMPLING PROCEDURE=ATR platinum Diamond 1 Refl
##ORIGIN=Angelika Moesle
##XUNITS=1/CM
##YUNITS=TRANSMITTANCE
##RESOLUTION=4
##FIRSTX=3997.4121
##LASTX=373.82813
##DELTAX=-1.4160156
##MAXY=1.0024879
##MINY=0.46613038
##XFACTOR=1
##YFACTOR=9.3363961e-010
##NPOINTS=2560
##FIRSTY=1.0024879
##XYDATA=(X++(Y..Y))
3997+1073741823+1072848047+1071890812+1071160980+1070819813+1070843051
3989+1071117696+1071412259+1071434603+1071172854+1070970733+1071044151
3980+1071140423+1070940472+1070601604+1070531889+1070692322+1070516503
3972+1069706487+1068727738+1068241012+1068346478+1068596033+1068580711
3963+1068377441+1068336200+1068424747+1068117607+1067283778+1066678691
3955+1067056184+1068226329+1069416392+1070230176+1070792489+1071149616
3946+1071077093+1070580855+1070026841+1069684014+1069538201+1069445121
3938+1069164156+1068503719+1067759459+1067621945+1068298980+1069017576
3929+1068862251+1067973901+1067189485+1066989023+1067322210+1067934958
3921+1068623740+1069206866+1069399155+1068943138+1067939108+1066883366
3912+1066269725+1066226632+1066487040+1066738638+1067063781+1067744967
3904+1068595012+1068846227+1068133121+1067026945+1066150597+1065782681
3895+1065960478+1066376212+1066595698+1066487998+1066343908+1066407047
3887+1066474400+1066117719+1065071618+1063999277+1064203633+1065770934
3878+1067020178+1066694269+1065704667+1065187234+1065162017+1065239711
3870+1065391717+1065548639+1065421914+1065100155+1064776991+1064354873
3861+1063896621+1063719206+1063801051+1063915454+1064113872+1064563953
3853+1064785290+1063525448+1061459357+1060515656+1060887084+1062092023
3844+1063652173+1064852195+1064719342+1062854733+1060157699+1058205691
3836+1057824368+1058375126+1059019730+1059706023+1060688602+1061997282
3827+1063287002+1063958291+1063677837+1062999525+1062867693+1063407151
3819+1063717802+1063484590+1063350077+1063161107+1062154268+1060602161
3810+1059366324+1058744192+1058644663+1058975105+1059570424+1060037039
3802+1059993436+1059234556+1058183283+1057731926+1057946241+1058412984
3794+1059029434+1059760990+1060131843+1059598769+1058452757+1057815430
3785+1058385340+1059608282+1060472755+1060803772+1060994465+1060964971
3777+1060365885+1059561869+1059296865+1059740816+1060340732+1060267506
3768+1059202890+1057807514+1056885903+1056648797+1057033695+1057936984
3760+1058952888+1059385412+1059137453+1059038180+1059501476+1060166190
3751+1060598969+1060358224+1059240110+1058109866+1057926386+1058889303
3743+1060335241+1061181647+1061138618+1060322792+1058807841+1057040782
3734+1056029984+1056242831+1056818487+1057146311+1057479115+1058011550
3726+1058397279+1058083052+1057034270+1055809349+1055013952+1055077921
3717+1055983827+1057179700+1058213991+1059164139+1060043232+1060078855
3709+1058942993+1057823027+1057330301+1057044803+1056749155+1056718958
3700+1057053933+1057389737+1057596838+1057848117+1058073285+1058071816
3692+1057911511+1057692408+1056994944+1055456818+1054039289+1053767006
3683+1054468493+1055374016+1055734080+1055241865+1054229919+1053278813
3675+1052638422+1052284934+1052486927+1053337674+1054040247+1053579377
3666+1052644040+1052515400+1053188031+1054011007+1054639204+1055121524
3658+1055370697+1054956942+1053738533+1052607459+1052654574+1054135881
3649+1056417117+1057831774+1057176125+1055493655+1053921502+1052827009
3641+1052302937+1052228243+1052302362+1052292339+1052144675+1051887905
3632+1051664780+1051816595+1052604267+1053455334+1053057284+1051636116
3624+1050464566+1050070220+1050420452+1051044627+1051126919+1050507468
3615+1050061473+1050351695+1051204741+1052090346+1052328346+1051504475
3607+1050066134+1049124668+1049263203+1050231546+1051407181+1051977602
3598+1051622518+1051086890+1051141730+1051483535+1051397605+1051037349
3590+1051147731+1051964387+1052757933+1052351073+1050791114+1049254010
3581+1048478978+1048498833+1048772648+1048621727+1048093442+1047948075
3573+1048453123+1048881433+1048548565+1047576967+1046448255+1045405537
3564+1044538255+1044130820+1044466816+1045449268+1046558253+1047236182
3556+1047319367+1046958090+1046368964+1045873301+1045831996+1046141945
3547+1046044012+1044854268+1043046989+1042040788+1042330116+1043057905
3539+1043459147+1043573678+1043706021+1043847621+1043816849+1043607961
3530+1043356618+1043190121+1043179523+1043259644+1043207102+1042908581
3522+1042594227+1042551134+1042687180+1042680476+1042450329+1042213670
3513+1042188453+1042464374+1043006003+1043535374+1043617154+1043119448
3505+1042340905+1041619755+1041144905+1041036247+1041279674+1041637950
3496+1041838858+1041807640+1041661125+1041546338+1041538486+1041550679
3488+1041335918+1040798183+1040242829+1040005915+1040029727+1040101612
3479+1040207589+1040294349+1040079140+1039516125+1039100008+1039224690
3471+1039483566+1039214220+1038569233+1038361366+1038838323+1039318984
3462+1039264080+1038941299+1038720090+1038477046+1038101660+1037917223
3454+1038184015+1038611432+1038679295+1038246197+1037628661+1037118187
3445+1036618630+1035995987+1035564229+1035741644+1036424680+1037133764
3437+1037596676+1037809140+1037746192+1037370679+1036844883+1036522485
3428+1036646337+1037045472+1037240124+1036917726+1036250777+1035751539
3420+1035820870+1036304723+1036578218+1036292465+1035818764+1035731748
3411+1036105411+1036577005+1036842329+1036757420+1036228752+1035361406
3403+1034528023+1034014421+1033750884+1033556424+1033383095+1033178484
3394+1032814334+1032317969+1031934284+1031877529+1032137490+1032469401
3386+1032525836+1032183711+1031772447+1031779469+1032336930+1033090001
3377+1033502861+1033315296+1032780243+1032367510+1032244424+1032168389
3369+1031850971+1031367949+1031213836+1031745250+1032521240+1032656838
3360+1031966013+1031238607+1031234329+1031816497+1032217675+1031972078
3352+1031446601+1031313620+1031620505+1031761147+1031336539+1030590044
3343+1029966635+1029709483+1029966763+1030847069+1032120828+1033109919
3335+1033172483+1032311521+1031173297+1030468682+1030459489+1030850452
3326+1031133652+1031155869+1031248374+1031654404+1032108315+1032210333
3318+1031895788+1031313875+1030565210+1029784113+1029240059+1029136572
3309+1029392575+1029658857+1029545092+1029008379+1028598966+1029006847
3301+1030198762+1031345413+1031776788+1031522700+1030815978+1029771026
3292+1028742225+1028286591+1028504928+1028933174+1029180304+1029242868
3284+1029225950+1029186624+1029242038+1029471611+1029667220+1029474164
3275+1028907383+1028485648+1028624375+1029117675+1029473015+1029490955
3267+1029245549+1028824772+1028406612+1028330258+1028774657+1029469696
3258+1029935545+1029970785+1029795988+1029688926+1029652345+1029594250
3250+1029660900+1030059269+1030666590+1031112457+1031158933+1030780738
3241+1030047267+1029140722+1028356369+1027887073+1027681951+1027613897
3233+1027696379+1027980153+1028350177+1028668361+1029054409+1029705461
3224+1030488409+1031075684+1031392783+1031546321+1031442835+1030877968
3216+1029964465+1029159108+1028822474+1028884527+1029004230+1028930493
3207+1028601136+1028038760+1027379919+1026918985+1026948480+1027551779
3199+1028497203+1029244081+1029271852+1028583006+1027675312+1027020748
3190+1026832417+1027128576+1027651818+1027926527+1027743239+1027419309
3182+1027362873+1027604129+1027953085+1028345325+1028791958+1029171685
3173+1029351717+1029390852+1029357207+1029100757+1028511503+1027845704
3165+1027464891+1027364278+1027283965+1027231743+1027519795+1028135670
3156+1028451557+1027936358+1026932392+1026271061+1026281340+1026590395
3148+1026746806+1026688710+1026661386+1026839759+1027044497+1026928242
3139+1026410235+1025664187+1024793904+1023894382+1023209686+1022763053
3131+1022157839+1021247272+1020590155+1020750332+1021535323+1022287947
3122+1022574785+1022349426+1021823119+1021355866+1021207435+1021338757
3114+1021595909+1021924116+1022267071+1022508710+1022655417+1022859581
3105+1023156506+1023349626+1023248374+1022905866+1022543950+1022245812
3097+1021761896+1020701239+1019004660+1017146690+1015678598+1014651969
3088+1013677305+1012365689+1010500760+1008081435+1005561624+1003775157
3080+1003261810+1003759771+1004489923+1004793232+1004496435+1003797438
3071+1002810070+1001369622+999546446+998106508+997986614+999367307+1001560443
3061+1003713040+1005399404+1006666204+1007784510+1008985426+1010273039
3053+1011402708+1012094236+1012378585+1012673786+1013274915+1013772301
3044+1013349290+1011744514+1009552144+1007545170+1006105168+1005325540
3036+1005159808+1005334924+1005463501+1005316794+1004865309+1004219364
3027+1003623534+1003333185+1003445864+1003958381+1004909168+1006354149
3019+1008163407+1009857178+1010852844+1011087014+1011142045+1011511877
3010+1012058485+1012381777+1012321127+1011992090+1011701613+1011844106
3002+1012592133+1013756596+1015045613+1016207650+1016868470+1016410154
2993+1013990510+1008589037+999231389+985534905+968374143+950109248+933845455
2984+922129962+916229123+916279493+921544092+930427143+940769477+950659942
2974+959121898+966076308+971777516+976283936+979301453+980512073+980238641
2964+979737169+980422951+982641623+985449422+987686672+988941917+989449326
2954+989571646+989623740+989787110+989965227+989931774+989667216+989315451
2944+988843537+987945164+986268951+983690214+980441337+977036368+974080650
2934+972078719+971156788+970842370+970399568+969533882+968489504+967450361
2924+966307604+965150866+964559889+965094558+966643856+968511593+970148545
2914+971598378+973194151+975088447+977219401+979481868+981675004+983429487
2904+984414748+984562987+983959688+982573888+980209147+976796006+972801784
2894+969283752+967270265+966909307+967353578+967549251+966897305+965118882
2884+961943358+957273696+951513499+945519196+940231423+936302702+933930108
2875+932914970+932895626+933638227+935196590+937764473+941356560+945660221
2865+950122336+954125943+957278037+959690723+961855257+964122385+966420539
2855+968513955+970333429+971933735+973282891+974303073+975112642+976004631
2845+977046583+977806229+977703955+976672091+975305634+974290624+973886254
2835+974055496+974776902+975959751+977284391+978397590+979146638+979566075
2825+979817545+980113768+980496751+980764246+980756138+980553506+980320486
2815+980150924+980101638+980163947+980246813+980378326+980824320+981792472
2805+983123560+984457202+985560952+986324429+986655573+986644209+986633611
2795+986866696+987197074+987323671+987137637+986726947+986262056+985980389
2785+986031589+986239392+986245776+985972600+985684995+985528393+985274433
2775+984683519+983892527+983280673+983087809+983305763+983831048+984585651
2765+985502091+986445088+987205820+987666817+987947527+988252879+988601962
2756+988859689+988981817+989055171+989147421+989242034+989254228+989054086
2746+988542399+987678117+986407422+984731017+982887667+981289722+980281798
2736+980071378+980692297+981820434+982869153+983479347+983720794+983729987
2726+983467089+982948571+982439885+982228507+982360467+982713700+983201957
2716+983771229+984319561+984767215+985149113+985533437+985909397+986241052
2706+986567791+986933154+987234931+987285494+987063901+986783957+986650529
2696+986684110+986835094+987136808+987643962+988295333+988891227+989225627
2686+989238906+988997841+988563658+988016283+987561351+987427221+987650218
2676+988069910+988468470+988669379+988638033+988539973+988569403+988689872
2666+988694085+988508307+988273627+988128133+988076103+988076358+988092127
2656+988058355+987957677+987909796+988052481+988351577+988616965+988702959
2647+988673848+988757671+989085559+989514189+989794771+989875274+989939499
2637+990178456+990575612+990920035+991042738+990977620+990838127+990697996
2627+990676545+990909438+991285590+991421316+991060550+990386451+989835629
2617+989668557+989831543+990210696+990807419+991535209+992090755+992244293
2607+992086030+991848158+991662189+991556340+991508523+991456046+991357092
2597+991236687+991150438+991141181+991221749+991373180+991589091+991877844
2587+992174387+992350333+992389978+992427836+992502977+992414749+991977500
2577+991313425+990680056+990058116+989170404+987968275+986813516+985991050
2567+985340062+984623061+983943855+983442128+982888369+982028237+981050190
2557+980357322+980181121+980625902+981675770+983029586+984345927+985572443
2547+986616630+987077818+986864078+986599776+986856992+987423646+987786072
2538+987904242+988114854+988536014+988888673+988876607+988605346+988476961
2528+988744200+989403999+990430948+991666913+992533493+992464353+991790254
2518+991633013+992606783+994022014+994737929+994480521+993849643+993324102
2508+992912390+992593631+992389148+992135763+991793574+991719391+992033489
2498+992136401+991530612+990687590+990392899+990604596+990658031+990334165
2488+990060350+990169455+990529455+990879113+991104089+991151396+990993963
2478+990723596+990501876+990414094+990452782+990627004+991044653+991827282
2468+992840952+993587766+993604493+993000938+992389021+992216777+992375933
2458+992559668+992804563+993386220+994198790+994620397+994274378+993653650
2448+993572253+994120138+994614268+994593520+994343709+994280634+994326855
2438+994206770+993930402+993610238+993143559+992414429+991566363+990836212
2428+990314438+989957693+989651575+989278934+988885992+988671613+988702001
2419+988820299+988912933+989023633+989152529+989171681+988991393+988685403
2409+988419313+988288375+988222044+988111343+988000834+987996173+988062441
2399+988142242+988329233+988655142+988893780+988880565+988841239+989102094
2389+989607269+989997722+990108742+990115828+990153239+990067756+989699137
2379+989182662+988776376+988579235+988583002+988802679+989185471+989552621
2369+989721353+989637019+989489674+989679282+990366405+991132307+991440149
2359+991303146+991097578+990876432+990381854+989703989+989347436+989529958
2349+989969185+990419712+990948764+991637482+992229737+992364378+992103204
2339+991804299+991712560+991928790+992390425+992713781+992463204+991703686
2329+990883007+990131405+989255313+988408715+988097809+988434890+988822980
2319+988558040+987543348+986326663+985591149+985584190+985920186+985964684
2310+985465446+984838972+984802136+985595746+986630419+987109867+986874420
2300+986380034+986071043+986053040+986178998+986245393+986227390+986326599
2290+986663744+987094672+987455758+987796542+988261178+988885289+989458392
2280+989533213+988787612+987516279+986589753+986802407+988189485+989918303
2270+990994602+991263692+991513822+992386786+993484727+993876392+993287393
2260+992379189+991894890+991930960+992165449+992437412+992796902+993138069
2250+993155242+992753617+992291982+992184154+992263828+991912446+991144373
2240+991134286+992984595+996229386+999280547+1001038222+1001355449+1000549518
2230+999422658+999064253+999542807+999510886+998138620+996688979+997052490
2220+999166016+1000885642+1000481144+998544267+997004354+996850816+997516488
2210+998091378+998344827+998529775+998587232+997911665+996291376+994748782
2200+994470179+995186158+995702633+995595379+995272152+994961245+994687047
2191+994738822+995290602+995740490+995080245+993293905+991961349+992516894
2181+994329409+995807077+996653930+997324581+997279893+995757344+993625879
2171+992770472+993740666+995030066+994771509+992732486+990595211+990761071
2161+995088225+1003496682+1012548402+1017377540+1016667945+1013199135
2152+1009892737+1007631994+1006028750+1004644610+1003229698+1001692467
2144+1000402620+999841519+999695132+999218494+998654904+999047144+1000433646
2134+1001623837+1001986838+1001986455+1001826661+1001029540+999553979+998300074
2124+998096230+998623685+998718809+997718992+996125133+994691325+993372558
2114+991806853+990426160+990174115+991174698+992446414+993041413+992993596
2104+993012174+993566954+994495077+995356677+995935589+996367411+996971795
2094+997986231+999278632+1000282343+1000394129+999592922+998606512+998254875
2084+998638241+999191616+999375990+998946722+997849292+996512841+995934376
2074+996705577+998208207+999332131+999593752+999194106+998519241+997776768
2065+996694341+994839883+992681860+991625161+992478654+994534850+996399267
2055+997048085+996167332+994343326+992723038+991824792+991172208+990581613
2045+990734449+991911042+993531011+995130552+996506776+997223457+997184897
2035+997213817+998180053+999996845+1001955492+1003664073+1005313282+1006999008
2025+1008057559+1007809344+1006832702+1006282902+1006211591+1005962930
2016+1005664919+1005818777+1006112574+1006143154+1006484449+1007848415
2008+1009726942+1010741633+1010389358+1009770928+1010080302+1010680090
1999+1009566126+1006133833+1002495397+1001017474+1001622624+1002620143
1991+1003269088+1004045652+1004694470+1004033331+1001851750+999402356+997686497
1981+996513032+995617341+995445863+996203211+997278360+998287115+999370244
1971+1000258849+1000429114+999972905+999387545+998914993+998645264+998703870
1961+999054613+999646740+1000564776+1001598684+1002228349+1002353797+1002200515
1951+1001351874+998961405+995234230+991807172+990429224+991777294+995283451
1941+999330471+1002191194+1003418093+1003684886+1003702123+1003785563
1933+1003954615+1004071572+1004010284+1003835232+1003722488+1003611532
1924+1003001402+1001379262+999162441+997751360+998094634+999589155+1000634618
1914+1000402747+999285782+997691796+995440756+992162129+987944143+983617308
1905+980416631+979307454+980473258+983244028+986473689+989178320+991044334
1895+992303537+993094210+993287457+992928032+992334628+991765484+991349239
1885+991273268+991694556+992561519+993676122+994779042+995547690+995700781
1875+995025278+993306227+990568270+987525728+985768755+986827944+990087036
1865+993316569+995373276+996470387+997163382+997731888+998091250+998160135
1855+998171179+998458337+999053273+999696153+1000190986+1000640173+1001394009
1845+1002742207+1004322531+1005057215+1004522035+1003365233+1002282040
1837+1001464490+1000637172+999562725+998427884+997612633+997335562+997549749
1827+998166583+999234262+1000630277+1001860433+1002546470+1002754720+1002671535
1817+1002371864+1001995010+1001851112+1002139355+1002726247+1003324821
1808+1003825655+1004264308+1004623670+1004931959+1005357588+1005955205
1800+1006438547+1006589212+1006702147+1007181147+1008065092+1009065547
1791+1009789889+1010144144+1010470627+1011029046+1011666245+1011916949
1783+1011422882+1010246609+1008793903+1007657466+1007236561+1007437789
1774+1007946347+1008484848+1008605188+1007691110+1005620231+1002953840
1766+1000646110+999541913+1000035469+1002003437+1004539400+1006621196
1757+1008112398+1009262242+1010181491+1011047177+1012106813+1013281363
1749+1014008896+1013954185+1013448116+1012933237+1012699578+1012942047
1740+1013673794+1014544141+1015017268+1014726982+1013271339+1010581839
1732+1008346185+1008127082+1009436720+1011179200+1012483986+1012759525
1723+1011484425+1008538410+1004533462+1000234143+996449127+994801004+996403098
1713+999941686+1003761303+1007050209+1009608388+1011655456+1013452010
1705+1014869731+1015615140+1015877911+1016283110+1017311400+1018587457
1696+1019464891+1019826295+1019824125+1019769285+1019991708+1020627247
1688+1021512532+1022491983+1023718819+1025091660+1025883290+1026257974
1679+1026899578+1027938720+1029269745+1030795038+1032306350+1033644142
1671+1035047626+1036824390+1038577021+1039605886+1040052774+1040433714
1662+1041015690+1041663806+1042058089+1042025402+1041532868+1040641645
1654+1039572752+1038947109+1039103392+1039435941+1039888191+1040924844
1645+1042606868+1044109114+1045073435+1045691354+1046024222+1046036479
1637+1045700866+1044889572+1043791632+1043210103+1043669759+1045566353
1628+1049292889+1054324404+1059228938+1063417046+1067199763+1070109963
1620+1071077093+1069045667+1060571517+1041214109+1011927355+975436062+930025327
1610+875653846+819802909+774534668+747597525+739631424+747999724+768680497
1600+795895540+824011830+850027170+872286735+887013488+887894943+871019488
1590+840323887+807185468+783129158+772503753+773056107+780589748+790302926
1580+797084263+798104126+793973347+788252539+786339411+789926072+798246108
1570+813547113+837106228+862082554+881996147+898233510+912388374+923938199
1560+934378146+949001796+967669145+978834646+983084617+983265543+975292419
1551+952452922+914241939+871837229+838617030+820657296+819756688+835797740
1541+866941888+904269820+929671711+942509915+952151655+964042073+977594596
1531+988309825+995169303+999340175+999583473+993669228+982686695+971350674
1521+966775624+972778226+985244747+999150566+1011031217+1019112360+1024545371
1511+1029186368+1033793786+1039228904+1047526021+1056352638+1061111358
1502+1063290960+1064801250+1066211310+1067717962+1068918878+1068378016
1494+1065280761+1058944653+1044881145+1011388855+947347096+863689819+784994278
1484+726398873+693741242+688324255+705669773+733618224+756382261+759826684
1474+735323869+688612562+648268709+636506357+646344217+666656243+693608389
1464+723669791+749633994+768471098+783342834+797401362+808628087+811181351
1454+809566999+811243915+815936624+818626636+813779623+801633840+790741068
1444+789741188+801177567+823328410+850987022+875279800+881911174+855242866
1434+802883659+750525983+710637318+687878005+685756882+699025056+715806155
1425+726355972+725713091+715654021+703322525+697854592+704949134+717006624
1415+722041586+716693739+705914732+699058573+702620463+715786811+734461183
1405+755272064+775015584+791697345+806308291+820502609+833865842+844762125
1395+851237024+848807613+832687526+803031834+765390123+731616229+717303677
1385+726740870+749159272+774093526+797282426+817430699+834234461+848246066
1375+860598055+871818588+881169212+888208595+893419183+896683191+897253165
1365+895709102+894742228+897603334+904729540+912963583+919702018+924752621
1355+929069242+933656230+939014547+944971822+951016048+956819019+962380989
1345+967714536+972665547+977152432+981383761+985678101+989970015+993743794
1335+996758566+999356518+1002034464+1005120482+1008680329+1012341684+1015264652
1325+1016564458+1015808068+1013233482+1009601685+1005512850+1000610486
1317+993492515+982038196+963718270+936944944+902347243+860853420+812640377
1307+763416026+729948761+730394373+765998082+817505457+862017117+890500940
1297+908163748+922985944+937777816+951099361+961684035+970403909+979068433
1287+988830003+999917490+1011986855+1024330226+1036152334+1046841069+1055941628
1277+1063063877+1067940640+1070543636+1071077093+1069821337+1065274313
1269+1054071401+1031257504+993277690+941656422+882942401+824106762+769238596
1259+720593859+679560331+645225081+614218447+583390759+552584394+525270492
1249+506574861+499261568+500776327+505317541+509696503+516302053+529561800
1239+550584952+576222992+602120673+625217195+643956430+657758827+666735023
1229+671355910+672111918+669480512+664320933+658675586+656205890+660989764
1219+674919908+696017244+719532308+740775521+757056616+767995800+775201808
1209+781497505+789466926+800273257+813632660+828487479+843711427+858648665
1199+873211538+887523005+901639372+915585476+929408494+943131408+956645626
1189+969559546+981051403+989573497+992161618+983548678+956197398+903518984
1180+826859210+740394773+665902725+619734324+604348155+611134471+629017277
1170+650335248+671565309+691539743+709917190+726663814+741932132+755782984
1160+767917339+777928656+786101220+793754435+802336157+812238752+822411715
1150+830381710+832839021+827475533+814702574+798093975+784433625+781865230
1140+794045998+815850758+837838040+854701876+867179633+877398370+885591554
1130+890942848+893373856+893815637+892597548+886387589+866070265+820626333
1120+748632901+667195062+604273205+578264121+586478884+613357293+645472019
1110+677433654+708415965+737793309+764249920+786968247+806324123+823402019
1100+839261442+854498734+868982188+882010192+893034540+902282062+910699903
1090+919422841+929214991+940148941+951450232+960746975+962069253+945276983
1080+902336327+838914402+777951384+745727298+751672443+781803368+809878672
1071+814836960+793118641+759401438+734977786+732649754+750838677+779618787
1061+809591387+835212572+852962396+859338788+851414886+828832413+794842991
1051+755280554+716278324+682583274+657380568+642561947+638364773+643109640
1041+653983132+668229289+683719328+699033483+713493955+726989085+739631552
1031+751675061+763523535+775401184+787078117+798154177+808438351+817900826
1021+826486952+834196284+841295422+848078227+853966809+857220985+856351660
1011+851429123+843555719+834757512+829324628+832392069+844920515+862091492
1001+878211578+891283888+902154252+911775307+920488350+928417679+935625602
991+942289088+948815124+955580628+962627863+969670885+976486058+983264777
981+990027344+995511045+997712289+996295334+993317973+989718991+980267242
971+952539043+893781163+803980897+704568704+629729936+603081738+622023668
961+665245353+711717511+750755365+780054759+801241855+817591004+832306202
952+846842518+860641148+872621646+882821485+892351631+902108094+912103706
942+921645918+929576588+935070695+938908124+943175012+948838107+953854363
932+953708677+943071845+917292270+874912267+821275406+769090549+732761348
922+720432341+730728071+755792241+786552066+816115124+840568080+858609467
912+870475561+875384117+869269410+846988586+808556585+762494607+721957762
902+697518724+692672668+704020692+724661563+748222977+771028639+791648890
892+809528503+824524921+837088991+848007938+857868334+866950698+875495009
882+883942281+892874427+902560281+912668190+922760394+933056123+944592158
872+958625405+975567702+994060382+1010006630+1014486875+993883925+939333178
862+861124170+789277829+753436438+762019373+801486239+851201210+895743257
852+925839645+933362688+911880518+865770275+814744646+781819520+775160503
843+784310539+793067313+792914030+785608302+777841449+775709729+781925752
833+793750286+802146038+797576670+781261357+768214009+774453015+802222520
823+839687199+870827007+882329462+867448404+831844758+794497419+775969115
813+783662806+809912635+842016317+870318959+888814448+893860390+883416038
803+855363207+809240132+753569036+707454581+687856044+695585230+717182570
793+737809333+749741886+753182031+753678269+757530700+767243432+781017164
783+795804694+809689830+821986788+832582826+841622480+849411933+856308120
773+862620288+868539641+874081885+879210310+884121164+889191749+894533276
763+899880101+905008079+909966049+914859155+919657904+924277451+928747546
753+933197722+937550030+941303827+943846047+944927069+944652552+943229979
743+940974535+937799011+931224392+915307320+885067354+844774957+809817512
733+796103599+806723960+830690510+854114729+870768400+882615725+893461382
724+904538911+915516783+926930626+939864911+954207979+968727696+982425840
714+994714116+1003630493+1002934050+982097569+933973201+865204068+795994558
704+746696598+725542699+729037173+748934870+776335436+803871090+827912462
694+848245619+865649232+880629563+893590916+904969583+915164380+924520303
684+933289526+941552999+949256075+956512326+963775728+971399768+979101311
674+986080108+991464154+993420949+984720738+949679214+885487301+820945347
664+778166784+762246456+773094667+802333220+836129139+865965055+890319439
654+909915423+925460173+937819376+948090591+957232774+965950796+974776583
644+983852499+992842867+1001457467+1009973496+1019205312+1030210509+1043996115
634+1060002501+1071077093+1058686415+1000779793+894639444+771959698+682899798
624+658382938+688631012+740562228+788425549+824646667+851795890+873179043
615+890413924+904596559+916511811+926316730+934097691+940466742+946278587
605+951949087+957281421+962092172+966715166+971424155+975909380+980176716
595+985232234+992001313+999937537+1006047966+1003548457+983216768+941621054
585+890533052+852666556+843327104+859419292+886591307+912858309+934050704
575+950623553+963886492+974559586+981144931+977656841+956542651+919601405
565+883523738+867608199+876466352+898669992+920624651+936964096+948667204
555+957541957+964577700+970512822+975765546+980067547+983017137+985079143
545+987331395+990202014+993387050+996829046+1000760896+1005070877+1009384306
535+1013452712+1017141838+1020527591+1023964735+1027502302+1030517585
527+1032576845+1034303174+1036027588+1035198802+1026061216+1002389357+963652259
517+921195263+892728358+887022554+898863431+916418731+928910213+929676435
507+917037352+895723339+875691704+866653454+871973019+886996889+905259422
497+923713478+940895691+954919170+964813338+971631575+977259302+982803588
487+988361664+993822063+999458983+1005502763+1011436480+1016530367+1020712219
477+1024244296+1027221720+1029889004+1032168709+1032071734+1026928498
469+1017076656+1006032645+997703351+994446558+997186812+1005147168+1014392263
459+1017618987+1007191936+982620492+952295298+926732463+915380482+922242259
449+942445946+967417739+990412179+1008333991+1020917596+1026735761+1021465800
439+1002808921+976307558+954219662+942331542+929669093+904566235+875414314
429+863266808+876932074+906866368+939059427+964501155+980767055+990626557
419+998702210+1006185672+1010192535+1010583626+1010256887+1012845072+1020267566
409+1030477620+1039365332+1044603053+1046403374+1045701121+1043317420
401+1040480446+1039113160+1040730767+1043429589+1043617282+1041191573
392+1037601082+1033081510+1027253258+1020708133+1015651913+1015918003
384+1024522835+1038218809+1049669680+1055012164+1055897897+1057242903
375+1062953878+1071077093
##END=
