##TITLE=X7765
##JCAMP-DX=4.24
##DATA TYPE=INFRARED SPECTRUM
##DATE=30/10/2018
##SAMPLING PROCEDURE=Diamant-ATR
##ORIGIN=ComPlat
##XUNITS=1/CM
##YUNITS=TRANSMITTANCE
##RESOLUTION=4
##FIRSTX=3997.453
##LASTX=373.96442
##DELTAX=-1.4165319
##MAXY=0.91547436
##MINY=0.57394505
##XFACTOR=1
##YFACTOR=8.5260193e-010
##NPOINTS=2559
##FIRSTY=0.86966014
##XYDATA=(X++(Y..Y))
3997+1020007232+1020045123+1020366006+1020707022+1020830062+1020553991
3989+1019936624+1019463199+1019702848+1020654171+1021731191+1022449647
3980+1022746970+1022605195+1021918268+1020900880+1020167743+1020170889
3972+1020753792+1021364727+1021564807+1021308450+1020831600+1020373835
3963+1020076792+1020049038+1020349227+1020919616+1021545372+1021820884
3955+1021372417+1020360623+1019556808+1019705994+1020823071+1022071299
3946+1022514592+1022149317+1021910368+1022489355+1023344204+1023507861
3938+1022822402+1021645832+1020234437+1019049268+1018932449+1019988496
3929+1020941637+1020811606+1020206543+1020283233+1021066285+1021440299
3921+1020845512+1019953542+1019686489+1020158725+1020721284+1020990504
3912+1021300061+1021991742+1022587298+1022170290+1020709749+1019437473
3904+1019505075+1020443884+1021182684+1021883733+1022901050+1023526527
3895+1023054640+1021873386+1021218058+1021826407+1022597435+1022221673
3887+1021200930+1020713314+1020506593+1019692501+1019060663+1019792751
3878+1020934297+1021038182+1020342167+1019432160+1018299492+1017621793
3870+1018807732+1021243435+1022619386+1022507532+1022124220+1022016700
3861+1021610737+1020496596+1018755929+1016637124+1014996986+1015914193
3853+1020473176+1024679678+1025608420+1024750495+1023566305+1022378409
3844+1021098443+1019713614+1018418408+1017769721+1018581366+1020798673
3836+1022838272+1023478709+1023076032+1022513963+1022128834+1021865207
3827+1021803267+1021722312+1020929403+1019625458+1019381895+1020567414
3819+1020952613+1020232479+1020751065+1022956418+1024323071+1023436624
3810+1021071109+1018797455+1018302918+1019624200+1020291273+1019073666
3802+1017843965+1018509499+1020155160+1021775863+1023885300+1026198523
3793+1027398862+1027143135+1026159234+1025131290+1024445832+1024347749
3785+1024600890+1024402907+1023425578+1022479218+1022530462+1023313793
3776+1023746251+1023399572+1022536474+1021680716+1021510977+1022185041
3768+1022931251+1023344553+1023808540+1024167453+1023780157+1022826247
3759+1022146940+1021855349+1021218407+1019908031+1018297395+1017458066
3751+1018796406+1021223651+1021524819+1019607142+1018263489+1019392102
3742+1020884941+1020168233+1017398643+1013820905+1011237064+1011546691
3734+1014521534+1017801180+1019921524+1020775953+1020717159+1020385440
3725+1020295607+1020317419+1020177461+1020025548+1019986050+1019889785
3717+1019477461+1018542077+1017402209+1017453452+1020082314+1023933328
3708+1026101769+1025727405+1023661381+1021396676+1020575244+1021602069
3700+1022874974+1023052962+1022487118+1021886319+1021436174+1021227775
3691+1021820465+1023930811+1026804425+1028131790+1027273096+1025421204
3683+1023500381+1021672887+1019851125+1018253702+1017885980+1020075044
3674+1023297225+1023778200+1021644853+1020286239+1022079268+1025294179
3666+1027211925+1027317139+1026358685+1025172257+1023977021+1022679298
3657+1021907781+1022374564+1022858196+1021508600+1018717199+1017051545
3649+1018760683+1021973356+1023592731+1023818957+1023769601+1023758975
3640+1023653901+1023410128+1023055130+1022475513+1021465117+1019804985
3632+1017563489+1015950896+1017390115+1021741537+1024651854+1024385710
3623+1022502498+1020746731+1020381945+1021834377+1023687807+1024087967
3615+1023254301+1022568842+1022565696+1022857357+1023571828+1025158345
3606+1026752133+1026915301+1025750825+1024455199+1023586788+1022647000
3598+1021266225+1019931940+1019408041+1019865456+1020468562+1020210738
3589+1019268153+1019209989+1021122702+1023608041+1024867943+1024775243
3581+1024152773+1023872577+1024185141+1024580966+1024682124+1024730362
3572+1024721623+1024071608+1022804715+1022240199+1023457457+1025180716
3564+1025659524+1025205324+1024901639+1025144014+1025623381+1025814932
3555+1025352972+1024386968+1023596086+1023398733+1023425928+1023313584
3547+1023269121+1023425089+1023513943+1023685011+1024502528+1025828354
3538+1026735635+1026683482+1026069471+1025398903+1024690024+1023929133
3530+1023315681+1022898673+1022518647+1022271379+1022607082+1023779038
3521+1025286978+1026132529+1025826117+1024994758+1024675623+1025039779
3513+1025309838+1024938411+1024292801+1023991842+1024031830+1023992751
3504+1023803507+1023834826+1024287418+1024809359+1024898843+1024435415
3496+1023779947+1023447250+1023602099+1023944863+1024181156+1024390394
3488+1024758815+1025169041+1025306133+1025034047+1024493230+1023912285
3479+1023417049+1023081695+1023147829+1023892012+1025106403+1026098623
3471+1026471868+1026413703+1026061221+1025252862+1024112435+1023206343
3462+1022850016+1022811287+1022864837+1023145872+1023753242+1024360612
3454+1024510707+1024213943+1024011486+1024338941+1024952882+1025154850
3445+1024639270+1023884881+1023549387+1023696825+1023742057+1023204176
3437+1022346950+1021875274+1022128484+1022816320+1023410757+1023575253
3428+1023349936+1023052124+1022854490+1022559824+1022077870+1021810817
3420+1022098493+1022697475+1023266115+1023788966+1024196815+1024193390
3411+1023715561+1023090993+1022653152+1022537802+1022805344+1023429004
3403+1024119146+1024386339+1023986738+1023216340+1022571918+1022251734
3394+1022180776+1022264108+1022365406+1022304725+1022036274+1021625908
3386+1021138152+1020752603+1020838102+1021643315+1022897205+1023905434
3377+1024234636+1024155149+1024111666+1024065945+1023760513+1023271918
3369+1022932719+1022996755+1023423411+1023754710+1023563089+1023209419
3360+1023460463+1024262740+1024766225+1024586629+1024165356+1023867124
3352+1023551414+1023088546+1022684611+1022584991+1022779478+1023043385
3343+1023121124+1022908390+1022488936+1021922532+1021169191+1020444304
3335+1020293090+1020934087+1021901070+1022612046+1022928454+1023042616
3326+1023182993+1023488566+1023921933+1024241487+1024124669+1023446341
3318+1022568213+1022148339+1022465167+1023152024+1023647959+1023575253
3309+1022803177+1021571658+1020445912+1019855949+1019758985+1019770730
3301+1019572118+1019236484+1019055559+1019035286+1018973766+1019029973
3292+1019592951+1020572727+1021450646+1022008520+1022451115+1022853512
3284+1023000041+1022860782+1022842606+1023306313+1024014912+1024386339
3275+1024200590+1023746391+1023383143+1023302328+1023551764+1023901379
3267+1023875863+1023371049+1023070440+1023703676+1024991542+1025890224
3258+1025846810+1025262650+1024714562+1024238411+1023527226+1022528085
3250+1021665826+1021449667+1021874505+1022351844+1022398613+1022287178
3241+1022652453+1023452004+1023848948+1023425858+1022935865+1023268352
3233+1024213733+1024875563+1024819496+1024241557+1023460533+1022806533
3224+1022636234+1022955090+1023299042+1023317499+1023194389+1023214383
3216+1023304216+1023345602+1023539250+1024070909+1024691213+1024908560
3207+1024487497+1023663828+1022917129+1022536614+1022484811+1022724809
3199+1023397754+1024472677+1025493909+1025912455+1025558435+1024751894
3190+1023992261+1023499192+1023155379+1022943135+1023087358+1023602099
3182+1024155849+1024582434+1025053551+1025538791+1025574165+1024874514
3173+1023811406+1023028145+1022880217+1023414183+1024471838+1025572766
3165+1026137772+1026087228+1025844224+1025670709+1025421204+1024909609
3156+1024124110+1023258565+1022776122+1023085260+1024009389+1024927226
3148+1025363109+1025179388+1024549507+1023940319+1023657746+1023476122
3139+1023234936+1023381675+1024273086+1025437353+1026113513+1026112465
3131+1025808011+1025622262+1025691123+1025753901+1025236643+1023547779
3122+1020567833+1017096077+1014528035+1013554691+1012984722+1009947730
3114+1001923492+989730364+978593913+974660616+979641990+989722884+999635437
3104+1006611038+1010729873+1013086719+1014153253+1013360134+1009657957
3095+1001977952+989373968+972036717+952915526+937410944+930251761+932321560
3085+940488133+950267020+958528110+964206407+967491716+968921428+968972182
3075+968179272+967472631+967926551+969868137+972597319+975206536+977302901
3065+978946814+980346674+981571342+982386832+982673669+982907934+983609053
3055+984551707+985299035+986135987+987627848+989635638+991465369+992671720
3046+993260844+993375146+993127038+992714225+992557209+993031682+993900862
3036+994369603+993952665+992911439+991729835+990647852+989752246+989054413
3026+988420198+987692234+986946304+986606336+987211609+988824342+990784454
3016+992446263+993951267+995770652+997783545+999420536+1000445963+1001059625
3006+1001412736+1001378271+1000711408+999366077+997699863+996287769+995526249
2996+995535407+996253514+997432950+998774506+1000218199+1001861064+1003565448
2986+1004878551+1005317300+1004702380+1003360824+1001942787+1000910439
2978+1000420377+1000643247+1001682865+1003147741+1004316132+1004775155
2969+1004628346+1004205326+1003769023+1003422274+1003217160+1003253793
2961+1003512526+1003721275+1003630323+1003319927+1003096358+1003141169
2952+1003301890+1003231212+1002809311+1002331412+1002134338+1002161882
2944+1002026818+1001408821+1000337185+999146632+998206984+997718249+997620377
2934+997479790+996650248+994908183+992816013+991212787+990511179+990535857
2924+990821156+991043188+991249000+991621406+992136636+992668085+993301601
2914+994314585+995852096+997690705+999383205+1000699384+1001791644+1002832031
2904+1003746372+1004438263+1004940560+1005227467+1005193701+1004934478
2895+1004823183+1005180138+1005943406+1006758057+1007386610+1007910299
2887+1008506274+1009191244+1009815532+1010188078+1010241279+1010150257
2878+1010165078+1010270361+1010196257+1009853283+1009591054+1009885931
2870+1010771749+1011683574+1011938462+1011315852+1010139002+1008926218
2861+1008021315+1007421984+1006884523+1006196477+1005323522+1004350457
2853+1003398784+1002587349+1002051776+1002034228+1002820636+1004415542
2844+1006367964+1008040330+1009044854+1009515063+1009995059+1010895768
2836+1012039900+1012959135+1013542876+1014055590+1014611926+1015044244
2827+1015291233+1015561991+1016001020+1016450047+1016666625+1016557427
2819+1016128395+1015507602+1015055360+1015096187+1015531581+1016031291
2810+1016491363+1017025329+1017684572+1018374645+1018886939+1018985021
2802+1018614503+1017953792+1017206673+1016517998+1016062471+1016000531
2793+1016320295+1016799872+1017140399+1017195068+1017109220+1017189266
2785+1017615571+1018281106+1018865197+1019094079+1018964468+1018679169
2776+1018414982+1018236854+1018134926+1018042506+1017908700+1017765177
2768+1017720225+1017970989+1018706363+1019763529+1020557347+1020656128
2759+1020264078+1019908800+1019851894+1019941098+1019888596+1019612316
2751+1019298913+1019092052+1018874075+1018546271+1018341438+1018558785
2742+1019075833+1019422163+1019368822+1019216840+1019375394+1019833438
2734+1020206683+1020203327+1019851055+1019345542+1018910498+1018762920
2725+1018939580+1019125468+1018916300+1018306833+1017700861+1017445622
2717+1017582085+1017970919+1018418897+1018756908+1018989635+1019301709
2708+1019851475+1020630961+1021486509+1022173716+1022481875+1022395677
2700+1022078919+1021694349+1021343265+1021142976+1021162131+1021268253
2691+1021251684+1021157027+1021214003+1021379828+1021358575+1021194009
2683+1021360183+1022022572+1022671748+1022767384+1022367853+1021851155
2674+1021345852+1020760223+1020183054+1019930192+1020181725+1020746311
2666+1021245672+1021492871+1021635415+1021864787+1022071299+1021978459
2657+1021589974+1021285590+1021449527+1022108281+1022875463+1023250316
2649+1023109169+1022839879+1022853092+1023155659+1023531770+1023833148
2640+1023947240+1023767364+1023321204+1022749767+1022207761+1021954760
2632+1022327585+1023329383+1024412974+1024989025+1025034886+1024901010
2623+1024669051+1024126277+1023347000+1022814642+1022826946+1023138531
2615+1023362590+1023414602+1023393140+1023360003+1023447599+1023856917
2606+1024522522+1025069421+1025234336+1025055509+1024611027+1023901869
2598+1023061142+1022425109+1022282145+1022601769+1023079528+1023464238
2589+1023739680+1023924519+1023922282+1023778969+1023879358+1024553072
2581+1025528164+1026109459+1026007601+1025649527+1025426866+1025139749
2572+1024656538+1024462400+1024830472+1025168832+1025090743+1025349127
2564+1026679637+1028367243+1028987827+1028163808+1026699841+1025383243
2555+1024490713+1024165706+1024455409+1025030062+1025376112+1025224130
2547+1024606972+1023806443+1023391812+1023883273+1025191762+1026648248
2538+1027572796+1027661161+1027076022+1026388606+1026199991+1026686698
2530+1027589644+1028496086+1029023900+1029011106+1028659254+1028245252
2521+1027774344+1027257996+1027104335+1027684022+1028662190+1029327655
2513+1029525008+1029763119+1030429213+1031300001+1031849277+1031803696
2504+1031372986+1030950735+1030586858+1029978509+1029071368+1028317468
2496+1028159404+1028565296+1029131630+1029341287+1028826476+1027790004
2487+1027049037+1027307212+1028491891+1029955509+1031044343+1031353201
2479+1030881944+1030197394+1030015770+1030370419+1030592101+1030318686
2470+1030048208+1030406213+1031283782+1032039989+1032324169+1032394218
2462+1032602058+1032802907+1032539419+1031738750+1030828184+1030178309
2453+1029917688+1030226127+1031158085+1032171558+1032489225+1032001678
2445+1031311606+1030906902+1030745482+1030592381+1030356298+1030045482
2436+1029656018+1029232858+1028965805+1029102827+1029642525+1030174534
2428+1030248498+1029927545+1029713483+1029861621+1030074284+1030044014
2419+1029984241+1030292540+1030902777+1031352782+1031431010+1031410177
2411+1031651434+1032172536+1032631699+1032715381+1032571857+1032633237
2402+1032926506+1032963278+1032488875+1031842495+1031406402+1031220864
2394+1031278189+1031674574+1032348777+1033001029+1033231100+1032583532
2385+1030778059+1028117388+1025310398+1022691392+1019961022+1016840419
2377+1013617819+1010819846+1008540600+1006289177+1003486171+1000082646
2368+996451706+992654313+988531843+984821836+983006296+983466368+985053934
2359+986969234+989577333+992980858+996450028+999528406+1002223402+1004156949
2349+1004638273+1003398645+1000993701+998628886+997308792+997122204+997483145
2339+997813675+998142947+998944875+1000228686+1001352824+1001921884+1002148600
2329+1002202500+1002016681+1001786610+1001916571+1002515343+1003503159
2320+1005102190+1007532790+1010311747+1012555620+1013927656+1014801240
2312+1015621484+1016572178+1017772727+1019335406+1021176462+1023005145
2303+1024509169+1025531031+1026231940+1027072387+1028369061+1029779408
2295+1030483812+1030062749+1029072906+1028543275+1028994957+1030146920
2286+1031413044+1032350735+1032730411+1032614781+1032359333+1032236713
2278+1032156247+1031931629+1031577819+1031216529+1030944023+1030820354
2269+1030790014+1030714512+1030638800+1030858874+1031516789+1032197074
2261+1032233916+1031625847+1031227295+1031525388+1031810827+1031322092
2252+1030454310+1030020594+1030374194+1031813343+1034357476+1036645881
2244+1036828833+1035111376+1033731230+1034012894+1034946530+1035024479
2235+1034186198+1033418107+1033423630+1034202277+1035237771+1035818157
2227+1035807181+1035976081+1036889374+1038000719+1038556846+1038568451
2218+1038302866+1037813572+1037352941+1037389224+1038043364+1038975042
2210+1039865545+1040821063+1042165345+1043708728+1044611535+1044338749
2201+1043176440+1041593628+1039996694+1038995386+1038831799+1038751263
2193+1037800849+1036057106+1034635294+1034588805+1035870309+1037425647
2184+1038399131+1038845151+1039123669+1039450844+1040097084+1041000519
2176+1041116498+1039173235+1035451064+1032023560+1030731989+1031449257
2167+1032807171+1034111116+1035732728+1038144452+1041143553+1043286757
2159+1042610876+1039556337+1037241786+1037451164+1039256077+1041125237
2150+1042350115+1043136382+1044220813+1045658633+1046091161+1044388874
2142+1041225137+1037905084+1035069500+1033572326+1034829782+1038955887
2133+1043879656+1047365604+1048895565+1049118156+1048592090+1047542474
2125+1046234195+1045210586+1045038539+1045585928+1045811385+1044909767
2116+1043466004+1042634016+1042433306+1041851872+1040550864+1039392889
2108+1039136952+1039489294+1039727055+1039705733+1039832687+1040279057
2099+1040682852+1040770239+1040881744+1041438989+1042115290+1042210856
2091+1041771057+1041577759+1041990642+1042608009+1043056127+1043148197
2082+1042404294+1040687886+1039162609+1039219445+1040612034+1041981624
2074+1042869120+1043727674+1044395585+1044191591+1043337441+1042943643
2065+1043506621+1044248077+1044151742+1043109817+1041753091+1040682852
2057+1040317577+1040888245+1041691920+1040896355+1037446759+1033097224
2048+1031398223+1034161031+1039652252+1044702067+1047759542+1049256436
2040+1049457494+1047422440+1043033127+1038683871+1037160831+1038684640
2031+1041537911+1044285199+1045968470+1046017197+1045409757+1046166523
2023+1048705203+1051024857+1051029820+1048660601+1045699950+1044360141
2014+1045776500+1048823489+1050632037+1049494476+1046980055+1045705752
2006+1045768670+1045333836+1043951732+1043205802+1044434665+1046847787
1997+1047924877+1045989583+1042282023+1039669590+1039530610+1040850424
1989+1042043563+1042040557+1040156437+1036792969+1033802817+1032945451
1980+1034424309+1037317008+1040486687+1042666104+1042971537+1041879417
1972+1040636642+1039653860+1038550624+1037619645+1037705423+1038501758
1963+1038760631+1038323699+1038401298+1039639249+1040952841+1040430690
1955+1036929222+1031264067+1026148328+1024281615+1026109109+1029696146
1946+1032929442+1035454000+1038061121+1040723889+1042485179+1043258584
1938+1044041705+1045350194+1046593947+1047017247+1046568990+1045789084
1929+1045298531+1045300629+1045396334+1045122291+1044554139+1043999900
1921+1043380645+1042610526+1042189254+1042524049+1042979506+1042651493
1912+1041691012+1041165295+1041679407+1042594447+1043033197+1042982512
1904+1042763977+1042213442+1041139708+1040039968+1039647289+1040115330
1895+1041013243+1041824748+1042331798+1042620104+1042790402+1042901348
1887+1043270608+1044180755+1045088524+1044887676+1043285359+1041132647
1878+1039257266+1037826855+1036847848+1036530810+1037069320+1038398362
1870+1040018366+1041065325+1041276031+1041502537+1042532997+1044209138
1861+1045701627+1046334025+1046169949+1045800129+1045730919+1046030620
1853+1046378418+1046362408+1045825157+1044980725+1044272126+1044163487
1844+1044822800+1045729731+1046212034+1046302636+1046412953+1046589403
1836+1046234824+1044682912+1042020983+1039209448+1037562109+1037683611
1827+1039010067+1040903835+1043064865+1044982892+1046136532+1046597373
1819+1046964256+1047719973+1048644242+1049167442+1049183171+1049000359
1810+1048710935+1048171307+1047471516+1046825696+1046225247+1045589074
1802+1045025327+1044710666+1044654249+1044735204+1044838390+1044986247
1793+1045498262+1046683920+1048088115+1048954359+1049171846+1048934225
1785+1048306301+1047464036+1046860021+1046744671+1046799270+1046544242
1776+1045882832+1045111315+1044728073+1045051892+1045763707+1046411974
1768+1046826815+1046629321+1045456316+1043654339+1042113612+1041292530
1759+1040804005+1040266823+1039558154+1038439609+1036801568+1034941846
1751+1033380636+1032545431+1032438960+1032660642+1032810107+1032823460
1742+1032960552+1033404195+1033869580+1033861401+1033364347+1032917278
1734+1032959084+1032998093+1032543963+1032012235+1031659893+1031142985
1725+1030188236+1028976082+1027701010+1026344703+1025256288+1025693430
1717+1028669530+1032484611+1034897244+1035937911+1036406722+1036578698
1708+1036392949+1036075352+1036010057+1035989364+1035639888+1035404714
1700+1035972586+1036812474+1037324838+1037931719+1038422900+1037991351
1691+1036443983+1033893629+1030344763+1025945522+1021544883+1019288077
1683+1020322452+1022323531+1023637892+1024301609+1024736863+1025386249
1674+1026118197+1026218377+1025807172+1026180416+1027870329+1029184691
1666+1028883522+1027708001+1027190603+1028050625+1029431750+1030311206
1657+1030390553+1029933208+1030176701+1032718806+1035035874+1034162220
1649+1030863768+1026003546+1020802938+1017271898+1016041987+1016414323
1640+1017199542+1017279379+1016593151+1016391253+1017246242+1017597884
1632+1016701929+1015405255+1014926587+1015880287+1017850606+1020457657
1623+1023832099+1027291762+1029576531+1030745831+1032099202+1034338111
1615+1036042355+1035949796+1034669410+1033410976+1032771238+1032128494
1606+1030338401+1027044493+1022918527+1018936434+1015622952+1012978850
1598+1011201620+1011153453+1013652983+1018281106+1023446621+1027725408
1589+1030557915+1031632488+1030226267+1025908750+1020032050+1015541648
1581+1014394160+1016107003+1019655170+1024889894+1030185649+1032408829
1572+1031413743+1029826666+1030797284+1034813982+1039348427+1042847728
1564+1044969819+1045338659+1044203545+1043906571+1047432647+1051507649
1555+1053109826+1053286487+1052997692+1052566562+1052098171+1051392649
1547+1050001807+1047681943+1044649146+1041657875+1040662858+1044283801
1538+1050330659+1054718924+1057638119+1061139307+1066003164+1070396183
1530+1072826573+1073696312+1073741823+1073194994+1072103363+1070850941
1521+1069898500+1068482980+1064439926+1055574682+1039943144+1015788077
1513+982777763+944462047+908240737+882421135+875421065+885365986+895600470
1503+901842725+909518396+922562668+937753988+940628021+917552561+876392103
1493+835588531+808189332+803757234+823377506+851340242+871267905+878862621
1483+876967385+871070761+865998855+863060225+861528656+862048361+867403539
1473+880119797+897424329+912220034+922006191+928868470+934589342+938397920
1463+938356464+934957274+930831028+928738508+929600348+929369718+925667331
1453+923101387+925676839+933795384+945327661+957476467+968053646+975968895
1443+980424762+979276575+969514117+949737388+922857964+899540059+890890973
1434+894590843+903506772+914729351+926502326+936259960+943213120+948772712
1424+954005829+958540414+962295232+966540044+971807765+976454414+979450928
1414+981296389+982679191+983953704+985026390+985648162+986106556+987058438
1404+988433970+989499105+990082077+990543617+990872749+990653864+989875985
1394+989078252+988626430+988481858+988771910+989955542+992066587+994233001
1384+995696408+996521965+997143946+997909311+998867415+999856420+1000900163
1374+1002232840+1003756160+1005069892+1006069452+1006858656+1007342357
1366+1007319707+1006869213+1006578181+1007245603+1008977182+1011077881
1357+1012928934+1014471339+1015949707+1017454361+1018890294+1020230452
1349+1021562989+1022924330+1024191223+1025152263+1025708530+1026102817
1340+1026924180+1028553761+1030569660+1032268382+1033471727+1034411446
1332+1035339279+1036406931+1037419635+1037654320+1036627145+1035103336
1323+1034120134+1032259853+1024966724+1008475514+984903420+961588801+945033204
1313+936807838+934172054+933469817+933205281+934256575+937831796+943781551
1303+950578814+956172243+959009783+959159459+958560967+959477545+962435050
1293+966034601+968652977+969588780+968513997+964923535+959230277+954082100
1283+953224525+958353057+967522686+977130295+984980809+990952376+995676414
1273+999701990+1003494630+1007287688+1010870531+1013852504+1016163000
1265+1018178899+1020331680+1022674265+1024352153+1022032919+1009264159
1256+981543798+944576837+914051722+903017548+910870368+927111723+942702434
1247+954631306+962771103+966862674+966263134+960690468+951490499+942472293
1237+938187424+940590690+947899757+956822957+965237497+972653665+979087820
1227+984407415+988572040+991759896+994115763+995716332+996806984+997832131
1217+999199694+1001068504+1003259665+1005320935+1006814474+1007682325
1208+1008265577+1008895109+1009593361+1010270361+1011000142+1011900362
1200+1012931731+1013993650+1015052773+1016082604+1017038122+1017932050
1191+1018835066+1019818827+1020896686+1021930082+1022657207+1022929852
1183+1022849737+1022627775+1022382534+1022035855+1021392621+1020517149
1174+1020086998+1021018188+1023487378+1026615880+1029268092+1030505903
1166+1028802777+1022223001+1011379119+1001241319+996849069+997280129+997306555
1156+995243117+995153005+1000429115+1009098404+1016927736+1022142676+1025606602
1146+1028465885+1031050914+1033230051+1035001688+1036638960+1038323490
1137+1039906372+1041151173+1041986098+1042481544+1042467422+1040706831
1129+1034929682+1024249597+1011906933+1004084103+1004870930+1012840290
1120+1023014862+1031384730+1036715300+1038988115+1037524848+1029642525
1112+1010041968+974954025+930941135+896316899+886723831+898581395+911673205
1102+909682193+895283433+884415851+889235106+908732408+933344960+954687792
1092+970087581+980614006+987747812+992288688+995004028+997249858+1000648979
1082+1005964379+1012352674+1018047120+1021411636+1020690104+1013788187
1074+1000538523+984874547+971460107+958749861+938397082+904769121+864306076
1064+832585445+821572243+831169156+852411739+876043816+897262490+914953270
1054+929412712+940993646+949400217+953853777+954636759+954281481+956112330
1044+961400605+968629487+975350409+979926031+981761215+981130355+979347183
1034+978371392+979410731+982013377+984931174+987546893+990050268+992752395
1024+995806515+999257019+1002909770+1006286031+1009023252+1011317110+1012975144
1014+1011186310+1001455800+984084155+967984995+963339674+971037157+983228957
1004+992916332+998851826+1002316591+1003739312+1003230024+1001957398+1001739072
994+1003433250+1006060015+1007919247+1008595898+1009330782+1011357238
986+1014492731+1017625359+1020079728+1022003417+1023613773+1024747070
977+1025348079+1025845622+1026699492+1027854740+1028485390+1026625038
969+1019696975+1007270001+993271750+983400584+980004818+981186003+984548142
959+989446603+995644256+1002146433+1007935886+1012663420+1016428864+1019477251
949+1022094159+1024511267+1026834556+1028993909+1030763728+1031946450
941+1032560182+1032813813+1032970409+1033282064+1033916419+1034774204
932+1035524399+1036023620+1036472576+1036966484+1037297364+1037442355
924+1037829162+1038732947+1039117587+1036200909+1027701569+1015817579
915+1007406604+1007444425+1011477621+1006078610+980250549+939151541+904107431
905+894484721+910565774+937259381+960892086+977489139+988721366+996805446
895+1003222054+1008574645+1012778700+1015844844+1018190085+1020257577
887+1022208390+1023917459+1024835365+1023434526+1017641857+1007639192+997875755
877+994011529+997643097+1005522483+1013398304+1019059544+1022218387+1023127695
867+1021975873+1019416920+1017072797+1016834896+1019570160+1024637942
858+1030464657+1035486927+1038924498+1041038620+1042615420+1044025277
850+1044872575+1044444801+1041783921+1035642126+1026401189+1018373736
841+1017391513+1024853332+1036310736+1046496704+1053500338+1057800937
833+1059906600+1059941554+1056786137+1044538130+1011947620+952913639+881090904
823+827190069+814782041+841037596+884061063+924370657+955310193+978195501
813+995320157+1008195668+1018324660+1027153551+1035259793+1042169120+1047181324
803+1050273683+1052290981+1054406430+1057209716+1060284109+1062951491
795+1065180473+1067275090+1068951651+1069118943+1066240505+1058324137
786+1042485039+1015490404+976732582+931725026+891032050+863647602+851526900
776+851078433+858174068+869369942+878544674+875042088+848488020+798352141
766+739012657+692355525+673168829+681637968+708269705+743274316+780863048
756+815951550+839006946+839560557+819647645+798740276+795508028+805447846
747+805704342+783394527+751210189+732316692+736869523+757413924+781765645
737+803903414+823564373+841555833+858121846+873476473+887805674+901022342
727+913004624+923835852+933711214+942820511+951428210+959898328+968399836
717+976711680+984514166+991676564+998056400+1002956679+1004797945+1001637984
707+991823653+972597179+938053898+882690634+810988283+741647741+697407646
697+688919492+709412439+743528156+778848966+810083869+836582079+858958518
687+877818948+893944533+908181175+920604513+930218135+935214399+932743532
677+920321311+900725228+884142716+880394679+890257387+909712324+936110285
667+958263574+954111462+912677030+840465111+763793620+718151917+716443968
657+741613276+771590303+797140266+818527631+836940223+852688300+866516602
647+879224471+890730042+899447849+901637891+893371069+876367565+860624312
637+856893542+866639152+882431132+896846111+907695236+915921092+922496883
628+927964824+932768210+936553089+937585716+934827382+930981822+931292918
618+938301306+948028041+950465562+935331427+902574464+867943726+851645395
608+859568685+880814553+901982124+917395335+927426105+933887454+938403373
598+942092757+945351360+948159889+950574200+952860927+955300476+957985126
588+960778414+963337927+965401644+967322466+969813328+972868147+975546225
578+977095690+977871821+979094252+981734649+985594401+988727658+986110960
568+970293743+938786126+901855658+877668713+876963610+894652293+917419524
558+935811493+947788322+955554246+961947574+968034281+972343758+972275108
548+965994752+952783608+933161169+910675392+892592561+886131701+893017119
538+908382233+925429151+940130688+951438137+959398199+964403551+967109943
528+967629158+964070854+951963294+926947647+889522362+847249161+813134562
518+799170776+807314769+828439695+851548012+870914514+885728535+897293390
509+907004464+915601398+923571386+930913870+935895664+936443891+934183659
499+933576359+936382930+940196263+942319193+943018004+944198000+946678935
489+949877486+952794094+954447375+954454226+953947595+955008815+958386334
479+962191906+963561146+961926112+959756203+959800945+962322007+965523216
469+968209963+970371972+971910182+972239803+971050020+969071173+968171233
459+970349671+975311610+979529087+980793533+980877144+981559807+981589658
449+979389408+976336757+974216973+970278433+958089919+935866162+912048617
439+898276521+899687567+913015809+930217506+944492038+953318413+957491008
429+959781370+962545507+965422267+966611421+965912330+964674799+963831834
419+964755753+969440992+975809782+979014835+976994182+971991277+968083217
409+966160088+963866090+960700745+959212660+960899567+964036738+965639894
399+963753257+959289140+955824375+954574190+954430527+955990689+959440144
390+960999816+956261027+947481491+944135431+952405679+966626941+978095111
380+983787041+983105008+974948082+962544458+956752558
##END=
