##TITLE=SG-V3075(20-64)
##JCAMP-DX=4.24
##DATA TYPE=INFRARED SPECTRUM
##DATE=9/11/2018
##SAMPLING PROCEDURE=Diamant-ATR
##ORIGIN=Lara
##XUNITS=1/CM
##YUNITS=TRANSMITTANCE
##RESOLUTION=4
##FIRSTX=3997.453
##LASTX=373.96442
##DELTAX=-1.4165319
##MAXY=1.0009459
##MINY=0.31321687
##XFACTOR=1
##YFACTOR=9.3220354e-010
##NPOINTS=2559
##FIRSTY=1.0002261
##XYDATA=(X++(Y..Y))
3997+1072969689+1072091928+1071877858+1072315716+1073023143+1073505503
3989+1073567908+1073406268+1073169181+1072779405+1072319424+1072054331
3980+1071913536+1071543518+1070984303+1070699197+1070871386+1071220240
3972+1071574209+1072096531+1072836695+1073440412+1073452049+1072758689
3963+1071768522+1071189549+1071416598+1072119613+1072676463+1072818153
3955+1072588738+1072017694+1071231238+1070651115+1070666396+1071161927
3946+1071726769+1072226456+1072727103+1073015470+1072725504+1071985468
3938+1071357454+1071126633+1071026312+1070668826+1070048037+1069503784
3929+1069249369+1069175518+1069147385+1069187219+1069325393+1069441123
3921+1069414141+1069293679+1069208319+1069231465+1069387989+1069675653
3912+1070006348+1070160187+1069878789+1069078586+1068006256+1067192946
3904+1067133482+1067776522+1068606648+1069273729+1069648159+1069537416
3895+1068817010+1067775371+1067220568+1067805422+1068934339+1069580575
3887+1069712099+1069712802+1069488566+1069049621+1069036130+1069516444
3878+1069377951+1068193791+1066986485+1066780344+1067538986+1068743735
3870+1070145097+1071170367+1071183219+1070497852+1069977320+1069978343
3861+1069960760+1069327247+1068044812+1066492360+1065464597+1066393446
3853+1069731345+1072434643+1072727103+1071945186+1071100993+1070255265
3844+1069179994+1067990144+1067061742+1066614741+1066711481+1067282141
3836+1067922815+1068251784+1068301721+1068320839+1068492516+1068874491
3827+1069387670+1069660947+1069224944+1068193919+1067419356+1067492758
3819+1067783619+1067810857+1068039249+1068602109+1068875258+1068557159
3810+1067901012+1067382462+1067487963+1068019876+1068075119+1067619231
3802+1067703055+1068668094+1069406212+1069490037+1069526227+1069709861
3793+1069695922+1069413182+1069032869+1068520714+1067815077+1067237128
3785+1067251706+1067817251+1068448334+1068829286+1068867138+1068521161
3776+1068000630+1067643208+1067500047+1067418524+1067421466+1067642824
3768+1068024351+1068503194+1069033764+1069308321+1069174815+1069071872
3759+1069462671+1070076298+1070316135+1070116261+1069776166+1069699055
3751+1070137808+1070379308+1069665934+1068814004+1069159853+1070512174
3742+1070774582+1069334344+1067408486+1066085002+1065921317+1066777659
3734+1067768465+1068246605+1068353128+1068362975+1068415405+1068586188
3725+1068830693+1069014455+1069094123+1069034148+1068752175+1068343473
3717+1067995579+1067697109+1067387386+1067277346+1067604333+1068021730
3708+1068116872+1068029594+1067956575+1068005937+1068363039+1069009404
3700+1069497262+1069550715+1069332106+1068900067+1068048840+1066863210
3691+1066184620+1067096525+1069182360+1070336852+1069807880+1068557031
3683+1067436747+1066729960+1066458345+1066573244+1067122804+1068242705
3674+1069400330+1069685820+1069360240+1069415356+1070110378+1070505844
3666+1070162425+1069613568+1069355508+1069336198+1069215864+1068899236
3657+1068603579+1068399996+1067922560+1066892174+1065653794+1065285694
3649+1067017304+1069955517+1071607714+1071265382+1069769517+1068200057
3640+1067297103+1067193969+1067561941+1068058559+1068533182+1068854350
3632+1068822125+1068471992+1068328000+1068771740+1069219828+1069164840
3623+1068736893+1068276401+1068063738+1068019172+1067713094+1067213854
3615+1067216859+1068004530+1068989710+1069561585+1069740104+1069557237
3606+1068849043+1068012267+1067877418+1068736510+1069891257+1070335445
3598+1069934928+1069352567+1069015606+1068744055+1068312846+1067980169
3589+1068356070+1069693748+1071033793+1071238847+1070778930+1070644337
3581+1070939674+1071084369+1070702394+1069979174+1069283129+1068740474
3572+1068176847+1067466287+1066904003+1067111679+1068312335+1069673863
3564+1070226940+1069900912+1069193869+1068636508+1068394945+1068237590
3555+1067988225+1067765972+1067707147+1067714564+1067655165+1067612837
3547+1067765908+1068126527+1068506967+1068700895+1068584461+1068134072
3538+1067509702+1067053046+1067036230+1067386491+1067820448+1068215786
3530+1068649552+1069123216+1069549501+1070006221+1070553607+1070845427
3521+1070501432+1069787228+1069368488+1069551099+1070081605+1070443375
3513+1070200469+1069343935+1068414702+1068006065+1068165018+1068534525
3504+1068778262+1068689322+1068370008+1068353768+1069029289+1069993561
3496+1070382633+1069896628+1069130953+1068706714+1068509141+1068048009
3488+1067293331+1066816278+1067118648+1068113739+1069260750+1070013510
3479+1070128409+1069651676+1068833122+1068130427+1067975949+1068323780
3471+1068701918+1068852624+1069015797+1069425714+1069841129+1069815873
3462+1069285175+1068725064+1068694821+1069255699+1069937038+1070258142
3454+1070135890+1069777637+1069437415+1069330955+1069483835+1069605895
3445+1069416123+1069065031+1068935617+1069133318+1069424499+1069614719
3437+1069776486+1070066963+1070419014+1070539796+1070303795+1070049891
3428+1070226748+1070751116+1071049330+1070839225+1070518696+1070578351
3420+1070931553+1071155725+1071117425+1070938906+1070622917+1070125404
3411+1069645921+1069485561+1069690295+1070069776+1070451495+1070742484
3403+1070847665+1070680910+1070266902+1069799121+1069543298+1069577442
3394+1069724375+1069869518+1070162745+1070723302+1071328873+1071601448
3386+1071408670+1070992935+1070742996+1070837434+1071094088+1071199652
3377+1071037117+1070733149+1070489092+1070494527+1070905146+1071716795
3369+1072651654+1073306395+1073497446+1073359720+1073057798+1072581129
3360+1071932335+1071322927+1071064675+1071353234+1072094293+1072829918
3352+1073025189+1072564952+1071812704+1071185393+1070922410+1071152848
3343+1071805543+1072477547+1072727103+1072524031+1072144038+1071839558
3335+1071695822+1071741923+1071904329+1071905288+1071508352+1070880082
3326+1070430651+1070271442+1070157182+1069989660+1070010632+1070385574
3318+1070903420+1071165380+1070899967+1070181351+1069485497+1069293231
3309+1069511329+1069592660+1069268614+1068748083+1068221029+1067653566
3301+1067073507+1066655214+1066482514+1066427973+1066229953+1065660635
3292+1064775457+1063958118+1063514697+1063302929+1063001071+1062588917
3284+1062253043+1061986031+1061649517+1061288003+1061024764+1060726487
3275+1060045467+1058778249+1057121832+1055579227+1054482473+1053637896
3267+1052686156+1051696245+1050981848+1050471739+1049682533+1048256810
3258+1046356016+1044607334+1043577013+1043139283+1042562037+1041280625
3250+1039343641+1037184915+1035222356+1033475656+1031450372+1028682366
3241+1025398432+1022306701+1019890363+1018214827+1017199852+1016739999
3233+1016630726+1016575482+1016252588+1015367153+1013734074+1011379629
3224+1008536622+1005480377+1002385577+999346404+996411644+993501117+990408938
3214+986972700+983154232+978969774+974507499+970030774+965911598+962421652
3204+959684273+957802533+956850218+956601557+956391899+955490224+953600108
3194+950793995+947093431+942469197+937209085+931890596+926877162+922035150
3184+916993775+911515373+905629101+899605295+893834882+888565754+883732118
3174+879143563+874773936+870736923+867097677+863867772+861149192+859146415
3165+857959122+857369216+856853160+855822263+853997685+851733459+849835670
3155+848858418+848805668+849679913+851808076+855296169+859671486+864310809
3145+868722636+872348199+874704370+875893389+876578181+877394881+878548350
3135+879771705+880352659+879224318+875251628+867617186+856332500+842955074
3125+830882398+824215936+825485072+834127393+847162039+861138258+873496680
3115+882916825+889205405+892943501+894954463+895862915+895991498+895550379
3105+894854781+894390388+894709510+896160874+898625806+901604300+904566363
3095+907071257+908680807+909147245+908808046+908599476+909466176+911649199
3085+914538689+917220569+919134151+920340689+921472611+923368481+926367820
3075+929926694+933042019+934794601+934439864+931695708+927388295+923295334
3065+920905787+920504822+921369092+922394810+922676400+922122428+921561870
3055+921804584+922613611+922868602+921575873+918530817+914342075+910122643
3046+907029505+905869642+906938327+909956848+914056522+917988674+920594721
3036+921335780+920525794+918982486+917440329+916454701+916699398+918832228
3026+922917324+928255634+933794011+938527965+941767333+943429569+944004577
3016+944004385+943604060+942932183+942410245+942543239+943549775+945335158
3006+947619078+950077936+952639992+955536964+958783749+961875352+964318034
2996+966149709+967718657+969295597+970979061+972590337+973626477+973573535
2986+972215843+969576356+965889475+961903742+958986885+958469806+960595475
2976+964230756+967863928+970805465+973257929+975471452+977192895+977890539
2966+977310288+975732708+973670084+971474145+969377184+967680869+966578360
2956+965886854+965212931+964392971+963695071+963603062+964441949+966196257
2946+968623337+971435845+974307305+976791803+978429358+979036272+978734733
2936+977570522+975315247+971804840+967227346+962020559+956843696+952634494
2927+950206902+949754210+951042655+953857785+957866473+962345692+966512438
2917+970032564+973009844+975607579+977810167+979473298+980497034+980830542
2907+980247030+978252245+974485440+969317976+963947888+959828265+958006692
2897+958813864+961829828+966091077+970612624+974862108+978700781+982005559
2887+984566400+986257025+987112984+987287411+987037599+986648015+986182088
2877+985337959+983810763+981882859+980374398+979867677+980249652+981118206
2867+982281969+983684930+985143838+986418536+987458321+988453284+989609630
2857+990919687+992251930+993605722+995059707+996489202+997611980+998386288
2847+999151516+1000280240+1001756604+1003102786+1003710787+1003366984
2839+1002554057+1002150727+1002674583+1003807528+1004810355+1005371616
2830+1005779614+1006273355+1006641903+1006616519+1006276296+1005863695
2822+1005491311+1005170846+1004897888+1004640788+1004411564+1004340655
2813+1004573267+1005168416+1006118110+1007325032+1008543016+1009477620
2805+1009980696+1010132617+1010169254+1010322389+1010693110+1011269397
2796+1012004702+1012802155+1013483559+1013917964+1014179029+1014489711
2788+1014985882+1015582821+1016087048+1016402142+1016569855+1016623948
2779+1016511351+1016224646+1015953223+1015986024+1016440058+1017160721
2771+1017879465+1018388359+1018598017+1018578643+1018544116+1018702494
2762+1019122385+1019743430+1020409040+1020924712+1021248438+1021554005
2754+1021913601+1022025815+1021527278+1020490307+1019330061+1018292066
2745+1017355352+1016582452+1016158469+1016026178+1015871956+1015629753
2737+1015675981+1016336796+1017414880+1018379344+1018901474+1019071681
2728+1019190608+1019475779+1019944008+1020485703+1021018575+1021542176
2720+1022046147+1022455872+1022715914+1022831005+1022789700+1022556001
2711+1022172556+1021787640+1021522355+1021337953+1021095622+1020789096
2703+1020628033+1020764927+1021050801+1021230535+1021270881+1021290830
2694+1021256430+1020960646+1020298233+1019442530+1018744247+1018488553
2686+1018698466+1019113881+1019407939+1019494001+1019593044+1019962614
2677+1020626626+1021411484+1022156187+1022809777+1023386959+1023905125
2669+1024365298+1024758973+1025087942+1025373048+1025596517+1025625098
2660+1025306487+1024735316+1024280322+1024206152+1024405707+1024614790
2652+1024716326+1024743180+1024763960+1024858783+1025055077+1025237560
2643+1025263328+1025218890+1025423113+1026055731+1026894425+1027584780
2635+1028065797+1028522261+1029013956+1029416072+1029704311+1030038459
2626+1030479706+1030817946+1030841156+1030668647+1030598569+1030709121
2618+1030865069+1031016542+1031199217+1031313413+1031171467+1030737062
2609+1030173883+1029691843+1029405586+1029289216+1029202130+1028947843
2601+1028378589+1027557478+1026802416+1026432782+1026456503+1026599216
2592+1026628437+1026538921+1026417117+1026240772+1025899079+1025399391
2584+1025010447+1025141395+1025981880+1027277934+1028548924+1029480331
2575+1030018062+1030240508+1030328041+1030523568+1030969291+1031645259
2567+1032452943+1033233261+1033754944+1033865367+1033701938+1033639916
2558+1033898808+1034287368+1034546259+1034817682+1035434251+1036333369
2550+1037064837+1037355122+1037369509+1037389138+1037428013+1037331401
2541+1037198215+1037370723+1037917854+1038542863+1039083599+1039567557
2533+1039765322+1039382964+1038745807+1038614347+1039227783+1040056375
2524+1040540269+1040612841+1040448708+1040140200+1039794287+1039626893
2516+1039790834+1040256953+1040897563+1041559082+1042100585+1042478915
2507+1042727129+1042825979+1042719328+1042476678+1042291125+1042239462
2499+1042128910+1041677306+1040782280+1039543516+1038211208+1037256144
2490+1037178649+1038011781+1039266402+1040507852+1041714263+1043018949
2482+1044362254+1045468983+1046095143+1046237088+1046019055+1045531900
2473+1045011048+1044857593+1045076075+1045070064+1044434378+1043544595
2465+1043006097+1042924574+1042983334+1042905967+1042685248+1042525655
2456+1042566640+1042603150+1042242851+1041490474+1040983562+1041357416
2448+1042433454+1043373110+1043660965+1043545427+1043454760+1043467548
2439+1043440758+1043187941+1042488442+1041362212+1040289115+1039762061
2431+1039746204+1039852344+1039782138+1039353744+1038412938+1036967649
2422+1035255860+1033602832+1032319629+1031615016+1031388478+1031210279
2414+1030700745+1029892102+1029096055+1028498668+1028004607+1027383563
2405+1026474726+1025306423+1023991315+1022406958+1020145353+1016988851
2397+1013256062+1009466559+1005835689+1002228158+998426570+994354454+990133678
2387+985932340+981785863+977715409+973949180+970774455+968181004+965896189
2377+963831838+962310972+961757448+962268708+963569686+965294710+967273894
2367+969590550+972309387+975191333+977915923+980471394+982937797+985122610
2357+986846867+988313768+989847677+991525578+993224578+994805355+996140796
2347+997105324+997676559+998008981+998127589+997724066+996807493+996086575
2337+996125514+996626736+996954298+996787160+995956458+994214234+991599364
2327+988769848+986673080+985919808+986489317+987964594+989962384+992202889
2317+994367881+996242204+997889734+999462198+1000950199+1002296125+1003602218
2308+1004981905+1006271181+1007158086+1007576443+1007717237+1007705920
2299+1007534243+1007259367+1007030143+1006920871+1006803222+1006362615
2291+1005345145+1003854204+1002317993+1001184984+1000696870+1000771040
2282+1001082170+1001522777+1002465181+1004196472+1006322972+1008232142
2274+1009886130+1011596768+1013228568+1014280757+1014747579+1015255387
2265+1016188968+1017226323+1017942893+1018364190+1018728901+1019086899
2257+1019340163+1019561522+1020136721+1021381944+1023094436+1024873233
2248+1026656314+1028406978+1029714478+1030369474+1030815516+1031529593
2240+1032454350+1033192787+1033303850+1032650133+1031855365+1031920455
2231+1033156917+1034969858+1036500251+1037065284+1036480621+1035290579
2223+1034198428+1033346498+1032651603+1032374426+1032766247+1033595351
2214+1034426948+1035037251+1035440389+1035798003+1036362141+1037342015
2206+1038670486+1039889557+1040587329+1041062463+1042061518+1043681746
2197+1045090909+1045550953+1045210412+1044750111+1044713474+1045220514
2189+1045878899+1045983760+1045246793+1044331371+1044149463+1044706312
2180+1045329531+1045737273+1045872377+1045088927+1042955521+1040613160
2172+1039729324+1040110596+1039906373+1038459613+1037604678+1039343321
2163+1043286216+1047547145+1051221110+1054290335+1055928977+1055321104
2155+1053306050+1051384987+1050253066+1050144368+1051210944+1052838716
2146+1053843142+1053854267+1053363851+1052558980+1051484221+1050770145
2138+1050779863+1050707484+1049781000+1048645115+1048409945+1049037320
2129+1049601394+1049619297+1049392951+1049252860+1049201197+1049352158
2121+1049977422+1050804032+1050929610+1049891999+1048369791+1047449957
2112+1047506799+1048124391+1048878046+1049668914+1050274421+1050179215
2104+1049261108+1048262884+1048105209+1048890834+1049976335+1050905696
2095+1051747140+1052484235+1052783920+1052615951+1052458531+1052638713
2087+1052981749+1053177723+1053009754+1052385129+1051604747+1051280510
2078+1051575015+1051890812+1051682306+1051318362+1051727767+1053164040
2070+1054734459+1055485748+1055471937+1055272510+1055120078+1055079988
2061+1055289581+1055557232+1055478651+1055098402+1054804281+1054779536
2053+1055115218+1055980320+1057243317+1058470700+1059548721+1060625206
2044+1061398363+1061251878+1059976476+1057917240+1055892787+1055156651
2036+1056453345+1058723517+1059847062+1059054148+1057476441+1056388510
2027+1056261015+1057333280+1059776026+1063108681+1066174197+1067967253
2019+1068327169+1067776394+1066793835+1065372332+1063349541+1061065878
2010+1059660551+1060430063+1063330999+1066479317+1067989824+1067791356
2002+1066930922+1066158724+1065792415+1065803860+1065678538+1065118108
1993+1064604354+1064337599+1063584199+1062298631+1061792422+1062605157
1985+1063360731+1062783101+1061546255+1061110891+1061535961+1061369910
1976+1059798916+1058063789+1057978622+1059811768+1062330729+1064321102
1968+1065458778+1066024131+1066249966+1065984745+1064799306+1062460207
1959+1059471865+1056917609+1055683129+1056026676+1057666853+1059674618
1951+1060499629+1059038931+1055788374+1052221124+1049212002+1046915870
1942+1045792965+1046427692+1048575037+1051566255+1055121868+1058974480
1934+1062135969+1063516487+1063343979+1063064755+1063652103+1064720085
1925+1065344135+1065076676+1064186638+1063341805+1063096788+1063491743
1917+1063977236+1063948846+1063266356+1062060265+1060386136+1058267565
1908+1055955575+1054034193+1053215192+1053879907+1055683705+1057783351
1900+1059621931+1061207695+1062525936+1063104269+1062527535+1061155201
1891+1059920209+1059530498+1059956079+1060701230+1061421573+1062037119
1883+1062625171+1063332150+1064076214+1064393482+1063818282+1062359502
1874+1060582431+1059316748+1059163549+1060057935+1061271699+1062236035
1866+1063147365+1064320974+1065694715+1067094735+1068475317+1069752828
1857+1070733852+1071400166+1071921529+1072286176+1072313478+1072041224
1849+1071743969+1071657842+1071910595+1072415845+1072727103+1072580937
1840+1072215970+1071864239+1071416662+1070709811+1069880707+1069227118
1832+1068862151+1068602428+1068149609+1067352986+1066162433+1064674240
1823+1063445898+1063195063+1064122762+1065816200+1067622939+1069084405
1815+1070092027+1070696512+1070843445+1070339090+1069084660+1067205286
1806+1064955574+1062771208+1061383401+1061568122+1063376716+1065694523
1798+1067184761+1067407399+1066686353+1065373035+1063403442+1060719773
1789+1057984888+1056257114+1056295606+1057966154+1060232490+1062234692
1781+1063868794+1065214529+1066185515+1066769858+1067147868+1067534511
1772+1067946409+1068215019+1068403257+1068753454+1069267847+1069799824
1764+1070406994+1071195815+1071905096+1072189180+1072132018+1072005609
1755+1071892564+1071705221+1071370946+1070938906+1070613262+1070525793
1747+1070497852+1070217413+1069521495+1068493412+1067266157+1065804563
1738+1064038298+1062057835+1060037027+1058165965+1056479688+1054812401
1730+1053185012+1051806924+1050781398+1050054533+1049533874+1049073254
1721+1048557645+1048181297+1048582262+1050339959+1052935264+1055427819
1713+1057535265+1059237015+1060522328+1061550411+1062645695+1063889511
1704+1064931789+1065616965+1066266782+1066987316+1067134761+1066352589
1696+1065086906+1063830239+1062637831+1061443504+1060380318+1059562596
1687+1058902420+1058627864+1059697955+1062200101+1064587858+1066232958
1679+1067453563+1068669373+1070084610+1071388337+1072159256+1072520195
1670+1072747947+1072727103+1072367123+1071679134+1070958472+1070447148
1662+1070157502+1069840809+1069339267+1068673018+1067809898+1066449585
1653+1064227559+1061839865+1059991118+1058316478+1056244262+1053283991
1645+1049282208+1043936928+1036639511+1027168086+1015198033+997726816+968515791
1635+928307425+887402055+847120734+801014075+746135299+690797500+652148619
1625+643228225+662367817+688182118+697766652+686372950+661127134+637305316
1615+629359360+634853108+645810551+659235100+674721059+691573790+708507660
1605+724830332+741028641+757545753+773474430+787691765+801003334+815824770
1595+833448803+852391141+870210892+885920001+899602866+910630450+916542426
1585+913181381+897155964+870494017+842078719+821662000+814485812+821378173
1575+836384841+850041299+860335370+870086082+880717562+890579401+898478937
1565+905565993+912507459+918832100+925551632+936780818+952333530+962724277
1555+967929849+972148835+976589434+981557918+987272832+993391269+999755361
1545+1006734167+1014114898+1021088333+1027454535+1032330819+1034045293
1537+1033162352+1030114100+1023621937+1011881043+994067557+968421033+929917934
1527+875174261+812091405+754789257+709624491+678886911+666369535+672796608
1517+695631967+728020210+760361074+788661088+813681005+836216808+859200443
1507+888177769+916931306+933389978+939732714+937414714+919752765+877122498
1497+813385157+757739682+734250413+738047525+757065823+785855742+819375331
1487+848422479+867878315+880144024+891017515+905373279+923673856+943090562
1477+961810134+979822152+997495163+1014973158+1030454194+1041110098+1047228982
1468+1050660808+1051272517+1045138096+1026872814+994716351+949737906+895724678
1458+848388015+828157040+822738038+814295784+808272873+816639615+840040455
1448+861358146+859897768+830374399+779096887+715068238+649324922+589544286
1438+537013688+495540951+473051792+468360262+474996065+490038539+511431487
1428+535467247+560267724+586454409+613246218+638298744+662188914+688031157
1418+714372000+735580419+750594633+760331662+763193147+758764121+752505081
1408+752696644+763636376+782625901+802066967+816785845+827741945+837694962
1398+847375085+856083776+863391551+868698275+870948499+869159471+861274322
1388+843004180+811121698+769353976+726316478+689619351+665082305+655927061
1378+660869906+675723119+696282935+717790719+734817109+745470584+752490183
1368+759315791+767415393+776862265+787725270+799523390+810211839+817820961
1358+822457727+825913211+830647484+838685257+850478646+864836136+879735834
1349+892769330+900982489+901429490+893360259+879283462+862328620+843795687
1339+825732582+814363496+816214673+831679980+854643090+877434843+895785549
1329+909376213+919041822+924580071+924552641+917634321+904649548+889399333
1319+877074032+871425232+873482741+882557805+896989722+914000894+930585462
1309+944841481+955840869+962941224+965879245+964683832+958543848+945130296
1299+922400565+892106405+860878408+836070515+820422532+812257072+810178079
1289+815052380+827208050+844075870+861850161+878363565+893600288+908218652
1279+922290077+935301641+946827954+956886280+965803860+973896557+981208489
1269+987638694+993356933+998796268+1004205551+1009531265+1014695980+1019657239
1259+1024114335+1027161692+1027284648+1023278837+1015978543+1008898648
1251+1005785625+1006635317+1006456094+997305774+969930261+916518896+839797357
1241+760970098+710261649+703904078+733213506+777125824+819979751+856143367
1231+885108736+907745244+925403676+939365125+950452749+959171798+965920102
1221+971059241+974965370+978000579+980186160+980533927+976637389+965543690
1211+946189966+921738727+898954455+884248622+880044470+884729703+895065526
1201+908004518+921170560+932966314+942655389+950214255+956026101+960746564
1191+965373931+970953421+977657544+984120422+987996308+987704360+984150857
1181+980489425+979592353+982131200+987391568+994579585+1002520169+1009434397
1171+1013914959+1015426105+1013755941+1008673837+1000172502+988766140+975399008
1162+960593429+942652128+915557694+870122720+802917235+727362464+670571513
1152+652568702+669916069+702644917+733597846+757247475+773117008+777226593
1142+764292971+738382824+716232449+714662030+735914119+768717841+801132427
1132+828298027+850439770+868851155+884476566+897905591+909529092+919678276
1122+928639080+936675638+944055984+950939585+957322795+963173325+968536508
1112+973495081+978019697+981850186+984692553+986467386+986686699+982729610
1102+968439639+935957405+882654290+818705053+765408140+741722065+751240166
1092+782585172+820622088+855727057+884753041+907707455+925428101+938938010
1082+949090262+956159479+959136503+954760163+939179765+914049360+890315779
1072+881365717+891206584+912259310+934440568+952882707+967304457+978428782
1062+986826087+993151240+997949069+1001447456+1003738665+1005049169+1005871240
1052+1006820550+1008293460+1010355190+1012919548+1015907698+1019300329
1044+1023078259+1027088034+1031080481+1034845624+1038241708+1041102170
1035+1041847001+1034999015+1013807413+980849213+953075676+948160006+966433856
1026+992587677+1013014435+1025231742+1032966505+1039086924+1043917043
1017+1045669561+1038318499+1010880070+958414754+898283026+864328201+874959744
1007+914360234+952548623+975530468+988939032+1001468045+1014782874+1026401452
997+1034885330+1040800055+1045223711+1048900937+1052338517+1055750138
989+1058938226+1061630719+1063726209+1064957940+1064512409+1061359807
980+1055374301+1047931230+1040487455+1032713625+1023550644+1014529545
972+1010316379+1014346359+1024492345+1034850611+1041934406+1047291323
963+1053703817+1060998166+1066438012+1067213406+1060914469+1043909562
955+1010415677+955611390+883289849+810791003+760492214+740557535+736269367
945+725945757+703579457+680624020+669598033+674121882+692037927+719104931
935+749831003+780374655+809902052+836013225+851351292+848762765+829947347
925+807216145+795573718+802538394+824971318+854060346+881853639+904192380
915+920398810+931902936+940976082+949733366+959265150+969364844+979213832
905+988207372+996158187+1003180345+1009534271+1015449060+1021067297+1026373190
895+1031041798+1034678038+1037302628+1039353808+1041273847+1043238261
887+1045085921+1046327243+1046138430+1043539097+1038401876+1032752180
878+1030163589+1032895085+1039784824+1047290556+1052249321+1053355411
870+1050546484+1043829126+1033006851+1018681842+1003820891+993518380+991442009
860+996376669+1003363084+1007579576+1006544715+1001023793+995573972+995698590
850+1001640042+1005492654+996278074+969169253+930281942+892319068+866244276
840+857612442+867361428+891563622+921499721+948021066+966612695+977661892
830+983393686+985780804+986248521+985905869+985600686+985841290+986864642
820+988636087+990578633+991653073+990950825+988044263+982938756+975925294
810+967259571+956994721+945295772+932621233+919516509+906581353+894591926
800+884529700+877626534+875115501+877574231+884579061+894921534+906993826
790+918492581+924377447+915718821+885679460+840730299+802596131+792893437
781+815242856+855247511+895371284+924142149+934437627+925089733+908185467
771+904888746+926205797+961684749+990832345+1000930185+989737701+955517910
761+891898410+794710214+671629456+543788144+438815856+380226094+376937109
751+419217627+486360674+559916888+630249206+693798438+748895312+794820063
741+831792258+860287799+880510590+891984025+892915559+879430395+845117765
731+783240168+693011534+585058673+479338677+396172674+347814449+335996220
721+354158432+391339645+436935779+484317423+530818109+575576379+618092002
711+657882332+694362192+726833109+754741558+777667456+794983492+805775204
701+807626445+793499839+753284184+686412592+613810101+568225317+567990722
691+604749296+656651752+706828288+748834761+782290027+808627034+829429820
681+846168802+860356981+873075127+884402844+893760776+900448018+904191613
671+906053532+908786179+915829756+926858812+937158637+945536056+953617244
662+962056301+970321315+977902752+984632450+990437647+995524291+1000051081
652+1003117237+1001799060+989879583+958666867+905071165+842269067+797000336
642+789587636+817709707+862096200+904512653+937357553+959985940+972568342
632+974462742+963807988+936583245+891406843+840136365+807226119+808773200
622+836579537+870841911+901826682+931641296+961912182+989600934+1012311100
612+1030236224+1043800609+1052669340+1055613371+1048483284+1020858918+957137115
602+849906898+719564848+613848848+573657554+599851848+661097402+725524779
592+777271222+812722744+833492985+843293442+845678067+842773806+836172946
582+828339971+822643727+821556244+824880076+830681692+837919454+847323422
572+859874366+875278483+891746553+906928928+919502314+929952845+939649976
562+949301135+958431250+966386349+973560939+981148833+989842625+999384064
552+1009192770+1018597889+1026566479+1032319501+1036352039+1039258154
544+1038554116+1028149494+1002182441+958376134+898691408+831987593+777108560
534+754689767+770071249+808733813+850905570+886314763+914266243+936602683
524+954814384+970306162+983580901+993366716+995998083+985033095+956043429
514+915852135+883043937+874118812+888296505+909710361+925252331+935288981
504+946888377+963098835+980789685+995670776+1006682824+1014907876+1021242875
494+1026410979+1031269423+1036173008+1040763546+1044381883+1046437795
486+1047173866+1048037178+1050121350+1052307123+1051073538+1040376648
477+1011317863+954610417+868983957+776014619+720559108+730180407+786511058
467+853177341+907317680+944862326+970296826+987598412+999449794+1008930937
458+1018353576+1027161373+1033794075+1038521123+1042557050+1046566249
449+1050949751+1055933069+1060748162+1064439838+1067454075+1070538197
441+1072727103+1071801834+1063360219+1037443487+977938046+875080718+745520328
431+637441315+600748728+643186473+728701038+814214581+876749795+916454126
421+943847541+964487985+971538404+960981734+942634289+928633389+927160926
411+939815963+961949139+986675318+1007038775+1018785488+1024143939+1029715053
401+1039807586+1052738459+1061533275+1061039407+1055509533+1051659799
392+1051795415+1054994437+1059389383+1063646093+1067355864+1070408400
384+1072370512+1072727103+1073741823+1072326841+1067792634+1061775414
375+1061460320+1072727103
##END=
