##TITLE=X8122
##JCAMP-DX=4.24
##DATA TYPE=INFRARED SPECTRUM
##DATE=30/10/2018
##SAMPLING PROCEDURE=Diamant-ATR
##ORIGIN=ComPlat
##XUNITS=1/CM
##YUNITS=TRANSMITTANCE
##RESOLUTION=4
##FIRSTX=3997.453
##LASTX=373.96442
##DELTAX=-1.4165319
##MAXY=0.90806669
##MINY=0.44850832
##XFACTOR=1
##YFACTOR=8.4570301e-010
##NPOINTS=2559
##FIRSTY=0.87204266
##XYDATA=(X++(Y..Y))
3997+1031145269+1031159647+1031208912+1031042580+1030868637+1030837767
3989+1030714358+1030425181+1030432370+1031077468+1031959940+1032442301
3980+1032437015+1032280622+1032187448+1032179272+1032189633+1032004272
3972+1031474619+1030921920+1030903031+1031428385+1031828214+1031582382
3963+1030938412+1030531746+1030639720+1031050122+1031452982+1031580338
3955+1031172615+1030249546+1029287996+1028873295+1029223859+1029973972
3946+1030405799+1030230235+1030088923+1030822191+1032172224+1033050750
3938+1032887167+1031747727+1029867618+1027891799+1026967109+1027605652
3929+1028817052+1029318161+1028884078+1028203458+1027998152+1028224532
3921+1028307697+1028065812+1027955935+1028478962+1029548135+1030682994
3912+1031663715+1032609831+1033343028+1033004445+1030816060+1027245502
3904+1024117274+1022983049+1023742042+1025688753+1028262661+1030542670
3895+1031566524+1031087546+1029881855+1029406330+1030107037+1030775534
3887+1030417146+1029193271+1027669718+1025999567+1024690483+1025078754
3878+1027214069+1029163811+1029446081+1027914845+1025273136+1022845896
3870+1022389260+1024326739+1026608087+1027450034+1027106165+1026777378
3861+1026872948+1026921509+1026593427+1025770157+1024174292+1021813866
3853+1020618042+1022656236+1026166251+1029098547+1030825222+1031151964
3844+1029943947+1027351433+1024143351+1021578253+1020878463+1022312296
3836+1024681039+1026777872+1028362178+1029431280+1029856623+1029809050
3827+1029836960+1030206624+1030320448+1029263116+1027088122+1025395488
3819+1025283215+1026061448+1027349882+1029304206+1031244363+1032099842
3810+1031357905+1029210045+1026857936+1025861780+1025825483+1024973317
3802+1023301898+1023007717+1025031815+1027952834+1030595318+1032486351
3793+1033498506+1033893613+1033971422+1033815170+1033554678+1033467706
3785+1033570606+1033398707+1032488818+1030994443+1029822018+1029887000
3776+1031005226+1032241505+1032890409+1032725840+1031972697+1031213211
3768+1030944684+1031288272+1032138676+1033021572+1033156258+1032157987
3759+1030527446+1029287291+1028747348+1028151092+1026712114+1024530706
3751+1022946188+1023087429+1023902382+1024157941+1024003379+1024090985
3742+1024322510+1023824714+1021912185+1018433674+1014290260+1011736086
3734+1012592623+1016055205+1019929952+1022572365+1023313738+1022602178
3725+1021793638+1021952147+1022987348+1024494550+1026333076+1028179495
3717+1029417325+1029456300+1027967000+1025390062+1023641890+1024620849
3708+1027369969+1029640956+1030284433+1029287714+1027500144+1026364933
3700+1026709718+1028008794+1029419299+1030495590+1031052800+1031034123
3691+1030576148+1030213461+1030654450+1031690568+1032400084+1032394305
3683+1031789732+1030827336+1029737936+1028478892+1026825163+1025524254
3674+1026019936+1027170653+1026780409+1025494653+1026482069+1030480296
3666+1034661909+1036903648+1037020362+1035965214+1034642034+1033198686
3657+1031822858+1031444947+1032113938+1031941757+1029282921+1024710570
3649+1021541957+1022450648+1025770157+1029252192+1032101886+1034052403
3640+1035114317+1035499839+1035185712+1033859501+1031488081+1028517444
3632+1025214779+1021601018+1019087159+1020263953+1024061031+1027199268
3623+1028562481+1028533373+1027721309+1026833903+1026602801+1026969576
3615+1027316828+1027498030+1027747668+1028034378+1028476002+1029826458
3606+1032155521+1033955987+1033889596+1032147838+1030005899+1028598636
3598+1027978418+1027525165+1027090025+1027209699+1027905119+1028127905
3589+1027044636+1025502194+1025776500+1028523576+1031796076+1033739757
3581+1033955847+1033337883+1033010436+1033140118+1033295525+1033531279
3572+1034031400+1034120768+1032777854+1030187383+1028349633+1028888377
3564+1030891402+1032923676+1034551186+1035742852+1036421005+1036478304
3555+1035805085+1034569440+1033576103+1033637139+1034361949+1034561265
3547+1033794308+1032855029+1032751776+1033723476+1035395600+1037056165
3538+1037864423+1037553750+1036790105+1036302247+1036035905+1035585683
3530+1034871444+1034073124+1033322801+1032828317+1033088175+1034511224
3521+1036654151+1038313024+1038708061+1038273979+1037991709+1038103771
3513+1037939977+1037037981+1035977619+1035713250+1036222605+1036536168
3504+1036138241+1035619372+1035699366+1036135775+1036254462+1035960704
3496+1035667650+1035668778+1035957744+1036380902+1036664159+1036573240
3488+1036309718+1036388161+1036877359+1037220030+1037029947+1036626593
3479+1036462799+1036501633+1036552026+1036721670+1037123543+1037494054
3471+1037511039+1037193882+1036692350+1036007291+1035197764+1034607711
3462+1034604750+1035172180+1035915597+1036505650+1037001403+1037564674
3454+1037977895+1037869497+1037374380+1037014935+1036913656+1036658732
3445+1036009475+1035279591+1034973146+1035336820+1036120621+1036738655
3437+1036857766+1036715890+1036670290+1036689461+1036540749+1036259536
3428+1036167772+1036458500+1036850506+1036754584+1035928283+1034850583
3420+1034226135+1034347148+1035155970+1036426361+1037567282+1037826223
3411+1037104021+1036173411+1035832502+1036159878+1036769666+1037444366
3403+1038166991+1038686001+1038516005+1037484398+1035998551+1034695246
3394+1034025198+1034120134+1034769531+1035546849+1036114631+1036323955
3386+1036134153+1035724527+1035610914+1036259889+1037475940+1038436434
3377+1038535175+1038059792+1037777663+1037999743+1038308161+1038153177
3369+1037516537+1036951221+1036878768+1036992945+1036815196+1036725969
3360+1037580673+1039239969+1040433327+1040305336+1039297481+1038308725
3352+1037775760+1037760959+1038211675+1038875802+1039391923+1039557691
3343+1039321866+1038755635+1038180875+1037884650+1037619789+1036981034
3335+1036262919+1036240084+1037120160+1038327684+1039235741+1039665101
3326+1039767155+1039753553+1039723952+1039593987+1039200994+1038578943
3318+1038054647+1037911574+1038097005+1038433333+1038850430+1039183022
3309+1039118533+1038629265+1038170022+1038266015+1039005766+1039864135
3301+1040089740+1039481220+1038590784+1037999955+1037788517+1037811916
3292+1037993823+1038268129+1038595858+1038992305+1039339345+1039368031
3284+1039020919+1038730685+1039096332+1040119905+1040912939+1040598601
3275+1039482912+1038765995+1039080545+1039959141+1040713905+1041092732
3267+1041058761+1040673168+1040352698+1040638069+1041487276+1042197779
3258+1042176141+1041556205+1040968477+1040799608+1040789036+1040486045
3250+1039968092+1039724092+1039878019+1040021375+1039948006+1040153101
3241+1041192672+1042660194+1043307618+1042473353+1040950011+1040005376
3233+1040025392+1040465183+1040609666+1040142670+1039416873+1039212976
3224+1039869914+1040786922+1041149186+1040925625+1040734838+1040871145
3216+1041027539+1041019504+1041145592+1041558671+1041860253+1041690327
3207+1041285141+1041119444+1041230096+1041143266+1040527628+1039796475
3199+1039722119+1040445520+1041333490+1041812750+1041838404+1041641485
3190+1041442874+1041273441+1040960090+1040544402+1040497533+1041100555
3182+1041958431+1042524098+1042718833+1042735184+1042604304+1042286724
3173+1041944194+1041841787+1042075920+1042539040+1043015199+1043262863
3165+1043251939+1043317344+1043737824+1044268886+1044457983+1044158727
3156+1043440824+1042505280+1041893308+1042083531+1042767041+1043195485
3148+1043144106+1042896511+1042567936+1042037649+1041290286+1040508528
3139+1040056473+1040304420+1041123672+1041769405+1041662135+1041069333
3131+1040689519+1040818215+1041197887+1041393327+1041053616+1039984373
3122+1038229788+1036095531+1033967335+1032086380+1030598912+1029744350
3114+1029765000+1030579319+1031755620+1032920152+1034066922+1035318566
3105+1036455962+1036981880+1036791656+1036425445+1036265739+1035890859
3097+1034776932+1033247035+1032043529+1031255640+1030366965+1029229357
3088+1028420394+1028591518+1029710449+1031030246+1031758228+1031747656
3080+1031490406+1031375666+1031110100+1030154399+1028608997+1027172274
3071+1026203253+1025365253+1024284663+1023106388+1022366354+1022538253
3063+1023482466+1024251890+1023849029+1022214964+1020080848+1018001565
3054+1016023067+1014062612+1012058741+1009786556+1006944544+1003606217
3046+1000464104+998396943+997804422+998541496+1000316027+1002731285+1005172480
3036+1007297575+1009542415+1012551604+1016199054+1019603773+1022022485
3027+1023451314+1024469601+1025637444+1027016797+1028347307+1029482448
3019+1030274496+1030348640+1029621434+1028769267+1028583272+1029137170
3010+1030012735+1030947081+1031885232+1032759952+1033542344+1034326709
3002+1035206645+1036098420+1036779815+1037186622+1037582787+1038192716
2993+1038816106+1039132206+1039185066+1039201911+1039198668+1039052283
2985+1038630957+1037653408+1035785139+1033027280+1029719118+1026137919
2976+1022281215+1017904514+1012612639+1006155245+998823273+991378604+984470353
2966+978234406+972491462+967122271+962035702+956887463+951149946+944534467
2956+937192698+929535322+922017777+915083943+909218013+905080731+903437856
2946+904573913+907617989+910659951+911722498+909590003+903801882+894379913
2936+881987167+868033020+854117284+841437828+830843223+822966586+817952399
2927+815375108+814643602+815381592+817555459+821386508+826876078+833344607
2917+839779870+845605839+850792912+855417982+859504871+863194538+866845794
2907+870954462+875905358+881694043+887897570+893917709+899291623+903914226
2897+908003512+911792202+915337176+918691643+922047026+925567614+929227257
2887+932905718+936568039+940300417+944175445+948047725+951476125+953890467
2877+954834257+954048975+951510237+947660652+943593567+940655845+939606054
2867+940119285+941042565+941027694+939015859+934320380+926392434+914720833
2857+899271818+881262427+863485971+849525763+842125918+841975233+847882747
2847+857887228+870151067+883251708+896166214+908185983+918917600+928337172
2837+936635911+943936168+950275508+955764867+960525257+964533351+967762858
2827+970467928+973107029+975865523+978426462+980416308+981903141+983207715
2817+984475710+985735247+987106917+988667050+990300762+991846094+993241515
2808+994501828+995671293+996803192+997909578+998882334+999505795+999720898
2798+999881944+1000480948+1001558226+1002637407+1003277289+1003513959
2789+1003775226+1004441820+1005475894+1006513210+1007304905+1007894184
2781+1008366678+1008674813+1008781378+1008822045+1009012057+1009407799
2772+1009860841+1010261939+1010695035+1011300030+1012161782+1013333573
2764+1014713630+1015956393+1016763100+1017187387+1017453305+1017633662
2755+1017678417+1017600537+1017473603+1017359638+1017347868+1017543307
2747+1017900850+1018213708+1018378770+1018496119+1018609097+1018635809
2738+1018656389+1018907295+1019372319+1019704911+1019651135+1019281259
2730+1018812219+1018471733+1018469477+1018824130+1019259763+1019531602
2721+1019796323+1020385178+1021252991+1021955882+1022171267+1021993589
2713+1021751210+1021735070+1022037568+1022521761+1022999541+1023432919
2704+1023839303+1024097328+1024016841+1023549351+1022844345+1022179936
2696+1021834939+1021876875+1022092330+1022257252+1022397436+1022612116
2687+1022773020+1022675265+1022423442+1022365367+1022601614+1022850971
2679+1022866687+1022696903+1022436058+1022063716+1021692994+1021640487
2670+1022031859+1022613455+1023092856+1023408322+1023598968+1023665924
2662+1023604536+1023437571+1023255945+1023241426+1023514816+1024002040
2653+1024542406+1025004892+1025281241+1025386397+1025542509+1025924648
2645+1026414832+1026798522+1027013061+1027075788+1027011863+1026951533
2636+1027035756+1027201735+1027339663+1027612912+1028249482+1029060347
2628+1029618967+1029914416+1030257017+1030520116+1030193726+1029346212
2619+1028768421+1028909592+1029384059+1029782972+1030245458+1030874135
2611+1031267903+1031120108+1030792801+1030829028+1031236963+1031606557
2602+1031641373+1031305187+1030735854+1030277385+1030338139+1030955679
2594+1031675908+1032068760+1032157776+1032165670+1032100406+1031852741
2585+1031514299+1031380741+1031701915+1032398675+1032991054+1033066537
2577+1032846430+1032881599+1033303207+1033914968+1034674032+1035399335
2568+1035573419+1035255487+1035506534+1037016415+1038889546+1039583909
2560+1038665210+1037019868+1035695419+1035107339+1035148006+1035487223
2551+1035768718+1035840184+1035795077+1035711348+1035612253+1035737354
2543+1036380690+1037365147+1038095454+1038152684+1037600266+1036873130
2534+1036490850+1036628567+1037016485+1037421742+1037879646+1038296673
2526+1038375328+1038098696+1037769769+1037546913+1037436965+1037643329
2517+1038369619+1039275209+1039607026+1039052212+1038193350+1037914886
2509+1038495425+1039417014+1039948781+1039806412+1039286415+1038811102
2500+1038442424+1037990299+1037472980+1037203256+1037454021+1038173968
2492+1038969469+1039400310+1039450632+1039557268+1040015172+1040654209
2483+1041245390+1041793579+1042252541+1042420141+1042348957+1042413798
2475+1042742162+1042974955+1042863739+1042747236+1043091528+1043765170
2466+1044133355+1043867577+1043387330+1043331087+1043750651+1044129408
2458+1044137231+1043935801+1043715341+1043488609+1043425812+1043804850
2449+1044481946+1044908276+1044766753+1044235902+1043674463+1043335880
2441+1043278721+1043332708+1043221351+1042842383+1042434730+1042423806
2432+1043019780+1043943272+1044642568+1044822502+1044691199+1044663571
2424+1044850060+1044909615+1044568847+1044173528+1044299756+1044858940
2415+1045139307+1044783598+1044196575+1043936224+1044103471+1044404277
2407+1044602395+1044818062+1045255739+1045687355+1045578676+1044834061
2398+1043990845+1043560850+1043602997+1044004871+1044719179+1045596014
2390+1046260564+1046140890+1044479620+1040669926+1034896747+1028093370
2381+1020965435+1013401374+1005050199+996056886+986917328+977895612+968845633
2371+959521490+950007193+940733936+932058485+924229985+917875350+913849073
2361+912375631+912977877+915440498+920153174+927272792+936371824+946847954
2351+957413028+965545646+968643287+965659682+958261318+950677170+946541227
2342+946010095+947305435+949059315+950761534+952344572+953638856+954450567
2332+955246280+956903744+959418449+961783315+963402227+964800115+966930637
2322+970392515+975326355+981443122+987783167+992983772+996332178+998404837
2312+1000426256+1003184397+1006735714+1010813793+1015080757+1019058826
2303+1022253799+1024589134+1026585956+1028883091+1031551935+1033977343
2295+1035487294+1036135704+1036759165+1038083473+1039914528+1041525264
2286+1042616356+1043372106+1043804357+1043810206+1043738388+1044158516
2278+1045109071+1046091131+1046656447+1046701835+1046451140+1046311380
2269+1046501040+1046823201+1046992633+1047064170+1047327129+1047818159
2261+1048150328+1047985477+1047466889+1046911935+1046486944+1046536209
2252+1047400427+1048474815+1048696826+1048349785+1048780555+1050077306
2244+1050871538+1050708237+1050755177+1051752460+1052794146+1052726838
2235+1051788193+1051156627+1051369193+1051890036+1052022255+1051655269
2227+1051221327+1051232111+1051772194+1052485939+1053066549+1053329507
2218+1053033987+1052393259+1052277038+1053051677+1053899686+1053947823
2210+1053422258+1053278833+1054115987+1055519866+1056425104+1056360474
2201+1055988766+1056070028+1056494033+1056600386+1055962829+1054706534
2193+1053166066+1051344314+1049159946+1047022940+1045429189+1044426126
2184+1044289607+1045749800+1048618452+1051442280+1053220476+1054032610
2176+1053669429+1051421771+1047988014+1045935442+1046936814+1049549626
2167+1051114621+1051212306+1051777410+1054590666+1059814670+1065461621
2159+1067759108+1064936549+1060131545+1057721925+1059172250+1062781923
2150+1065452881+1065345118+1063505183+1062028992+1061186269+1059910381
2142+1057922227+1055755972+1053995961+1053626226+1055664349+1059487504
2133+1062849795+1064214840+1063912695+1062906390+1061669406+1060348692
2125+1059192266+1058668675+1059280647+1060833872+1061968168+1061418570
2116+1059784082+1058830213+1059062373+1059338017+1058890614+1058312965
2108+1058316278+1058669379+1058717164+1058370053+1058186807+1058494449
2099+1058841279+1058774746+1058740000+1059381574+1060360956+1060820622
2091+1060572887+1060013422+1059417025+1058971666+1058918947+1059099445
2082+1058951367+1058440110+1058336223+1058994642+1059542196+1059121505
2074+1058385770+1058632801+1059909324+1061173442+1061987268+1062889545
2065+1064244371+1065507714+1065668901+1064168676+1061497366+1059105365
2057+1058622652+1060567390+1063182528+1063252796+1059479681+1054687998
2048+1053292576+1056485364+1061375929+1064935774+1067006318+1068965222
2040+1070624378+1069947282+1066334438+1062481892+1061367824+1062834078
2031+1065054743+1067503198+1070079220+1071530673+1071296751+1070927369
2023+1071525598+1071716245+1069952639+1067110134+1065381345+1066021861
2014+1068844280+1072265702+1073741823+1072146240+1069459494+1068121161
2006+1067647962+1066129836+1063828331+1062871009+1064299486+1066999058
1997+1069035490+1069263703+1067983656+1066621077+1066596057+1067997611
1989+1069469784+1069433840+1067266105+1063725783+1060367933+1058444621
1980+1058620890+1061338223+1065982886+1069825212+1070268880+1067897248
1972+1064863744+1061587650+1057569760+1054256030+1053895880+1055727639
1963+1056684327+1055854996+1055476662+1057389403+1060440245+1061973383
1955+1060761772+1058274342+1057360788+1059532259+1063600400+1067056640
1946+1068341480+1067610890+1066012770+1064760280+1064362353+1064440233
1938+1064341985+1063659039+1062346854+1060681284+1059163299+1058467808
1929+1059154489+1060924438+1062460960+1062719196+1062130341+1061857022
1921+1062096934+1062245716+1062420293+1063395728+1064892147+1065491081
1912+1064528544+1062976023+1062163678+1062177915+1062251072+1062051052
1904+1061619365+1060714057+1059070760+1056998665+1055215818+1054325593
1895+1054634997+1056069253+1058088065+1059911367+1061006829+1061699007
1887+1063088438+1065710060+1068526065+1069818939+1069253765+1068245698
1878+1068105726+1068776901+1069482682+1069771789+1069658176+1069187444
1870+1068186072+1066644829+1065293880+1064988563+1065724368+1066769366
1861+1067282526+1066878045+1065901271+1065098934+1064912727+1065162013
1853+1065355267+1065079904+1064194965+1062922741+1061700769+1060915065
1844+1060920633+1061854414+1063227635+1064455809+1065489742+1066564200
1836+1067526597+1067704346+1066572587+1064415706+1062573727+1062471532
1827+1063817266+1065243064+1066206376+1067062278+1067871875+1068217083
1819+1068076759+1067969771+1068074222+1067895345+1067057627+1065891827
1810+1065142842+1065262939+1066062528+1066925478+1067202039+1066654555
1802+1065704070+1065052699+1064907441+1064873399+1064530870+1063718665
1793+1062654003+1062112016+1062657668+1063635640+1064009392+1063358022
1785+1061949209+1060291956+1058611798+1056933895+1055364741+1053917024
1776+1052360415+1050488130+1048536837+1047416497+1047919508+1049764870
1768+1052194577+1054422572+1055739410+1055998774+1055799810+1055860141
1759+1056122536+1056118025+1055744836+1055085713+1053915966+1051809971
1751+1048888741+1046544314+1046148290+1047199068+1048317364+1048800078
1742+1048729598+1048410397+1048110719+1047856781+1047276947+1046195652
1734+1045537586+1046443599+1048335407+1050391926+1052335536+1053738288
1725+1054279781+1054158909+1053612482+1052310657+1049705386+1046260352
1717+1044445790+1045939178+1048877112+1051266716+1052606248+1052949482
1708+1052487701+1051760142+1051552651+1051866707+1051500285+1049086013
1700+1044738138+1040625101+1038049149+1037085907+1037667503+1038876930
1691+1039857299+1040610089+1041236087+1041257301+1040473570+1040487243
1683+1043191045+1047049510+1050103947+1051945715+1052723737+1052915793
1674+1053116730+1053282498+1053095798+1053241338+1054939539+1057522327
1666+1059221022+1059641713+1059795217+1060740064+1062033432+1062467444
1657+1061442955+1058881945+1055304411+1053251346+1054329046+1055275091
1649+1054547814+1053343251+1053621644+1054967167+1055089448+1053033212
1640+1049047461+1043219237+1034033867+1018509862+996706142+971970338+943010421
1630+905538424+859461315+814584611+785291749+777601318+785160517+793412950
1621+792163844+781391278+764517804+746011956+729656857+714707753+700717520
1611+692329414+696977037+717831118+750298513+786768504+821889942+853101112
1601+879224656+899687435+914146426+922477444+925303034+924241050+921418843
1591+919092600+919591947+924578647+933853313+945352522+956440553+964787288
1581+968350797+965166467+953042882+932682721+914775807+910080681+917136374
1571+932533587+953837044+974350639+988414310+996785643+1001601007+1003382304
1561+1002473613+1002135311+1008510033+1018552432+1026354854+1032010756
1553+1035949216+1038074240+1038598607+1037620353+1034916904+1030441814
1544+1024724595+1018676264+1013229475+1010208375+1009885791+1008588547
1536+1002639451+989469810+969294587+945254978+917029950+880250413+833870525
1526+785740773+745104252+714139618+693831260+686667874+692057505+707992968
1516+730854444+754726664+775971271+793332392+805221140+809983715+808567855
1506+809460899+819582235+836792460+858582648+883114485+908318414+932572773
1496+953733298+969283099+979058874+984455905+985165774+976754409+955440380
1486+925934247+899105557+885973271+892154033+912910922+936775319+955598113
1476+967269361+971524837+966559140+949692150+921560718+885426491+844073758
1466+802147815+768664459+749959719+742768141+742510187+751048696+774213162
1456+804097839+820726327+822705953+819420555+819363537+828507888+847640579
1446+871053767+892329315+909677256+923519482+933431988+938770098+939788384
1436+937954862+935752663+935034055+937105374+943560512+954197828+965766247
1426+975699191+984211835+991924537+998292492+1003065428+1007664703+1013762722
1417+1020668435+1026662497+1031179663+1034452233+1036672193+1037384247
1408+1035607743+1030535481+1022211793+1011758992+999666277+983868882+960910568
1398+928360924+884895006+831531031+778123994+739889198+723370024+727009581
1388+748615676+782624315+816363723+837727158+840625271+823387982+790218330
1378+752054578+720877027+704118293+703641288+715493739+732543905+749890790
1368+765842041+780021088+792940245+805857005+818865741+829106610+832858300
1358+828909550+819358674+809478589+805666077+811149022+824213719+840370699
1349+854817497+863977494+866742965+864766159+861124276+858591810+859079034
1339+863516418+871367824+881099761+891408360+901524340+910879424+919105850
1329+926277271+932748408+938687214+943904381+948062948+950998979+952941039
1319+954374802+955601848+956617245+957494009+958536540+959884318+961262049
1309+962377245+963376713+964650417+966258828+967837355+969136713+970451084
1299+972410411+975401627+979193067+983114471+986618566+989576022+991935602
1289+993305088+993258008+992132592+991120367+991255899+992383429+992995542
1279+990798206+983611350+970483715+952739539+934281194+920449893+915393066
1269+919583842+929965528+942479006+954078859+963013040+968676835+971796676
1259+974090429+977059162+981108627+985786133+990389214+994192494+996500483
1249+996919695+995625622+993122405+989586806+984370061+976174998+964032172
1239+948488503+931893774+917362683+907348617+902734894+902132154+901366043
1230+894881797+879999577+860804018+846608691+844971524+856037002+873905716
1220+892393874+908612313+922308716+933744352+942625392+948258035+950192272
1210+948719182+944827873+939743489+934340819+928454873+920472164+908156522
1200+890669102+869854278+849011404+830300250+813965097+800394147+792078916
1190+792275271+801294310+814640712+825578270+829967164+828710587+825860822
1180+824713770+825283878+824759370+820274413+811690163+801982541+795093813
1170+793690780+798603265+809227683+823882959+840378241+856991646+872988709
1160+888063267+901590943+912815422+921557829+928344502+933959244+939115870
1150+944299700+949501080+954081325+957208567+958755308+959526635+959639049
1140+956542043+946495416+929461883+911072749+897543945+889075140+879962928
1130+865193475+846109132+829792586+823337942+828562016+841789238+857934872
1120+874042235+889390676+903596998+915233430+922161062+923384725+920619536
1111+917534864+917303269+921113456+928530850+938329460+948953174+958950043
1101+967422443+974141385+979308583+983236259+986172783+988300627+989726496
1091+990361163+989859068+987711842+983236400+975168482+961261908+939119535
1081+908772512+875001107+846371034+830799244+831038028+843303347+859567668
1071+872032092+877109922+876275023+873320455+870440033+866669525+860256252
1061+852406961+847814382+850778111+861298290+875644091+890091100+903149665
1051+914816262+925201191+934169061+941507800+947147350+951366106+954637972
1041+957222734+959129836+960456681+961563208+962935230+964871934+967180134
1031+969280350+970755343+971571988+971592568+970435719+968513111+967710844
1021+969831992+974307364+978008661+976509282+965204385+942443343+914512989
1011+894621446+892309440+904566090+920063313+930510546+935492523+938573601
1001+942494229+948068657+955077904+962872785+970457850+976617468+980270274
992+980783646+978207272+973630691+969103376+966236556+964409941+961001275
982+954228346+945773566+939946047+939880289+944873262+951597702+957202224
972+960693280+962224657+962431303+962423832+963181133+964099057+962380839
962+954962248+942229861+929765719+924982775+931139222+945054394+960643874
952+973671288+983104956+989701335+994621573+998781126+1002372334+1004713096
942+1004525902+1000237724+990775723+977593607+965940684+962110833+968138161
932+980033675+991775755+999857347+1003602622+1003265660+999730413+995164969
922+992118849+991571506+992462366+993311924+993889573+995069540+997501784
912+1000916863+1004571503+1008056357+1011693376+1016168113+1021740286
904+1027995474+1034309794+1040188411+1045179974+1048854840+1050746719
895+1049273206+1038970950+1008891961+949095753+865258316+785008704+741370182
885+746636121+785648445+833771924+875637959+907517133+930296288+944768882
875+950903550+948562718+939048632+926680061+918007217+917992276+926627624
866+939761672+952876057+963610141+971681936+977826683+982694836+985651236
856+984217967+975312260+957926823+934925094+912277594+896941487+894817590
846+908063419+932596736+959717423+981979470+997175253+1006949125+1013563899
836+1018406610+1021975264+1024416671+1026248430+1028358161+1031024538
827+1033327241+1034009199+1032818168+1030448932+1027050204+1021401984
819+1011634455+995763480+972024395+942142749+915965640+908282610+925775598
809+958655580+988949531+1005404287+1007706920+999074743+978527037+940427068
799+881827108+810265703+739927116+678522146+624445625+578516205+550025681
789+547422947+568979496+605133211+645185599+679603300+699173669+696540559
779+672994940+644254425+632857905+648806901+680404933+708222731+725042994
769+738550160+758285380+785910135+817361922+848555261+876725456+899583549
759+915689573+924675203+925995283+917288962+893710500+850077193+786427172
749+712309832+643671208+593185612+562401512+543821414+531909831+530337858
739+544872086+571290480+596937161+614168388+626031270+637723240+648171318
730+652931638+651982422+651305326+657537608+672931086+695190737+720270904
720+744677640+766481219+785390209+801930104+816503272+829355332+840945388
710+851613715+861165789+869438379+876832374+883623487+889271425+893147087
700+895661158+898090795+901292604+904919403+908041148+910317844+912325309
690+914887306+918265172+921993885+925577269+929124498+932916924+936686656
680+939816082+941956331+943043546+942344531+936926638+921956883+893831090
670+854536003+820601156+818648031+845038127+875453867+899886892+918233456
660+931979548+942380194+950041305+955408594+959594929+963769143+968037234
650+971311214+970571885+958328485+923758407+863955364+796351236+751899312
640+749616977+781336374+823981489+860896698+887915683+906739463+919631556
630+928419281+934554654+939255137+943455216+947243625+949699691+949951514
620+948717631+948423168+950839202+954792674+957691422+958995572+960301415
611+962589106+965237299+967499265+969250326+969083149+961752868+940366809
601+905551674+871806981+857923948+869137432+893559815+915739120+929114067
591+935735607+938880327+938878988+934605399+927226699+921860679+924067671
581+934312064+947045507+955376807+955204133+945195141+925074892+895593427
571+861246276+832255771+820047963+828404565+850956847+877396843+900355368
561+917628884+930133763+938915779+944386460+947231009+948497665+948885231
551+948756747+948746598+949851081+952740878+957076630+961790927+966052393
541+969528297+971947784+973357725+974723334+977309787+981436990+986391551
531+991319260+995718162+999327976+1001946074+1002810786+999103217+984830010
521+951644430+893387140+816354137+746515461+715466605+733805064+784236672
511+837281094+869016983+870214358+849181471+827405731+823465580+838857366
501+861344736+880545370+895690971+909037374+920640892+930041717+937808406
492+944598040+950840894+956976690+962652044+966540675+968059224+968549549
482+969615127+971185127+972128352+971907329+971141993+970806582+970780434
472+968841122+962307611+951599957+941386082+937720448+942657037+951786516
462+957726238+955650056+945212056+928519855+908085479+886472265+867684429
452+857211471+857676635+866467813+880285089+897989657+918195538+937467427
442+952011416+960764465+965244347+965540008+958172514+938665859+904790074
432+857282233+802724266+756253952+734193687+742818041+774720050+812822344
422+841809395+855806112+855939670+850457782+849569460+855311487+865947816
412+880239419+896151977+910288736+919748411+924317098+926524512+928720087
402+930226514+927687775+918479923+906566014+901792514+905838243+911932034
392+916259610+918503392+916977584+909483650+899855810+899534424+915721147
382+939426613+956781814+963215456+960929809+954262528+950405261+954420684
##END=
