##TITLE=STM- 159 Cu
##JCAMP-DX=4.24
##DATA TYPE=INFRARED SPECTRUM
##DATE=21/2/2019
##SAMPLING PROCEDURE=Diamant- ATR
##ORIGIN=Rieke
##XUNITS=1/CM
##YUNITS=TRANSMITTANCE
##RESOLUTION=4
##FIRSTX=3997.453
##LASTX=373.96442
##DELTAX=-1.4165319
##MAXY=1.0022386
##MINY=0.88623881
##XFACTOR=1
##YFACTOR=9.3340746e-010
##NPOINTS=2559
##FIRSTY=0.99884474
##XYDATA=(X++(Y..Y))
3997+1070105803+1070488690+1071027579+1071513340+1071793672+1071771322
3989+1071529176+1071348844+1071325281+1071204527+1070830261+1070459188
3980+1070386327+1070508102+1070428217+1069878344+1069032174+1068484983
3972+1068737155+1069650502+1070616021+1071196545+1071343480+1071147950
3963+1070796544+1070623428+1070778281+1070950057+1070780133+1070353632
3955+1070003695+1069867871+1069873555+1069955036+1070054653+1070048715
3946+1069854142+1069533771+1069230386+1069057398+1069018828+1069031216
3938+1069063017+1069203247+1069492136+1069722916+1069597117+1069219658
3929+1069139326+1069612571+1070217361+1070368447+1070017935+1069610464
3921+1069441434+1069502737+1069733325+1069927386+1069711549+1069079173
3912+1068580258+1068715699+1069368573+1069978599+1070124130+1069764678
3904+1069136517+1068546222+1068125021+1067838814+1067738686+1067910142
3895+1068191368+1068253182+1068089261+1068321892+1069418637+1070767936
3887+1071343480+1070840606+1069989583+1069542456+1069323362+1068963400
3878+1068593221+1068425021+1068389261+1068487282+1068873936+1069409505
3870+1069580770+1069197372+1068700054+1068476043+1068538751+1068712442
3861+1068776235+1068615699+1068371573+1068326745+1068565188+1068732110
3853+1068303693+1067569081+1067226105+1067375914+1067936323+1068794243
3844+1069619212+1069915126+1069387922+1068267741+1067304649+1067257715
3836+1067983258+1068600373+1068634345+1068385430+1068383578+1068693987
3827+1068992136+1069174065+1069467999+1069922086+1070164807+1069809953
3819+1069020488+1068207205+1067677511+1067607460+1067779363+1067924893
3810+1068095136+1068369083+1068614549+1068727001+1068774830+1068716784
3802+1068555481+1068672212+1069156568+1069393924+1069080450+1068807844
3793+1069165252+1069799736+1069966339+1069481281+1068788560+1068338687
3785+1068255928+1068410334+1068548776+1068459568+1068128086+1067732109
3776+1067498839+1067607076+1068049670+1068522723+1068667423+1068505098
3768+1068346413+1068271254+1068183450+1068159376+1068286196+1068361100
3759+1068061994+1067546668+1067584407+1068657525+1070254909+1071054974
3751+1070141435+1068637793+1068087984+1068089516+1067684152+1066815185
3742+1066042962+1065546346+1065361288+1065681723+1066425082+1066992069
3734+1066982810+1066882810+1067361610+1068361484+1069142200+1069037155
3725+1068257652+1067701904+1067738239+1067935621+1067890793+1067590984
3717+1067216399+1066938493+1066801711+1066767867+1066845581+1066959758
3708+1066929489+1066757203+1066553946+1066362950+1066299859+1066577062
3700+1067116080+1067589963+1067945136+1068376043+1068913592+1069320425
3691+1069283132+1068648521+1067759503+1067299541+1067440346+1067764676
3683+1067821253+1067504267+1067173040+1067178596+1067177191+1066526807
3674+1065710139+1065676933+1065983319+1065824060+1065470867+1065612693
3666+1065942387+1065852987+1065441556+1065301326+1065601327+1065798262
3657+1065460650+1065020291+1065112118+1065454455+1065377444+1064884659
3649+1064781977+1065499475+1066521762+1067385301+1067896987+1067943284
3640+1067630001+1067291814+1067100371+1066903244+1066686513+1066883448
3632+1067735685+1068580258+1068347180+1067274445+1066798966+1067140601
3623+1067648775+1068014548+1068242901+1068171637+1067570359+1066757267
3615+1066402924+1066806756+1067620231+1068255992+1068465507+1068360909
3606+1068225468+1068332493+1068680897+1068955929+1068851395+1068432365
3598+1068061930+1067951330+1067957332+1067850244+1067662121+1067533769
3589+1067439196+1067415761+1067737217+1068308418+1068511931+1068075723
3581+1067343091+1066728850+1066330446+1066133703+1066217611+1066592580
3572+1067037216+1067210333+1066887982+1066175529+1065587023+1065614928
3564+1066135682+1066673359+1066935556+1066944879+1066875594+1066795134
3555+1066649540+1066467547+1066434022+1066663589+1066979170+1067078468
3547+1066914419+1066777510+1066859949+1066889962+1066468250+1065566716
3538+1064528847+1063721822+1063335615+1063465500+1064149920+1065211479
3530+1066235491+1066824444+1066815504+1066286768+1065539385+1065035042
3521+1065081211+1065575145+1066152796+1066493218+1066467739+1066119974
3513+1065580956+1065072143+1064908541+1065236384+1065760778+1065995261
3504+1065764545+1065277635+1064800687+1064440214+1064225846+1064147302
3496+1064077378+1063929549+1063948259+1064488745+1065407904+1066055606
3488+1066029488+1065590726+1065164544+1064859499+1064627379+1064482870
3479+1064417864+1064413905+1064605412+1065126166+1065755605+1066044622
3471+1065870356+1065560394+1065402412+1065329232+1065195643+1065093216
3462+1065182871+1065338874+1065261032+1064988682+1064969142+1065412437
3454+1065879232+1065848709+1065431084+1065193088+1065479870+1066101391
3445+1066589004+1066639898+1066253307+1065554136+1064751964+1064234147
3437+1064258413+1064516204+1064478337+1064179294+1064143087+1064559180
3428+1065012501+1065063203+1064750878+1064436957+1064310520+1064245258
3420+1064180380+1064329358+1064832807+1065490407+1065984213+1066128914
3411+1065934469+1065664162+1065680892+1065984469+1066126679+1065789833
3403+1065205796+1064811990+1064692258+1064583509+1064351325+1064216076
3394+1064355220+1064515629+1064356050+1064026676+1063983444+1064311670
3386+1064648771+1064759755+1064798835+1064923995+1064992194+1064823037
3377+1064573228+1064614799+1065073101+1065675784+1066090216+1066206819
3369+1066015567+1065478849+1064771377+1064398068+1064687405+1065276166
3360+1065483510+1065147495+1064728975+1064643854+1064828976+1064943024
3352+1064731594+1064226037+1063741745+1063596215+1063782231+1064012946
3343+1064024185+1063736637+1063254708+1062826866+1062711284+1063025525
3335+1063707071+1064519588+1065130062+1065339130+1065226869+1064995962
3326+1064769908+1064547047+1064231593+1063766330+1063325398+1063230825
3318+1063599536+1064213521+1064750815+1065026166+1065021313+1064798771
3309+1064463202+1064182295+1064073164+1064001261+1063686892+1063097811
3301+1062527057+1062239253+1062240849+1062377248+1062514668+1062681272
3292+1063037466+1063589702+1064040469+1064107072+1063847684+1063518948
3284+1063265691+1063049791+1062800556+1062590467+1062653238+1063138424
3275+1063885041+1064569205+1064998261+1065132360+1064946409+1064461861
3267+1063895641+1063613010+1063819523+1064316203+1064656498+1064582743
3258+1064272525+1064136957+1064376548+1064775910+1064998261+1065001517
3250+1064938874+1064783382+1064411989+1063940532+1063574823+1063286062
3241+1062986125+1062779675+1062759049+1062822970+1062906368+1063114095
3233+1063492895+1063875526+1064061222+1064046216+1063959881+1063845322
3224+1063672205+1063508412+1063467352+1063551196+1063702729+1063874185
3216+1063959179+1063898515+1063843789+1063943214+1064074952+1064063393
3207+1063973930+1063963776+1064020098+1064022844+1063991043+1064139766
3199+1064572015+1064979614+1064913075+1064369843+1063819587+1063628272
3190+1063712946+1063784785+1063734913+1063695258+1063791362+1063975207
3182+1064117864+1064119779+1063889000+1063401515+1062897364+1062827313
3173+1063379165+1064098068+1064287149+1063871886+1063469651+1063461158
3165+1063533891+1063344682+1063033188+1062858603+1062836380+1062890084
3156+1062974248+1063017926+1063010902+1063076802+1063278718+1063445321
3148+1063348258+1063012945+1062713455+1062638743+1062691999+1062629100
3139+1062276609+1061633569+1060907450+1060391996+1060201128+1060190591
3131+1060176862+1060104193+1060004320+1059915878+1059866708+1059912494
3122+1060133311+1060452788+1060538357+1060154767+1059582034+1059357704
3114+1059621306+1060042507+1060350298+1060565177+1060696084+1060569519
3105+1060080055+1059427947+1058981075+1058923795+1059088291+1059182097
3097+1059137972+1059115749+1059227499+1059453362+1059756236+1060057002
3088+1060161600+1059924690+1059439632+1058915366+1058421687+1057908468
3080+1057477944+1057430306+1057862938+1058385416+1058528584+1058327243
3071+1058194356+1058304893+1058418558+1058298060+1058032925+1057831009
3063+1057628583+1057158212+1056419513+1055733752+1055202973+1054521682
3054+1053585282+1052865741+1052844860+1053388347+1053963954+1054264210
3046+1054399970+1054620980+1055005463+1055395885+1055621492+1055748631
3037+1055935285+1056085413+1055943970+1055518554+1055081197+1054762487
3029+1054434900+1053970723+1053385410+1052758780+1052172062+1051732981
3020+1051605267+1051929150+1052626149+1053361782+1053861975+1054205206
3012+1054650098+1055257954+1055882156+1056444609+1056976411+1057402976
3003+1057554061+1057427497+1057239118+1057178774+1057247931+1057333052
2995+1057366194+1057411660+1057551954+1057715684+1057773474+1057778264
2986+1057878647+1058031968+1058033947+1057800869+1057488800+1057364406
2978+1057534330+1057739502+1057565683+1056963703+1056363128+1056168938
2969+1056364596+1056698058+1056999463+1057130945+1056874750+1056191288
2961+1055472641+1055234135+1055593778+1056225899+1056699207+1056756742
2952+1056458019+1056110637+1055920470+1055749206+1055361785+1054800162
2944+1054378897+1054380430+1054782282+1055222577+1055258337+1054710060
2935+1053795691+1052938346+1052397988+1052053735+1051657629+1051246709
2927+1051037641+1051012673+1050969570+1050881639+1050840898+1050807309
2918+1050768867+1050946070+1051515228+1052271232+1052795115+1052885728
2910+1052740006+1052724234+1052999649+1053418551+1053784835+1054055398
2901+1054238220+1054295053+1054232665+1054145883+1054127109+1054221426
2893+1054437965+1054700609+1054857251+1054847033+1054818298+1054961082
2884+1055238796+1055433944+1055468490+1055478388+1055508145+1055396715
2876+1055109805+1054901057+1054919767+1054908081+1054564019+1054049842
2867+1053834899+1054090838+1054500354+1054696139+1054670596+1054621427
2859+1054580366+1054412550+1054083622+1053671489+1053168296+1052543710
2850+1051988345+1051793900+1051970146+1052242624+1052447605+1052678448
2842+1053006737+1053291284+1053367466+1053302076+1053375639+1053816381
2833+1054568936+1055304825+1055697099+1055721683+1055671236+1055831198
2825+1056183817+1056464022+1056459807+1056202144+1055890905+1055702718
2816+1055675259+1055726920+1055737137+1055613190+1055337009+1054982027
2808+1054697927+1054662550+1054983943+1055591224+1056245439+1056699207
2799+1056848313+1056753358+1056566512+1056443587+1056478262+1056660829
2791+1056848441+1056832349+1056542374+1056153038+1055882603+1055767341
2782+1055716511+1055678580+1055666575+1055705719+1055799972+1055902143
2774+1055943842+1055922514+1055898504+1055876218+1055770534+1055520981
2765+1055198822+1054971555+1054967915+1055171747+1055451377+1055706038
2757+1055961467+1056273281+1056553677+1056611659+1056391735+1056057444
2748+1055779730+1055577175+1055427877+1055400546+1055527941+1055646907
2740+1055559614+1055326983+1055220150+1055395438+1055788861+1056262808
2731+1056665235+1056846972+1056794354+1056655912+1056570663+1056583562
2723+1056714022+1056935095+1057104380+1057068620+1056868811+1056757892
2714+1056923729+1057226411+1057350868+1057229795+1057122388+1057261788
2706+1057605083+1057929285+1058053934+1058030052+1058134139+1058554957
2697+1059128265+1059517027+1059553170+1059281139+1058819006+1058302721
2689+1057869579+1057633053+1057673091+1057955531+1058228520+1058193845
2680+1057858979+1057546526+1057494036+1057643908+1057845441+1058036885
2672+1058192823+1058266195+1058219069+1058051955+1057842504+1057720026
2663+1057699528+1057635288+1057474687+1057391545+1057499847+1057630754
2655+1057602721+1057528135+1057624751+1057852785+1057956233+1057791801
2646+1057441162+1057070664+1056818684+1056761979+1056865044+1056995121
2638+1057028901+1056924303+1056738352+1056623281+1056737585+1057116449
2629+1057640843+1058118175+1058443973+1058733693+1059110960+1059346209
2621+1059089376+1058508788+1058180244+1058274944+1058391355+1058220921
2612+1057894356+1057648314+1057522516+1057431711+1057327880+1057220983
2604+1057126092+1057050868+1056982349+1056812362+1056410190+1055913957
2595+1055746779+1056127559+1056774239+1057271813+1057502210+1057529796
2587+1057329157+1056880944+1056370471+1056028197+1055852910+1055730560
2578+1055741032+1056083242+1056724622+1057335926+1057601635+1057529987
2570+1057458020+1057692120+1058159746+1058543718+1058733820+1058945443
2561+1059404000+1060052979+1060521690+1060380438+1059596912+1058706234
2553+1058331393+1058563961+1058921816+1058849146+1058228711+1057500485
2544+1057229476+1057474559+1057729477+1057573282+1057135989+1056761212
2536+1056476665+1056108529+1055795374+1055999972+1056852656+1057776667
2527+1058107830+1057948315+1057984713+1058486310+1058989759+1059111790
2519+1059122391+1059361280+1059572008+1059325073+1058744804+1058252530
2510+1057868621+1057356935+1056858339+1056808850+1057314470+1058047676
2502+1058702914+1059209939+1059528904+1059508662+1059078904+1058459427
2493+1058034394+1058025965+1058357383+1058762045+1058942058+1058757320
2485+1058366195+1058060959+1057921878+1057783372+1057571686+1057504828
2476+1057845058+1058465493+1058855021+1058730564+1058464344+1058626157
2468+1059237844+1059734460+1059569071+1058755723+1057937012+1057878583
2459+1058703488+1059710769+1060121051+1059886632+1059617985+1059838675
2451+1060478140+1061028907+1061037208+1060421371+1059486120+1058705404
2442+1058370091+1058392121+1058566579+1058912939+1059486440+1059964410
2434+1059850616+1059123157+1058353105+1058109809+1058472134+1059121560
2425+1059663898+1059811919+1059503106+1058992825+1058716068+1058923667
2417+1059466772+1059930310+1059943656+1059431842+1058706490+1058256872
2408+1058332287+1058751956+1059194996+1059535801+1059787526+1059907130
2400+1059834397+1059609811+1059348444+1059189313+1059251573+1059483566
2391+1059573988+1059219709+1058523475+1057997549+1058115301+1058888163
2383+1059893273+1060658280+1060939060+1060662112+1059837270+1058669836
2374+1057572133+1056866960+1056660063+1057102145+1058321879+1059791293
2366+1060346849+1059473285+1058091993+1057373282+1057258786+1056901889
2357+1056101505+1055482794+1055518937+1056049142+1056696589+1057297739
2349+1057848315+1058264790+1058342185+1058039758+1057722963+1057725198
2340+1057867536+1057797485+1057536884+1057403423+1057494164+1057515300
2332+1057203997+1056698185+1056246844+1055777303+1055136944+1054572065
2323+1054601248+1055427239+1056621493+1057453806+1057521814+1057066194
2315+1056622132+1056430944+1056432987+1056698632+1057353423+1058111661
2306+1058418558+1058066834+1057295951+1056385222+1055531900+1055030303
2298+1055164084+1055811275+1056440778+1056697036+1056844418+1057342056
2289+1058041865+1058239631+1057661469+1056969259+1056920536+1057319770
2281+1057328199+1056761979+1056459488+1057109042+1058247166+1058845890
2272+1058598954+1058175007+1058310384+1058976349+1059473030+1059241612
2264+1058482671+1057816514+1057494036+1057334265+1057341928+1057751380
2255+1058370921+1058494740+1057657957+1056098312+1054565999+1053928833
2247+1054572576+1055879410+1056722962+1056610382+1055974494+1055507890
2238+1055617724+1056226218+1056872132+1057326219+1057944100+1058919708
2230+1059676797+1059682417+1059338355+1059301637+1059355086+1058717665
2221+1057321750+1056059807+1055686818+1056121173+1056932541+1057864662
2213+1058740462+1059466005+1060072456+1060314921+1059787973+1058841994
2204+1058505978+1059118240+1059895189+1059990910+1059274306+1058210193
2196+1057517216+1057675518+1058605340+1059930118+1061172202+1061635357
2187+1060955726+1059801063+1059105724+1058817090+1058401253+1058072517
2179+1058322198+1058734778+1058436247+1057443653+1056721557+1056929923
2170+1057602848+1057716194+1056971685+1056231327+1056389117+1057210319
2162+1058053104+1059319326+1061813646+1064770546+1066498837+1066666079
2153+1066166908+1065508734+1064530891+1063367607+1062744554+1063105921
2145+1064059115+1064853241+1064942705+1064212436+1063247556+1063050876
2136+1063875079+1064740853+1064575335+1063262051+1061435548+1059979735
2128+1059657129+1060541166+1061813646+1062495511+1062324694+1061753429
2119+1061184335+1060414155+1059089249+1057616322+1057039118+1057776795
2111+1059049019+1059866006+1060119838+1060291805+1060417092+1059999084
2102+1059052339+1058511087+1059083502+1060307513+1061290720+1061768690
2094+1061893148+1061633441+1060930886+1059963771+1058989759+1058218941
2085+1057861278+1057991674+1058364918+1058597996+1058541419+1058288545
2077+1057926923+1057590907+1057659553+1058432734+1059566580+1060161792
2068+1059538419+1057980371+1056777560+1057131519+1058763003+1060183822
2060+1060516071+1060286952+1060270732+1060364282+1059966006+1058901190
2051+1057594547+1056583243+1056147035+1056307444+1056928071+1057692120
2043+1058220921+1058334458+1058081457+1057643908+1057371622+1057727306
2034+1058957639+1060725266+1062161922+1062597491+1062319457+1062248704
2026+1062805857+1063478910+1063432550+1062273480+1060442060+1058863259
2017+1057973347+1057482925+1057334010+1058034969+1059850872+1062462625
2009+1065210202+1067163078+1067657907+1067095326+1066228914+1065039832
2000+1063502026+1062582549+1063040978+1064028144+1064359179+1064277506
1992+1064559052+1064759180+1064007838+1062767862+1062165562+1062082356
1983+1061122329+1058460385+1054991350+1052495306+1051913632+1052646583
1975+1053580812+1054249906+1054821108+1055660125+1056955082+1058328073
1966+1059066388+1058999785+1058687652+1058693271+1059157001+1059887270
1958+1060485164+1060483631+1059789569+1059003361+1058841994+1059151254
1949+1059079542+1058396655+1057819387+1057775518+1057883308+1058044547
1941+1058828904+1060192060+1061125778+1061021882+1060465177+1060214793
1932+1060089761+1059566197+1058980436+1059206810+1060298382+1061307196
1924+1061474756+1061032930+1060663772+1060601064+1060547361+1060261920
1915+1060019327+1060198509+1060586377+1060484270+1059585737+1058368814
1907+1057396271+1056768747+1056447930+1056526474+1056957126+1057390204
1898+1057478646+1057172963+1056715491+1056472962+1056672451+1057178454
1890+1057593653+1057644547+1057392184+1057041034+1056808658+1056891098
1881+1057286500+1057780435+1058253168+1058806298+1059531586+1060313708
1873+1060857131+1060839060+1060222520+1059534588+1059428649+1059883567
1864+1060366901+1060449085+1060102979+1059725520+1059739824+1060070859
1856+1060308280+1060339889+1060357705+1060302405+1059892060+1059221561
1847+1058788546+1058835481+1059061535+1059106809+1059025711+1058995954
1839+1059069708+1059320284+1059822902+1060380374+1060546722+1060057066
1830+1059186631+1058537268+1058305531+1058171559+1057849592+1057372197
1822+1056962362+1056747355+1056579347+1056141480+1055339754+1054385347
1813+1053414528+1052410504+1051527425+1051051498+1050990898+1051147986
1805+1051504053+1052180427+1053097350+1053953035+1054610635+1055219575
1796+1055879283+1056449845+1056710765+1056677113+1056690970+1056955785
1788+1057297931+1057493014+1057543333+1057601316+1057681967+1057684713
1779+1057675773+1057825135+1058054062+1058042696+1057650039+1057210447
1771+1057092439+1057129668+1057075070+1057005785+1057025070+1057055019
1762+1057056743+1057157701+1057389949+1057581009+1057609745+1057538097
1754+1057458787+1057402465+1057454125+1057742504+1058169260+1058458660
1745+1058527179+1058506362+1058425838+1058155148+1057792376+1057702912
1737+1057937523+1058086502+1057808723+1057408340+1057272005+1057314981
1728+1057461533+1057755403+1058091802+1058263449+1058280627+1058376413
1720+1058677051+1059022518+1059068367+1058736055+1058323603+1058034203
1711+1057851763+1057678263+1057419195+1057028007+1056619067+1056408466
1703+1056358083+1056160254+1055728644+1055392117+1055177174+1054884709
1694+1054684326+1054702844+1054752780+1054820916+1055199269+1055945758
1686+1056599846+1056658211+1056446972+1056638160+1057194993+1057803423
1677+1058234011+1058422390+1058542952+1058732224+1058735864+1058213896
1669+1057437778+1057108148+1057307382+1057647420+1057881329+1058007063
1660+1058062491+1058088673+1058250614+1058708725+1059256490+1059170028
1652+1058502275+1058159937+1058104573+1057927881+1057745760+1058049209
1643+1058690398+1059136886+1059169645+1058942441+1058602850+1058093143
1635+1057553678+1057376603+1057585415+1057946782+1058272900+1058493462
1626+1058630436+1058691547+1058674242+1058684012+1058812301+1058932416
1618+1058826285+1058534842+1058357639+1058266706+1057946335+1057229540
1609+1056211786+1055084390+1053901438+1052496456+1050602839+1048086999
1601+1045083419+1041873772+1038786347+1036333726+1035220123+1035877404
1592+1037980344+1040648674+1043102892+1045071030+1046661199+1047977995
1584+1048992364+1049732850+1050364652+1050936747+1051151051+1050616121
1575+1049712863+1049404497+1049880424+1050746134+1051588919+1052160759
1567+1052484770+1052725511+1053056737+1053540646+1053960889+1053792498
1558+1053012931+1052682599+1052984962+1053461080+1053882856+1054194223
1550+1054374236+1054350417+1053865359+1052532599+1050264779+1047458901
1541+1044498807+1042067450+1041330029+1042106275+1043521475+1045095488
1533+1046554877+1047729335+1048583360+1048982785+1048687383+1047745300
1524+1046497469+1045116497+1043803915+1043100083+1043300466+1044302575
1516+1045915604+1047802388+1049609798+1051219698+1052672893+1053857249
1507+1054329472+1054142052+1054206100+1054674747+1055125322+1055238094
1499+1054778196+1053407568+1051063248+1048353346+1045736932+1042974029
1490+1039598609+1035775552+1032464308+1030411368+1029733909+1030271329
1482+1031784103+1033957861+1036408056+1038741201+1040624409+1041909213
1473+1042711065+1043274795+1043768794+1044224861+1044562154+1044646700
1465+1044508897+1044476266+1044782652+1045290954+1045613304+1045277033
1456+1044401872+1043766559+1043511833+1043277477+1042780478+1041890630
1448+1040639926+1039250269+1037805503+1035922103+1033249047+1030366029
1439+1028834035+1030316285+1034874082+1039936860+1043471411+1045767136
1431+1047505069+1048821419+1049710628+1050356797+1050966568+1051574488
1422+1052067208+1052407567+1052769955+1053307057+1053840455+1054157888
1414+1054318425+1054529153+1054920597+1055428643+1055870087+1056084328
1405+1056009551+1055717852+1055350546+1055002845+1054729409+1054514274
1397+1054109548+1053100096+1051349583+1049281700+1047497854+1046388976
1388+1046100470+1046409730+1046789807+1046907623+1046803664+1046688721
1380+1046819245+1047400855+1048457689+1049793067+1051064781+1051991474
1371+1052544093+1052852331+1053056482+1053305077+1053697862+1054170979
1363+1054569383+1054899396+1055341734+1055921237+1056370918+1056228900
1354+1054833879+1051240324+1044506342+1034512012+1022641626+1011477051
1346+1003644601+1000611327+1002118992+1006593647+1011999082+1016648003
1337+1019977701+1022556632+1025169918+1028137035+1031315009+1034405115
1329+1037190879+1039572555+1041496888+1042948358+1044023647+1044890953
1320+1045562474+1045766561+1045188336+1043848296+1042138779+1040518789
1312+1039239349+1038344201+1037845989+1037795605+1038222745+1039110933
1303+1040386988+1041885266+1043391207+1044750213+1045897724+1046826844
1295+1047585402+1048239106+1048789362+1049169312+1049340385+1049367843
1286+1049388086+1049526081+1049818355+1050159798+1050327168+1050171293
1278+1049814332+1049559287+1049606477+1049948112+1050464588+1050986556
1269+1051359098+1051571359+1051751627+1051964654+1052106289+1052056481
1261+1051877106+1051798306+1051985344+1052338218+1052583684+1052563186
1252+1052352011+1052092113+1051794603+1051356288+1050710246+1049911650
1244+1049105710+1048456539+1048098174+1048084253+1048335722+1048653730
1235+1048845748+1048877932+1048906348+1049151240+1049728508+1050560757
1227+1051427042+1052133173+1052670211+1053173468+1053692817+1054094223
1218+1054233112+1054115934+1053792498+1053178002+1052026659+1049917972
1210+1046261262+1040735648+1034151795+1028674073+1026565066+1028436525
1201+1032896110+1037866934+1042014960+1045075309+1047351366+1049171036
1193+1050671357+1051860248+1052735536+1053292178+1053496521+1053276980
1184+1052440900+1050603413+1047397726+1042851551+1037592093+1032838574
1176+1030169222+1030789593+1034549943+1039821279+1044668284+1048119694
1167+1050301050+1051667974+1052389367+1052322317+1051283044+1049265417
1159+1046542233+1043749189+1041873133+1041847974+1043862025+1047127100
1150+1050469761+1053084132+1054737391+1055573407+1055904634+1056021173
1142+1056060190+1056070471+1056139117+1056362170+1056729539+1057101634
1133+1057297420+1057209553+1056900868+1056625452+1056675708+1057094035
1125+1057572133+1057781073+1057759043+1057805658+1058059682+1058397805
1116+1058718303+1059109300+1059658343+1060200617+1060415176+1060226862
1108+1059943017+1059793209+1059486120+1058522198+1056849527+1054981325
1099+1053602587+1053233877+1054015423+1055554123+1057164278+1058416898
1091+1059328393+1060022200+1060460068+1060556109+1060363452+1060002660
1082+1059360769+1057882925+1054719000+1049082530+1040632710+1029960026
1074+1018899986+1009965363+1005106416+1004961078+1008971875+1015751642
1065+1023489392+1030613539+1036358822+1040699249+1043917261+1046376779
1057+1048467076+1050421038+1052170529+1053531131+1054501503+1055254697
1048+1055913638+1056501825+1057073346+1057747421+1058576157+1059408023
1040+1059976734+1060181715+1060216262+1060392379+1060928459+1061849086
1031+1062934848+1063862755+1064542257+1065210074+1066141046+1067401712
1023+1068862314+1070242393+1071137924+1071178346+1070135752+1067592772
1014+1062662561+1054990520+1046193637+1038640945+1031844959+1021913464
1006+1006248372+987629126+972237789+964209426+962638479+963315108+963114724
996+962775963+965230564+971795196+980950509+990320636+998510239+1005134386
986+1010226028+1014011026+1016862052+1019166142+1021209057+1023234538
977+1025486904+1027946103+1030110282+1031314434+1031210986+1029884483
969+1027841505+1026030838+1025422600+1026263342+1027967303+1029876437
960+1031886274+1034198155+1036766996+1039260486+1041390438+1043028180
952+1044095103+1044565730+1044578118+1044434886+1044435270+1044698361
943+1045179843+1045824927+1046598874+1047414201+1048192427+1048922632
935+1049556349+1049979977+1050166376+1050187896+1050046644+1049610819
926+1048719311+1047363307+1045891274+1044939740+1044933929+1045663751
918+1046480164+1046858261+1046698363+1046190381+1045573521+1045026969
909+1044610940+1044197147+1043633991+1043149061+1043395677+1044828629
901+1047106665+1049334574+1050857437+1051677489+1052194667+1052716060
892+1053178768+1053238411+1052675830+1051750286+1051048369+1050936875
884+1051249838+1051547540+1051603542+1051605969+1051919060+1052658525
875+1053505078+1053983175+1053989114+1053965295+1054432218+1055458145
867+1056730306+1057898890+1058605340+1058434203+1057097803+1054515105
858+1050812481+1046651748+1043369368+1042152380+1042973326+1044601298
850+1045627225+1045389102+1044200659+1043006787+1042740312+1043677670
841+1045206088+1046249193+1046070074+1044813495+1043380734+1042686800
833+1042838780+1043161066+1043191590+1043347209+1044404810+1046696895
824+1049963502+1053569893+1056779412+1059149338+1060758855+1061987018
816+1063135359+1064124824+1064304262+1062634337+1058384139+1051842304
807+1044201808+1036403202+1028131033+1018217673+1005684961+990216869+972939770
798+957623593+949466174+951068539+960348054+973033512+986001793+997752447
788+1007430238+1014808601+1020614100+1025923048+1031257410+1036427851
779+1040953975+1044424095+1046716243+1048132657+1049214076+1050248815
771+1051061013+1051394347+1051334513+1051109991+1050543452+1048991406
762+1045906600+1041322494+1035828361+1030238060+1025201718+1020920997
754+1017214351+1013833823+1010604444+1007335219+1003773848+999660432+994878944
744+989815910+985728421+984524141+987582255+994322749+1002114522+1008107123
734+1011340269+1013017858+1014991424+1018277124+1022752290+1027628989
725+1031870182+1034291769+1033561564+1028340803+1018012692+1004054116+990501416
715+981971647+980688120+985529634+993583476+1001577421+1006303928+1005903225
705+1001300217+994959404+987923826+979350187+969310582+960919064+958712483
696+964788162+976817617+990088899+1001183614+1009422450+1015579228+1020368379
686+1024260976+1027716345+1030859453+1033207796+1034097197+1033293364
677+1031200066+1028712515+1026859894+1026285756+1026997059+1028636972
669+1030199937+1029520498+1025792332+1020721700+1016673290+1016032421
660+1019728850+1026182946+1032914117+1038252694+1041546313+1042980414
652+1043400019+1043488972+1042815536+1040457870+1037016677+1035072869
643+1036752820+1041319748+1046061453+1049146515+1050638471+1051211716
635+1051205777+1050977871+1051171422+1052164335+1053536368+1054355462
626+1053954057+1052380300+1050325444+1048826016+1048712287+1049933936
618+1051646838+1053227044+1054813636+1056589565+1058070793+1058549082
609+1058022325+1057287331+1057064150+1057336500+1057641035+1057625070
601+1057165172+1056379475+1055746205+1055794225+1056470535+1057136500
592+1057330817+1057212618+1057092630+1056977624+1056852911+1056897803
584+1057105402+1057192120+1057131519+1057157892+1057108467+1056416704
575+1054752525+1052157119+1048819822+1045313496+1042776774+1042209085
567+1043478946+1045414964+1047019564+1048256731+1049427997+1050237832
558+1050094537+1049061266+1047858454+1047084443+1046886933+1047113115
550+1047392681+1047427164+1047544597+1048515224+1050402328+1052068230
541+1052310312+1051079595+1049150985+1047022885+1044471221+1040771855
533+1035273507+1028183587+1020727000+1014485740+1011046718+1011686310
524+1016133188+1022362890+1028521199+1034290237+1040263616+1046497852
516+1051957885+1055462168+1056877751+1057146717+1057262682+1057505402
507+1057755722+1058137396+1058940781+1060022456+1060671307+1060394614
499+1059593592+1059098508+1059403745+1060488037+1061968882+1063270353
490+1063995641+1064230188+1064291682+1064329933+1064155539+1063175270
482+1060872521+1057718621+1055090712+1053881770+1053458845+1052122253
473+1048121290+1040484115+1029867561+1018918121+1011800551+1012243782
465+1020575786+1033107093+1044708131+1051905586+1054059485+1052820977
456+1051036109+1050740961+1051663057+1051359609+1047156218+1039466106
448+1032613989+1031422480+1036885515+1045428502+1052054373+1054170851
439+1053157184+1052572509+1054759996+1058391738+1060049786+1058687716
431+1056814278+1057005913+1058785353+1059962366+1060003299+1060648382
422+1063308859+1067229617+1069492711+1066984981+1060651958+1053470659
414+1046567776+1040179772+1035552243+1034628424+1037153267+1039366872
405+1037950012+1034453072+1033223058+1036639857+1044366432+1054409932
397+1062841361+1066053881+1064346344+1060946403+1059005404+1059766197
388+1062711157+1066633703+1070013274+1071343480+1072636458+1073175156
380+1073741823+1073097633+1069789263+1066891878+1071343480
##END=
