##TITLE=X8136
##JCAMP-DX=4.24
##DATA TYPE=INFRARED SPECTRUM
##DATE=30/10/2018
##SAMPLING PROCEDURE=Diamant-ATR
##ORIGIN=ComPlat
##XUNITS=1/CM
##YUNITS=TRANSMITTANCE
##RESOLUTION=4
##FIRSTX=3997.453
##LASTX=373.96442
##DELTAX=-1.4165319
##MAXY=0.99597132
##MINY=0.30919576
##XFACTOR=1
##YFACTOR=9.2757058e-010
##NPOINTS=2559
##FIRSTY=0.98294109
##XYDATA=(X++(Y..Y))
3997+1059694125+1059899754+1060108402+1060095294+1059964013+1059803044
3989+1059648052+1059743733+1060348152+1061224322+1061807407+1061936118
3980+1061884839+1061676447+1061014517+1059960607+1059100952+1058896416
3972+1059216361+1059639441+1059967932+1060307091+1060725930+1061000958
3963+1060863573+1060431560+1060119583+1060119969+1060268214+1060352201
3955+1060229530+1059800153+1059175363+1058776701+1058977189+1059532771
3946+1059692519+1059207107+1058872961+1059600564+1061013681+1061909900
3938+1061848019+1061133846+1059983033+1058666754+1057932275+1058263594
3929+1059048773+1059366341+1058946795+1058125181+1057482013+1057280755
3921+1057131160+1056554886+1055793097+1055771635+1056982529+1058841089
3912+1060523193+1061723935+1062261846+1061505519+1058909332+1055130717
3904+1052056058+1051002919+1051621925+1053329091+1055804214+1058162515
3895+1059390823+1059178191+1058112714+1057500649+1058042801+1058846101
3887+1058743865+1057543059+1055931640+1054416929+1053296961+1053485240
3878+1055211683+1056961260+1057301510+1056106231+1054197614+1052609456
3870+1052501436+1054381587+1056817384+1057998462+1057658661+1056990562
3861+1057008297+1057458880+1057643689+1057002964+1054924703+1051270943
3853+1048735159+1050698911+1055021862+1058651397+1060632498+1060924683
3844+1059816089+1057890507+1055813853+1054031504+1053050271+1053502333
3836+1055138107+1056902398+1058151462+1058838004+1059168681+1059441716
3827+1059896605+1060446790+1060529169+1059473846+1057368275+1055761611
3819+1055839235+1056722731+1057604748+1058749263+1060153769+1061017280
3810+1060650362+1059066702+1057276963+1056633539+1056735454+1055852408
3802+1053869636+1053082015+1054798049+1057610274+1060187569+1062103126
3793+1063219624+1063580759+1063373460+1062812609+1062143224+1061601843
3785+1061279328+1061034309+1060563677+1059708391+1058832414+1058586624
3776+1059046910+1059741934+1060263523+1060345903+1059868331+1059094140
3768+1058512276+1058381959+1058754982+1059387353+1059587713+1058780043
3759+1057249782+1056113299+1055991015+1056150120+1055292007+1052682454
3751+1049493221+1048329493+1049132857+1049691974+1049028630+1048058963
3742+1048230727+1049019441+1048751352+1046379686+1042441837+1039357925
3734+1039249649+1041664498+1045072596+1048217618+1050088837+1050396380
3725+1050002858+1050144099+1051155663+1052660092+1054341554+1055939608
3717+1057045439+1057162775+1055891992+1053437945+1051473551+1052089730
3708+1054729420+1057118951+1057964726+1057348034+1056197671+1055669271
3700+1056168562+1057112204+1057886395+1058387678+1058830422+1059328171
3691+1059658076+1059512851+1059038364+1058706659+1058617404+1058557836
3683+1058255112+1057458302+1056162393+1054544483+1052685988+1051200901
3674+1051281096+1052115626+1051689397+1050259958+1050907623+1054948222
3666+1059687635+1062485081+1062699577+1061247969+1059289487+1057208656
3657+1055296441+1054582203+1055297019+1055629430+1053703463+1049460642
3649+1045517910+1045070475+1047746986+1051466868+1054832684+1057001807
3640+1057767259+1057628010+1057121907+1056253641+1054785390+1052693635
3632+1049965203+1046481086+1043355727+1043305155+1046155358+1048996950
3623+1050466165+1050724871+1050266705+1049743638+1049979275+1050941938
3615+1051734057+1052004330+1052252497+1052721587+1053197874+1053997833
3606+1055448477+1056666568+1056594149+1055360442+1053961462+1053122498
3598+1052639657+1051835008+1050551950+1049619940+1049710866+1050074828
3589+1049492707+1048261507+1048589163+1051404730+1054730448+1056580076
3581+1056712963+1056245159+1056211615+1056539079+1056762057+1056976874
3572+1057247854+1056836533+1054973283+1052224995+1050660548+1051487817
3564+1053425415+1055083358+1056330880+1057486576+1058536694+1059001929
3555+1058366730+1056738345+1055118315+1054552901+1054849520+1054944109
3547+1054428239+1054079506+1054823174+1056682247+1059027440+1060977118
3538+1061592461+1060611935+1059001415+1058004824+1057785251+1057618628
3530+1056950657+1055845533+1054797599+1054437042+1055218752+1056991911
3521+1058800991+1059532514+1058965108+1058008936+1057710968+1058051861
3513+1058029371+1056964730+1055425665+1054597240+1054775944+1055048851
3504+1054578155+1053625260+1053034592+1052918284+1052561326+1051571675
3496+1050453120+1049839448+1049484996+1048513338+1046571627+1044253488
3488+1042352582+1040982197+1039545240+1037409789+1034524308+1031416171
3479+1028570595+1026047855+1023843583+1022137189+1020885811+1019592923
3471+1017838591+1015700698+1013458320+1011243188+1009148220+1007358739
3462+1006031086+1005210822+1004819228+1004566626+1004028972+1002956106
3454+1001407339+999586306+997696903+995853701+993943863+991701678+989076446
3444+986378022+983942739+981740395+979359346+976524245+973571935+971116989
3434+969287281+967676825+966026786+964574921+963700357+963455724+963447113
3424+963114959+962246243+961231467+960687708+960846813+961412163+961929833
3414+962174595+962238275+962340832+962640150+963218609+964095550+965165910
3404+966168734+966767498+966764092+966333558+965921530+965777397+965743404
3394+965625425+965546836+965763260+966297187+966899679+967285168+967338181
3384+967184795+967193727+967803223+969038792+970250715+970743580+970608058
3374+970467203+970616541+970853656+970928710+970872419+971060826+971853652
3364+973012304+973975866+974852743+976272414+978113688+979397066+979680577
3354+979657893+980096589+980951681+981793023+982500128+983241675+984134167
3344+985151320+986187752+987111987+987826289+988236132+988248213+988075614
3335+988394723+989743131+991852365+993909356+995342971+996183092+996836155
3325+997680966+998806653+1000012150+1000979760+1001549801+1001950455+1002620932
3315+1003713975+1004998510+1006190770+1007050489+1007379623+1007358932
3306+1007618088+1008590453+1009998944+1011136518+1011556707+1011479275
3298+1011489492+1011826080+1012257900+1012699551+1013439235+1014602964
3289+1015851835+1016767460+1017254928+1017513955+1017836342+1018494353
3281+1019644844+1021151329+1022520750+1023295326+1023607689+1024073566
3272+1025025175+1026149192+1026997216+1027510580+1027892664+1028323070
3264+1029021756+1030230916+1031792471+1033061262+1033556634+1033456454
3255+1033240866+1033129698+1033045647+1032926833+1032961211+1033511074
3247+1034688297+1036012030+1036798366+1037048718+1037510483+1038562658
3238+1039583795+1039918070+1039922889+1040352267+1041170990+1041681334
3230+1041467287+1040724712+1039976867+1039753567+1040207299+1040857599
3221+1041036946+1040698109+1040462793+1040743411+1041240389+1041530390
3213+1041702925+1042072992+1042619256+1043056152+1043256383+1043358298
3204+1043513933+1043665584+1043702725+1043820190+1044429108+1045657095
3196+1047193010+1048550158+1049292734+1049282324+1048844207+1048368498
3187+1047890476+1047433210+1047349738+1047855391+1048630803+1049191590
3179+1049332767+1049142303+1048828335+1048559732+1048391567+1048334955
3170+1048442332+1048787273+1049335723+1049838420+1050045205+1050056386
3162+1050108821+1050057800+1049560950+1048627526+1047511991+1046410466
3153+1045591615+1045271670+1045195009+1044919981+1044424866+1043912787
3145+1043381945+1042815053+1042326557+1041893516+1041407398+1040988109
3136+1040798931+1040692518+1040416976+1040014266+1039754017+1039795271
3128+1040084436+1040485155+1040894548+1041233578+1041429824+1041493698
3119+1041539000+1041648819+1041843459+1042188979+1042695660+1043075301
3111+1042901738+1042168994+1041487657+1041474934+1041955591+1042028139
3102+1041094393+1039542734+1038124990+1037068317+1036237900+1035688486
3094+1035482729+1035320476+1034875612+1034315724+1034155848+1034627187
3085+1035325809+1035544289+1034950602+1033819645+1032578999+1031359173
3077+1030097964+1028901271+1028086211+1027809513+1027782845+1027575867
3068+1027150666+1026830336+1026893824+1027473824+1028616733+1030156311
3060+1031791121+1033352355+1034681036+1035440190+1035556627+1035535550
3051+1035838981+1036297275+1036530792+1036572946+1036700307+1036871749
3043+1036684435+1035914228+1034918408+1034273699+1034089147+1034011972
3034+1033874715+1033916419+1034337636+1035001173+1035656228+1036235844
3026+1036840905+1037503350+1038119207+1038699400+1039398280+1040013623
3017+1039864478+1038645166+1036994612+1035719588+1034873105+1034016021
3009+1032888470+1031450228+1029702322+1027738956+1025666672+1023425515
3000+1020925330+1018242779+1015501688+1012732516+1009962766+1007308296
2992+1004885929+1002650684+1000366216+997865711+995270359+992706494+990022850
2982+987194881+984732160+983231844+982823350+983345325+984566115+985906684
2972+986480130+985802520+984171565+982139892+979871361+977229036+974315988
2962+971560953+969227842+967198932+965343521+963749580+962482973+961407215
2952+960288404+958846435+956779355+953970085+950560895+946608910+941843728
2942+936061586+929645658+923416145+918047059+913810728+910591358+907812869
2932+904681984+900956511+897302237+894655349+893449467+893557936+894778726
2922+897224355+901179939+906549732+912622068+918572761+924072743+929297568
2912+934540193+939884796+945092721+949810929+953982487+957929974+961950267
2902+965984247+969724113+972909747+975528168+977843801+980227098+982867496
2893+985639431+988238895+990446895+992284120+993916039+995397142+996587537
2883+997382034+997862948+998068447+997758206+996648069+994804610+992609077
2873+990445160+988605364+987272506+986258437+984892164+982539647+979223825
2863+975489034+971722564+967896012+963940943+960096334+956863406+954824407
2853+954451770+955850429+958664004+962380673+966711464+971622706+977080919
2843+982815510+988350577+993373565+997978935+1002343012+1006339272+1009794022
2833+1012890979+1015932480+1018884854+1021507002+1023786200+1025976207
2825+1028231629+1030390406+1032184643+1033557791+1034660987+1035664518
2816+1036731986+1038005854+1039432144+1040765966+1041866271+1042816724
2808+1043747835+1044702658+1045627086+1046372682+1046788886+1046879170
2799+1046822751+1046860792+1047181380+1047820755+1048607284+1049257263
2791+1049623538+1049842275+1050140629+1050544818+1050925680+1051254364
2782+1051593266+1051912375+1052122309+1052197813+1052133747+1051899845
2774+1051531384+1051198331+1051135357+1051473423+1052118903+1052869640
2765+1053633614+1054393475+1055022633+1055336731+1055292392+1055011131
2757+1054687909+1054495646+1054472899+1054522892+1054590621+1054724151
2748+1054915642+1055053349+1055105784+1055169465+1055233595+1055090234
2740+1054663041+1054290789+1054426054+1055072884+1055730252+1055917053
2731+1055594794+1055043453+1054522185+1054120760+1053783722+1053390843
2723+1052938204+1052642163+1052725571+1053135736+1053607460+1053906649
2714+1053930682+1053739319+1053566463+1053644409+1054011391+1054546475
2706+1055047373+1055244391+1054993524+1054479582+1054013962+1053692218
2697+1053471745+1053415455+1053547828+1053625581+1053421109+1053126675
2689+1053054063+1053028166+1052598789+1051816951+1051245689+1051152193
2680+1051199230+1051015000+1050659841+1050413216+1050375367+1050417135
2672+1050409296+1050387705+1050472012+1050661126+1050790736+1050748711
2663+1050662090+1050716260+1050842593+1050802881+1050573284+1050433907
2655+1050665881+1051274028+1051929340+1052167097+1051820485+1051237271
2646+1050884169+1050852746+1050910258+1050829420+1050506198+1049935001
2638+1049227061+1048565130+1048098032+1047922220+1048092506+1048513145
2629+1048878457+1048910072+1048649952+1048275773+1047680800+1046625862
2621+1045323206+1044337924+1043790374+1043173618+1042121700+1040828040
2612+1039524035+1038103078+1036537218+1035165162+1034247802+1033592619
2604+1032824982+1031717288+1030138126+1028051961+1025764024+1023877062
2595+1022714041+1021901616+1020810500+1019315131+1017757303+1016271831
2587+1014644025+1012821708+1011063649+1009507235+1007913100+1005962908
2578+1003699710+1001553142+999856065+998513312+997334418+996357491+995539025
2568+994610870+993647886+993190492+993312005+993093846+991545914+988714925
2558+985478141+982597737+980359857+978776069+977668310+976737520+975835647
2548+975006450+974223006+973488784+973186446+973753209+974927347+975828128
2538+975887118+975376324+974984602+975104252+975574113+976036520+976400354
2529+976802100+977274853+977750625+978198189+978415898+978052514+977298564
2519+977093771+978052514+979602374+980715337+981085404+981185327+981593756
2509+982569142+983920120+985126774+985807853+985982830+985743273+985046386
2499+984078840+983426869+983561877+984364599+985304963+985906427+986011169
2489+985872048+986070608+987107296+988948635+991072262+992898499+994078614
2479+994630726+995039284+995900738+997226335+998466081+999391473+1000453801
2469+1002042795+1003844549+1005199191+1005888110+1006404623+1007414901
2461+1008982240+1010525352+1011577527+1012218766+1012685286+1013074373
2452+1013549632+1014288288+1015107524+1015603025+1015687268+1015642480
2444+1015759045+1016211813+1017079051+1018216497+1019283645+1020086431
2435+1020811207+1021830738+1023332918+1025160440+1026950179+1028359890
2427+1029251482+1029809442+1030404672+1031150846+1031792728+1032230523
2418+1032766892+1033572120+1034360705+1034877861+1035283270+1035882870
2410+1036799715+1037916727+1038941142+1039657179+1040145418+1040561558
2401+1040836908+1040871543+1040804650+1040816666+1040880668+1040956365
2393+1041233256+1041928538+1042882139+1043433159+1042653892+1039846935
2384+1035063505+1029042897+1022388312+1014990445+1006575102+997548979+988785546
2374+980667850+972765100+964466902+955710537+946898075+938243046+929887593
2364+922845398+918643189+917507027+918230647+920354852+924902132+932427553
2354+942077438+952743705+963204150+971315227+974661059+972061401+964874174
2344+957127381+952571105+951618982+952692169+954588384+956829541+959127824
2334+961021276+962215720+963249903+965062196+967698031+970264081+972214209
2325+973940652+976286937+979980537+985274440+991611394+997673512+1002223234
2315+1005056600+1006991307+1009004794+1011615247+1014962042+1019030786
2306+1023580186+1028006016+1031607084+1034204492+1036350803+1038692139
2298+1041284471+1043653696+1045280602+1046043226+1046483592+1047448375
2289+1049206434+1051278975+1053213875+1054902341+1056148513+1056734297
2281+1056858124+1056842124+1056638873+1056133477+1055532720+1055092162
2272+1054836925+1054660535+1054405941+1053954265+1053433126+1053166516
2264+1053304415+1053621790+1053725182+1053466669+1053062545+1052684253
2255+1052290667+1052142486+1052698583+1053596729+1053959727+1054154753
2247+1055635470+1058506750+1060986693+1061901803+1062056539+1062490672
2238+1062893511+1062546898+1061782732+1061560782+1062120348+1062804833
2230+1062950444+1062485017+1061979814+1062291276+1063661340+1065217690
2221+1065858030+1065332906+1064111409+1062792881+1062037004+1062550947
2213+1064625866+1067586658+1070007033+1070900231+1070547900+1069762206
2204+1068803078+1067612875+1066390736+1065256438+1064018812+1062750856
2196+1062108010+1062657809+1063868254+1064067713+1062032249+1058564326
2187+1055795861+1055042297+1056115934+1058427262+1061625876+1065214349
2179+1068383982+1070196018+1069610491+1066216980+1061636928+1058912609
2170+1059444287+1061581280+1062958155+1063081211+1063026527+1064148294
2162+1067344659+1071614533+1073741823+1072110740+1069197564+1067924402
2153+1068764073+1070642489+1072293171+1072881525+1072269524+1070679052
2145+1068307385+1065586536+1062975184+1060236535+1057192463+1055252230
2136+1056417629+1060441135+1064666028+1066966560+1067309766+1066568540
2128+1065369469+1064079151+1063025177+1062656588+1063400963+1064921264
2119+1065969583+1065787281+1065105173+1064876604+1064736584+1063745905
2111+1062106982+1061044590+1061155758+1061746104+1061857208+1061397821
2102+1061038485+1061302075+1062008023+1062540087+1062548312+1062296224
2094+1062228496+1062363503+1062403151+1062287806+1062270649+1062496648
2085+1062723867+1062407585+1061176770+1059606798+1059169644+1060652289
2077+1062954171+1064328154+1064391321+1063953589+1063566173+1063337797
2068+1063562060+1064523887+1065908730+1066815744+1066374093+1064456415
2060+1061915298+1060080000+1059926550+1061373531+1062886892+1062302329
2051+1059149017+1055964219+1056160401+1060222333+1065175600+1068259577
2043+1069621929+1070660610+1071169026+1069770239+1066721026+1064377441
2034+1064358420+1065680033+1066649635+1067154710+1067730726+1068012309
2026+1067859630+1068512821+1070671598+1072561580+1071839824+1068735671
2017+1065870882+1065510646+1067836946+1071025729+1072383069+1070744211
2009+1068107219+1067218583+1067728027+1066918687+1063991952+1061368712
2000+1061853288+1065545025+1069395160+1070095581+1067619430+1065034874
1992+1064774689+1066268194+1067544890+1067327116+1065060449+1060910803
1983+1056237833+1053045131+1052879664+1056329016+1062469980+1068451968
1975+1071405242+1071051882+1068909427+1065761963+1061840243+1058716362
1966+1058377204+1060342626+1062234729+1062944918+1063243465+1063810870
1958+1064233822+1063784846+1062233058+1060163087+1058992868+1060081542
1949+1063219560+1066396712+1067691657+1067042064+1065744998+1064939513
1941+1065015724+1065806301+1066760931+1067244929+1067074836+1066547528
1932+1065908537+1065245514+1064744166+1064450568+1063996579+1063217375
1924+1062740896+1063109613+1063691156+1063652729+1063437398+1063977494
1915+1064789854+1064549012+1063215512+1062240897+1062579349+1063377894
1907+1063438233+1062873847+1062359776+1061908294+1061162184+1060052433
1898+1058665533+1057115545+1055727168+1054769710+1054027392+1053016471
1890+1051566791+1050220053+1049908462+1050900491+1052252369+1052596861
1881+1051634520+1050378130+1049830452+1050020401+1050386612+1050510375
1873+1050182655+1049149886+1047333545+1045503130+1044984561+1046071564
1864+1047795373+1049052598+1049382439+1049088904+1048822551+1049106768
1856+1050090443+1051443028+1052555799+1053039990+1052998029+1052807566
1847+1052735853+1052846764+1053306407+1054392254+1055896297+1057234231
1839+1058060536+1058315130+1057983040+1057086950+1055728967+1054081626
1830+1052743371+1052642485+1053788863+1055239571+1056364102+1057080395
1822+1057299775+1057017743+1056713606+1056913322+1057401947+1057441530
1813+1056649411+1055300425+1054002331+1053224799+1053050593+1053160026
1805+1052985049+1052226023+1051285594+1050820360+1050885390+1050988975
1796+1050632338+1049435003+1047449146+1045719233+1045410469+1046141350
1788+1046716852+1046409373+1045226432+1043691416+1042266475+1041125366
1779+1040289551+1039532774+1038416533+1036599227+1034077259+1031511274
1771+1029880383+1029156893+1028492970+1027283939+1025199188+1021873406
1762+1017354722+1012465842+1007563339+1002008866+995592746+988681253+980775805
1752+970424342+956900869+941988375+928300913+915649175+902201719+887357276
1742+871421203+854052992+835806555+819174686+804575712+788936257+770849311
1732+755015923+744258216+736049530+728434403+720961802+713485153+706108234
1723+699277451+693113996+686998350+680372618+674226192+669818033+666000927
1713+661378336+655633528+648579702+639942988+629902281+619706710+611284813
1703+605612104+602821790+603557297+608747423+619533147+636664757+656726121
1693+675683904+694766092+716419985+738847618+759228029+780989683+810715583
1683+843112082+867622218+885426875+900241824+913426139+925703761+936832885
1673+945313322+951289526+957352416+964978145+971868625+976098016+978357808
1663+980222665+982682494+985179851+986529481+986271096+984600301+982274708
1653+981568888+983250800+984025312+982745597+980870972+980633343+981709101
1643+981715334+979561698+975341175+969044640+958944108+941779469+918577452
1633+894571170+869357593+839358014+804207187+769458877+742828456+728519803
1623+727918597+739060765+756016434+775504931+799277824+827119140+851568358
1613+868239681+879662211+888413242+894662032+897270557+895456401+889839596
1604+882882416+877984540+876744215+877362386+876488593+871905650+863932987
1594+855467651+850270714+850774247+857261566+868161028+881166318+894821651
1584+908942219+923311018+936622759+947453207+955813930+963234224+970458142
1574+975751018+977922325+977485815+975592491+972891112+968420108+960802346
1564+950270766+937975087+922206922+897333081+868218219+852582427+847926807
1554+847132889+849642648+856682401+868198363+882003740+895671796+908891904
1544+922200432+935115952+948563986+964877837+979790459+988686651+993072255
1534+995972580+999499428+1003216419+1005464709+1005847499+1005063926+1003825400
1524+1001954824+999020764+995922522+994029648+992736760+991025610+989006146
1514+986320382+981550189+973664018+962139445+945146570+920709176+895426777
1504+875430957+854592509+826528601+788541644+740311693+684230399+628657843
1494+582009561+542654596+503996519+465903953+441656797+444414049+471067925
1485+513496648+567892463+629908450+689926949+738938609+775392542+802357559
1475+823369699+841741697+857571422+867283573+869612187+865063108+852819735
1465+832639427+808177550+783423617+758111595+728744838+693839993+663577146
1455+647771454+641590585+639800012+641734397+648897077+662899986+683175911
1445+707476241+734688141+763693314+791474804+816121169+839297997+862144213
1435+881071922+893910718+903274393+912085249+920792198+927768078+931874477
1425+933484034+933460322+932157859+929456480+925983095+923801249+923795209
1415+924352462+924048517+922748431+920850867+918456131+915475869+912485453
1405+911054151+912384760+915734189+919508370+922760448+924921859+925466132
1395+924539069+923206340+922291872+921612848+920916732+920674605+921428297
1385+922421289+921910367+918694339+912702391+904836526+896312907+887874431
1375+879906459+873279698+869139177+867609237+868054744+870127543+873525617
1366+877601493+881873744+886178575+889973833+892208307+892042005+889156589
1356+883717524+876144873+866436963+853745963+837033257+816294989+793323532
1346+771635840+755436626+747999047+750974875+764144283+784046285+804684373
1336+821852032+834849033+844556622+851888817+857552080+862175635+866166369
1326+869440101+871598493+872393054+871826419+869967410+866877971+862492239
1316+856446378+848314417+838072515+826177040+813327064+800486341+789022493
1306+780177194+774018045+769154933+763781477+756991370+749184237+741583247
1296+735561227+732062138+731197470+732148116+733359589+733131663+730582706
1286+726255449+721641211+718074844+715963040+714724643+713359334+711242133
1276+708590426+706401512+705944502+707981188+712201775+717435018+722455821
1266+726558879+729419492+730577179+729264949+724916486+717819222+709077251
1256+699924602+691220159+683504660+677260496+672888000+670314047+668688876
1247+666655468+663114868+657934638+652060156+646972523+643936805+643411361
1237+644783866+646666780+647681427+647053490+644480243+639497160+631061832
1227+618017537+600315823+579825658+559787941+543494524+533281796+530038072
1217+533132201+540900714+551401258+562869668+573905102+583666411+591921493
1207+598713463+603936489+607309695+608742732+608627965+607740550+606801343
1197+605951969+604524779+601390295+595602434+586768894+575053280+561078709
1187+545746541+529936961+514375838+499795242+487092322+477306915+471496724
1177+470535700+474891006+484498255+498608155+515502103+532545775+547126114
1167+558011311+565883731+572609643+580119900+589776724+602247766+617587003
1157+635398471+655002184+675424620+695181719+712166561+724021489+728872006
1147+725844770+715079545+697601194+675399559+651510678+629646659+613276967
1137+604511156+603326801+607682011+614619206+621606974+627122763+630347595
1128+630731156+627997519+622306753+614065102+603540076+590859743+576467232
1118+561486624+547551829+536097588+527539430+521099469+515789951+511930981
1108+511639310+517381997+529668070+546001198+561919793+572884221+575585215
1098+568580997+552741891+531378512+509607090+492973069+485868800+490409686
1088+506159987+530702413+560700417+592865070+624447152+653388515+678433092
1078+699256503+716426603+731021787+744045326+756063729+767276067+777659081
1068+786838912+794043167+798568920+800333469+799806096+797522529+793898521
1058+789427002+784794194+780683747+777447670+774964000+772863184+770876878
1048+768870137+766624354+763922268+761003373+758739661+758194103+759954154
1038+763646148+767807296+770347064+769450331+764191770+754573437+741416496
1028+726190740+710528667+695848919+683539552+675127744+671821432+673883435
1018+680439961+689494422+697961172+702468290+701447923+697113598+694878545
1009+699861564+713376042+732569076+753113860+772069908+788697150+803598334
999+817654321+831416774+844887812+857642621+869200416+879298891+887857338
989+894873830+900465830+904811529+907915683+909648488+910151506+909976915
979+909716024+909646303+909687943+909447422+908257476+905216682+899119028
969+888377129+871230289+846268029+813170144+773529420+731216041+691556104
959+659202530+635748682+619236656+606955692+599474481+601429043+617494791
949+647470915+685390979+722995660+753799503+774753745+785754672+788564391
939+785907094+780842852+776337276+774761713+777367089+784272219+794987259
929+808704280+824149287+839753335+854344277+867467996+878924840+888287873
919+895103812+899435375+901960106+903485419+904443583+904843209+904585595
909+903825734+903091062+903033936+904079492+906313709+909476852+912889063
899+915642428+917203469+917733604+917605793+916735086+914712987+911689864
890+908809588+907443252+908109681+910362918+913460967+916772998+919785133
880+922153908+923768477+924702287+925243989+925827588+926586614+927018562
870+926269304+923667076+918957672+912289271+904130128+895155155+886166687
860+877913534+870591428+863399767+854846717+843714124+829780164+813726304
850+796553569+779092825+761795042+744670886+727363207+709425534+690609442
840+670836536+649947645+627591339+603332006+576976034+549274353+522604830
830+500629579+486831366+483089797+489039109+502122473+518407697+534015375
820+546210939+553589979+555790139+553095314+545889131+534258981+518189378
810+498090614+474943763+449860920+423722690+397541374+373085569+352758333
800+338884649+333339333+337515999+352099198+376715618+409756794+448544031
790+489981304+531379412+570858075+607248070+639803867+667953176+691221637
781+709302864+722160359+730264496+735020295+738901082+744682003+754009179
771+766467112+780160615+793329830+805292841+815886816+824420460+829422564
761+829349373+823720166+813981733+803193375+794319288+788518382+785271059
751+784216636+786343861+792959184+803759495+816300515+827223239+833889841
741+835500682+833655360+831929367+833940991+840962944+851218725+861519423
731+869296354+873090777+872154910+866621707+857719796+847074927+836120266
721+826568634+820525151+819127777+821506898+825722409+830449292+835629457
711+841796189+849012268+856621483+863912231+870577483+876362003+880694080
701+883064269+883718296+883673443+883844372+884256271+884300160+883632960
691+882621461+881894629+881542104+880952465+879487684+876843559+872633511
681+866137066+856345427+841845476+821144928+793845443+762037234+730099093
671+702120649+682478831+680783810+702343820+731817890+755840172+774667316
662+790923142+805010359+816533325+825590614+832739221+838694991+843799331
652+847903803+851017338+853578890+855875566+857530811+857763813+856135365
642+852982632+849146441+845379714+842043778+839434418+838399914+840119482
632+844831586+851136667+856949718+860941094+862908379+863005346+860779033
622+855155545+845465435+831828930+813955387+790691232+762565056+734472617
612+713731907+704325114+703626299+705793494+707803126+710969932+717128053
602+725010883+731184876+733936377+735236398+738583579+745489673+754355856
592+762406530+768232625+771975319+773541308+772029489+767028864+759471955
582+751050315+743650777+739095786+738120915+739173475+738763696+733886255
572+724417966+713221049+704747488+703314258+711073260+726495070+744911729
562+761419192+773937914+783272351+790563613+796003128+799865986+803009594
552+805619212+806368856+803549754+797026771+788770277+781297740+775824876
543+772202346+770223172+769953478+770873022+772017409+773161217+774730997
533+776541491+777821078+778541291+779565899+781245562+782704560+782997388
523+782099755+780009414+775991628+769641758+762133879+755108263+748535608
513+741027280+731889731+721757327+711429962+701313044+691872129+683230788
503+674626781+665885453+658986942+656166105+657051400+658911951+659365876
493+658095093+655732486+652498594+648427858+643393304+636289806+625181245
483+608972393+588618779+566642628+546159211+529586943+516644723+504408933
473+491604966+483192258+487237097+506405745+535556207+565868373+590955553
463+609208737+621478520+629955359+638052234+647563384+656377067+662274297
453+666026887+668831787+670226462+669198577+665846962+661048109+654400721
443+643306683+625963661+604726038+583508656+563674189+545195328+530075889
433+522263680+524672938+537821172+559736148+586088264+611611634+631959914
424+645142109+652051995+655693546+660662492+669837824+679923512+687156941
414+691491588+694985343+699795827+705797607+710536442+712878871+714954240
404+718524720+721589097+720691465+715693924+711880031+713840698+718114363
394+720305526+721155093+722490264+722937634+719935588+715254329+715557374
384+724392712+736288766+744502078+747379912+745040118+736862276+724607080
374+714626455
##END=
