##TITLE=STM 175
##JCAMP-DX=4.24
##DATA TYPE=INFRARED SPECTRUM
##DATE=12/4/2018
##SAMPLING PROCEDURE=Diamant-ATR
##ORIGIN=Rieke
##XUNITS=1/CM
##YUNITS=TRANSMITTANCE
##RESOLUTION=4
##FIRSTX=3997.453
##LASTX=373.96442
##DELTAX=-1.4165319
##MAXY=0.78875619
##MINY=0.40573409
##XFACTOR=1
##YFACTOR=7.3458645e-010
##NPOINTS=2559
##FIRSTY=0.68598539
##XYDATA=(X++(Y..Y))
3997+933838881+933646253+933785409+934068102+933816161+932982525+932448378
3988+932881667+933830686+934315094+933979659+933359341+933155273+933548317
3978+934214074+934765423+935059882+935165364+935145241+934951235+934515186
3968+933929677+933491438+933482431+933897545+934479160+934950991+935100695
3958+934823439+934337002+934127416+934355502+934553890+934197440+933412731
3948+932885319+933090766+933839043+934559002+934851026+934811673+934800151
3938+935031239+935492279+935974010+936114788+935717687+935116031+934852892
3928+935052417+935463555+935816759+935959972+935890029+935679064+935294621
3918+934666432+934061855+934031508+934744164+935740650+936383606+936450141
3908+936356668+936748170+937807702+938836643+938767349+937410600+935650178
3898+934465609+934272739+935019474+936371111+937551785+937705221+937194442
3888+937183570+937702138+937672035+936824929+936214591+936243477+936348716
3878+936499962+937120442+937941340+938374305+938500073+938642880+938520764
3869+938263305+938857577+940259684+940898989+939836131+938409601+938073599
3859+938667547+939600824+940728919+941403601+940036223+937468210+936277312
3849+936751903+937994081+939259466+940055453+940056508+939317238+938223059
3839+937042142+936007926+935649854+936239582+937247021+937838697+937844296
3829+937845270+938279046+939129479+940287434+941410092+941545110+940258467
3819+938911373+938433213+938191901+937788796+937759748+938448386+939698679
3809+941043257+941636555+941212353+940910835+941318891+941261849+939975287
3799+938883299+938866259+939095806+939061078+939239181+939842297+940494666
3789+941011774+941444334+941552088+941129671+940669443+940712285+940927956
3779+940770868+940619785+941166752+942213464+943064789+943282894+942825668
3769+942117069+941820906+941957222+941947566+941711610+941774088+942243972
3759+942527234+942212328+941715261+941644588+942190988+942967826+942973911
3750+941981483+941427700+941952110+942312049+941139327+939625409+939631819
3740+940987757+942609591+943470410+942965067+941508678+940336605+940178381
3730+940849656+941845979+942678236+942958008+942630282+942060108+941732869
3720+941870970+942275455+942744203+943500432+944667312+945352380+944242704
3710+942033251+940724862+940608506+940914892+941298037+941754290+942134514
3700+942266692+942270262+942393352+942747530+943284517+943901346+944391840
3690+944293741+943398925+942503622+942372174+942854067+943452234+943708800
3680+943398519+942853093+942749153+943320543+944110445+944696441+944710641
3670+943626605+942045909+941567180+942270262+943062030+943385942+943597557
3660+944252522+945221501+945613815+944959012+944365307+945047617+946523642
3650+947113695+945737635+943694438+942732032+942895205+943562179+944212195
3640+944555906+944625443+944660658+944773606+944847281+944963961+945614302
3631+946813719+947200678+945797273+944362386+944380562+945453157+946741910
3621+947501465+947030607+945547117+944318408+943879195+943741824+943688758
3611+944071660+944753321+944864402+944072309+943248004+943385131+944597856
3601+946079966+946860862+946720813+946050107+945161863+944310375+943978105
3591+944465597+945335097+945569431+944762976+943911245+943849092+944265829
3581+944496998+944252603+943747991+943439901+943621736+944174952+944762327
3571+945201459+945415589+945097031+943932504+942408687+941437924+941275886
3561+941653351+942336878+943222201+944077989+944444744+943921145+942597663
3551+941216572+940663276+941195557+942194071+942682780+942402196+942080961
3541+942350672+943018052+943442984+943189664+942341990+941429404+940984267
3531+941045447+941177544+941071980+940988162+941339987+942022459+942517091
3521+942598556+942536321+942531940+942404874+942021080+941628522+941490827
3512+941563367+941761998+942160722+942683510+942973425+942773576+942220685
3502+941642641+941174704+940793831+940604368+940739386+941028895+941152066
3492+941123261+941262011+941696843+942185064+942417532+942277240+941806707
3482+941131781+940471622+940112982+940245322+940773546+941358649+941715180
3472+941826748+941835593+941840299+941839406+941816444+941821799+941911459
3462+942042420+942163806+942290304+942298336+941930365+941289112+940965605
3452+941334388+942057187+942507598+942364628+941762242+941144844+940957167
3442+941315077+941959737+942483986+942591659+942281703+941802974+941319459
3432+940786366+940291978+940183899+940634877+941382505+941998117+942194882
3422+941950163+941523283+941231746+941103300+940900368+940502618+940112170
3412+940050666+940382287+940846491+941213165+941476465+941537321+941031410
3403+939851953+938595250+938083904+938526119+939375334+939988026+940234449
3393+940454502+941030436+942065950+943335798+944449206+945055974+944932235
3383+944103711+943055863+942488448+942604966+942997361+943356002+943746855
3373+944105820+944129757+943816879+943568590+943664741+943985732+944246274
3363+944276864+944115476+943975833+944095272+944506978+944970696+945193588
3353+945097437+944792755+944385755+943900616+943236806+942183198+940702629
3343+939121527+937707088+936182378+934039784+931194271+928007482+924867510
3333+922043905+919748281+918007819+916621535+915507558+914970328+915337569
3323+916423715+917633843+918544482+919126258+919423476+919281886+918548701
3313+917428558+916385660+915633488+914993859+914320312+913737805+913456167
3303+913676544+914594891+916157331+917933900+919470781+920633604+921584813
3293+922654162+924149986+926038529+927893804+929321389+930305459+931078078
3284+931784974+932341191+932592808+932638733+932902196+933686499+934714142
3274+935407000+935649935+935928003+936643174+937659539+938566527+939088909
3264+939234718+939264172+939453797+939807326+940140002+940370684+940530287
3254+940632848+940717397+940830344+940899313+940810059+940583109+940378879
3244+940452392+941052101+942098488+943028844+943262284+942825100+942306856
3234+942186119+942413637+942687810+942860639+942916545+942839462+942777552
3224+943059271+943701335+944183958+944077340+943656221+943487530+943651758
3214+943853311+944053809+944465353+945065387+945631990+946126541+946596344
3204+946891046+946866704+946697120+946688601+946909221+947161974+947261371
3194+947248956+947273947+947333504+947307864+947206357+947145746+947158241
3184+947248388+947480612+947813693+948056466+948125273+948132981+948185966
3174+948278547+948352222+948342729+948271325+948290556+948481236+948728470
3165+948968808+949275194+949496546+949248986+948502170+947711375+947192158
3155+946834004+946532324+946426111+946614032+946967805+947309081+947593722
3145+947827163+947821321+947277923+946311379+945604240+945674995+946236811
3135+946606568+946450778+945827782+944858803+943710910+942650567+941786340
3125+940904993+939758236+938346880+936801642+935283342+934153706+933896896
3115+934593162+935716064+936624025+937075166+937229252+937330109+937420013
3105+937315666+936884648+936282668+935824468+935712737+935957538+936405920
3095+936760909+936745330+936371192+935970277+935876398+936092556+936326808
3085+936328187+936045413+935484733+934665377+933775186+933107319+932734966
3075+932443103+932058660+931653851+931317929+930918719+930289231+929533165
3065+928935485+928642324+928628531+928887855+929428900+930122163+930749703
3055+931206361+931574414+932031316+932725716+933655747+934597949+935265167
3046+935620237+935925488+936405027+937003438+937574991+938143055+938816520
3036+939548326+940113063+940315589+940170510+939832155+939396837+938909913
3026+938514110+938354182+938392643+938560279+938979207+939748742+940615971
3016+941104436+940952298+940337254+939673120+939182220+938703654+937952943
3006+936814218+935313202+933518538+931563947+929610005+927792866+926276189
2996+925180469+924461078+924110146+924347644+925225583+926196347+926464516
2986+925621629+923664847+920684154+916850676+912505039+908051404+903838188
2976+900153197+897219078+895220428+894328451+894518157+895364046+896238334
2966+896739620+896794633+896433883+895699400+894771802+894010381+893720142
2956+893830411+893977194+894079269+894596133+895880830+897540962+898878400
2946+899738488+900420554+900950807+900987726+900353127+899149165+897379493
2936+894926456+891969781+889028035+886485906+884391429+882747362+881689210
2927+881356777+881830556+883099430+884852955+886473654+887546817+888284789
2917+889225206+890604431+892201274+893667968+894798173+895537038+895953369
2907+896235657+896576527+897040894+897580315+898083629+898389853+898438213
2897+898470913+898888623+899828797+901056046+902291165+903454313+904569831
2887+905645266+906725083+907926691+909339183+910916878+912426251+913467121
2877+913706891+913237899+912578309+912207497+912213177+912416677+912659124
2867+912907008+913214287+913605140+913973031+914185943+914270248+914325586
2857+914312523+914154136+913958345+913893513+913952503+914064395+914294915
2847+914726988+915239957+915548291+915367591+914474398+912719006+910117158
2837+906943432+903675096+900845892+898997027+898633437+899950021+902604935
2827+905965203+909511039+912882423+915800638+918193225+920198286+921892335
2817+923181656+924000201+924452234+924767708+925188340+925855070+926775852
2808+927878631+929026281+930030069+930750839+931141043+931188267+931005295
2798+930952716+931416109+932387685+933398532+933962944+934080355+934207502
2788+934695399+935427529+936113652+936671411+937134561+937443219+937519815
2778+937404353+937242315+937229982+937509024+938022237+938556060+938966062
2768+939262793+939477409+939585650+939625571+939768216+940129534+940585138
2758+940935908+941209432+941583165+942033413+942283163+942147821+941796808
2748+941597851+941757130+942168349+942591578+942885874+943034848+943054403
2738+942972532+942871350+942878734+943059515+943297499+943355758+943099192
2728+942578352+941874216+941000820+940029083+939166722+938560035+938069136
2718+937387313+936421418+935432397+934744651+934427554+934333513+934338381
2708+934441835+934672599+934993265+935336002+935693669+936113084+936631247
2698+937288484+938123906+939044687+939815683+940311451+940697193+941256088
2689+942097920+943068197+943885524+944390785+944685163+944978404+945322358
2679+945591501+945720027+945834192+946101063+946520153+946930886+947211713
2669+947392494+947559156+947725737+947861566+947998369+948229295+948582174
2659+948948848+949174418+949185047+949019440+948791760+948648466+948702262
2649+948966780+949355929+949744997+950044081+950235897+950352090+950434934
2639+950518752+950590237+950566301+950432906+950393715+950694421+951265001
2629+951724093+951794685+951589400+951427768+951451786+951472801+951172176
2619+950410024+949347085+948295424+947467548+946869706+946449967+946274379
2609+946427410+946774041+947026226+947114750+947341943+948049082+949179936
2599+950270382+950870334+950895812+950616040+950465037+950854268+951923617
2589+953362399+954620806+955411276+955924408+956503263+957192389+957717773
2580+957872913+957809462+957922247+958502563+959439086+960244648+960529694
2570+960431514+960343558+960370415+960416016+960587466+960996251+961365115
2560+961340773+961008990+960683211+960394352+959956518+959390158+958983644
2550+958921166+958961818+958611778+957690915+956577831+955710116+955029267
2540+954175101+953068265+952043056+951499415+951559946+951988611+952406078
2530+952654693+952896815+953344467+954016391+954797530+955605931+956417173
2520+957149709+957654159+957934093+958268067+958887087+959627575+960136974
2510+960353376+960603450+961247300+962297419+963379751+964099060+964410072
2500+964540383+964668260+964874032+965276327+965895184+966422516+966474933
2490+966117103+965813882+965848934+966137307+966543496+966932727+967035694
2480+966730768+966312408+966151507+966325229+966752595+967350762+967987309
2470+968567463+969103476+969526786+969677707+969610441+969598108+969711056
2461+969674867+969298700+968831899+968702399+969014952+969479643+969747974
2451+969640707+969155082+968505228+968114618+968355362+969193623+970150999
2441+970700806+970695857+970310602+969687525+968936733+968421004+968586531
2431+969353957+970035536+970106859+969837716+969910418+970562218+971405511
2421+972004165+972291158+972420172+972507965+972627729+972876911+973306955
2411+973770591+973927030+973579262+973034810+972857518+973129176+973296407
2401+972945799+972327104+971848132+971518783+971220267+971058230+971117300
2391+971223351+971170041+970933517+970612363+970359854+970367482+970747137
2381+971347414+971735752+971563248+971055146+970852945+971239741+971945825
2371+972772240+973698133+974362835+974277881+973537556+972686312+972083845
2361+971729099+971362425+970705512+969932407+969574172+969746189+970013060
2351+970150674+970418032+971036403+971873691+972648825+973302655+974028537
2342+974890816+975710415+976216407+976080902+975139430+973757447+972719904
2332+972594299+973199282+973755175+973679390+973101102+972490520+972117599
2322+972105509+972641441+973657401+974590596+974875967+974499881+973937822
2312+973746249+974194469+975092288+975969578+976465427+976475245+976051935
2302+975419851+974953051+974836290+974875318+974856818+974848704+974929520
2292+974900796+974505318+973828850+973430775+973992024+975537424+977065460
2282+977447388+976670144+975685992+975217731+975301305+975743034+976381690
2272+976961681+977160557+976858795+976357429+976286512+977068138+978392268
2262+979428999+979671609+979479387+979683618+980566831+981374016+981230884
2252+980481147+980433842+981660766+983289254+984258638+984446965+984138632
2242+983380131+982533999+982519556+983579818+984525834+984162406+982971265
2232+982512984+983447234+984919852+985867166+986257208+986743888+987570060
2223+988387468+988987907+989567493+990206230+990714900+991203284+992166988
2213+993725209+995269635+996205346+996608614+996894147+997234937+997621003
2203+998226554+999215575+999944378+998971504+995758263+992005194+990105697
2193+990401454+991072648+990661347+989767585+990141805+992553704+995867316
2183+998385508+999561314+999817880+999734143+1000209382+1002000881+1004237111
2173+1004943519+1003643082+1001969723+1001439065+1001867324+1002116750
2164+1001537245+1000643646+1000884552+1003503115+1007836094+1011112219
2156+1011240502+1008874042+1006054818+1004117510+1003017895+1001988710
2147+1000814203+1000449801+1001729223+1003621174+1004004563+1002238136
2139+999850904+998614405+998793482+999356029+999320002+998535456+997319729
2129+995929307+994612398+993690156+993299708+993352855+993764481+994393481
2119+994862148+994759181+994022507+993075274+992626162+993162743+994486630
2109+995952594+997191202+998246515+999025463+999144820+998512006+997708067
2099+997555847+998396706+999828347+1001054216+1001502436+1001260069+1000989466
2089+1001387379+1002553610+1003783861+1004081240+1003032500+1001230453
2081+999835487+999660467+1000493049+1001310295+1001352651+1000879196+1000637317
2071+1000998310+1001965585+1003445586+1004960397+1005605950+1004888100
2062+1003317466+1001797868+1000724218+999953547+999364873+999159993+999640426
2053+1000806251+1002227263+1003329069+1003857049+1004047892+1004339104
2044+1005099796+1006560404+1008573822+1010474374+1011385500+1010793581
2036+1009168014+1008002107+1008353689+1009520569+1010407352+1011480272
2027+1013528418+1015374768+1014961520+1012434483+1010339519+1010622293
2019+1012580617+1014068164+1014176081+1014002116+1014660651+1015670200
2010+1016014804+1016047260+1017189392+1019752374+1022253690+1023183315
2002+1022415565+1020697985+1018676777+1016810304+1015690080+1015810330
1993+1017015995+1018517093+1019688679+1020598831+1021372667+1021589150
1985+1020993741+1020492699+1021361632+1023353791+1024652849+1024242198
1976+1023172199+1022522832+1021900404+1020925421+1020213982+1020020868
1968+1019583197+1018903159+1019489885+1021725790+1023260723+1021804659
1959+1018438792+1016193962+1016217087+1017233046+1017905619+1018078123
1951+1017870972+1016920006+1015004606+1012759856+1011210074+1010777271
1942+1011008278+1011262166+1011509482+1012269768+1013942153+1016309343
1934+1018641238+1020234997+1020865134+1020869110+1020910572+1021543062
1925+1022752947+1023856618+1024139068+1023693851+1023145747+1022741181
1917+1022296775+1021737231+1021110421+1020494079+1020208951+1020467384
1908+1020787239+1020624066+1020315570+1020575381+1021507604+1022590909
1900+1023285552+1023490756+1023602081+1024018980+1024609764+1024971325
1891+1024998751+1024944711+1025203225+1025971543+1026943118+1027532036
1883+1027491303+1027111404+1026771425+1026554862+1026311116+1025921236
1874+1025504742+1025374756+1025775914+1026633730+1027523516+1028106510
1866+1028504666+1028963271+1029580506+1030392397+1031359266+1032357131
1857+1033358809+1034395297+1035328412+1035982728+1036359544+1036496509
1849+1036447663+1036459671+1036734007+1037009560+1036829266+1036254954
1840+1035777605+1035715857+1035874406+1035858177+1035850469+1036375448
1832+1037282111+1037802464+1037740229+1037642131+1037686027+1037608295
1823+1037336880+1036964202+1036444011+1035755941+1035132295+1034813738
1815+1034662736+1034299876+1033509406+1032380013+1031212646+1030356777
1806+1029937118+1029725910+1029410517+1028907365+1028384497+1028150001
1798+1028459795+1029383497+1030993891+1033419502+1036303233+1038786616
1789+1040634994+1042238816+1043847100+1045544395+1047411598+1049449764
1781+1051562092+1053553521+1055198319+1056545493+1057935752+1059565620
1772+1061208307+1062563515+1063648930+1064615150+1065575609+1066598789
1764+1067743194+1069009309+1070179759+1071022564+1071607019+1072066923
1755+1072433596+1072843761+1073393244+1073741823+1073419209+1072528368
1747+1071402302+1070146329+1068721504+1066799206+1063921886+1060309921
1738+1056733576+1053014668+1047353583+1037774389+1025463604+1012534691
1730+998061596+981004259+961633122+939541429+914196897+887516795+861401349
1720+833005370+796307510+752435297+714015800+687970784+671979673+664021624
1710+663548657+670328100+684797464+705663612+728084168+749784034+773643939
1700+799556454+820820190+836215690+849641588+861372544+870603564+878513942
1690+886020160+892795384+898714171+904595228+910887342+916307441+920107976
1680+923261498+926564319+930124029+933627916+936657617+939177839+941713476
1670+944843873+948489755+952157058+955988103+960417963+965262533+969588858
1660+972773619+975090665+977088585+979210082+981814852+984818588+987239412
1650+988962510+990782814+993215647+995925412+998072225+999691138+1001246194
1640+1002906571+1004621392+1006304731+1007881938+1009321694+1010618723
1632+1011806051+1013052448+1014570342+1016332549+1018144090+1020055515
1623+1022164192+1024118134+1025443563+1025837986+1024519211+1020039692
1615+1011472807+997950677+977078280+946542548+908129948+869752888+841282828
1605+828333062+830099651+840606847+852055759+859761095+864688103+871208384
1595+882723750+898815191+916190355+931805340+944275079+953122792+957917946
1585+958149196+953699132+945917523+938048770+933620451+935066373+943252223
1575+954538692+962635287+965457026+963040584+955937877+947934755+943103655
1565+941375608+940691594+939491933+936315367+928844202+919420636+916661375
1555+920872968+928637537+937917890+947570516+956964222+965408099+972581966
1545+978991409+985119782+990897547+996379555+1001331798+1004636241+1006451595
1536+1007864736+1009723257+1012318047+1015069761+1017433544+1019570701
1527+1021785185+1023990825+1025881153+1027295592+1028204527+1028855030
1519+1029842184+1031694863+1034377446+1037215738+1039630639+1041502872
1510+1042782943+1043034560+1041239004+1037331606+1032841620+1027532036
1502+1019686407+1007703592+990799854+969433150+946169464+924444850+905640966
1492+890671128+883676744+890045049+907618439+928038883+945398306+956795125
1482+960044474+953980202+939682694+920128748+899623837+883394538+875685063
1472+876325180+880222678+882624191+880793825+872273028+857018631+840792415
1462+829832942+825485115+826959355+833107282+840208853+845032813+849084316
1452+854611600+862407571+871665692+879868013+884062161+883739060+881439378
1442+880453604+882224006+885198370+885558309+880223489+872012729+867015697
1432+868508031+877800718+893917637+912623423+930265133+945935780+959310072
1422+969914718+978284270+985316060+990669542+993663867+994507078+993074463
1412+988331725+979118961+965130680+946959123+925421131+902531016+882907371
1402+870854287+867390728+871601428+881430615+893808503+905995468+915872285
1392+922312480+926183689+929546310+934282475+941061838+948902111+956432022
1383+962970965+968145938+971560570+972913749+971720904+966699773+956297897
1373+940676177+922057131+903418692+888741285+882213864+885442197+897189543
1363+914347656+932029774+946105120+955454442+960521823+961936425+960432893
1353+956528173+950165224+941373498+931428118+922990002+918801778+920156579
1343+926614869+936961164+949803662+963374801+976010878+987097011+996825665
1333+1005439531+1013027295+1019637398+1025340027+1030170478+1034064488
1324+1036933207+1038820857+1039846878+1039866919+1038201999+1033919003
1316+1026659289+1017359138+1008185241+1001398008+997864019+996746472+996377689
1306+995043497+991378628+984839360+976067758+966287823+955754094+942834431
1296+924966096+900708116+870990117+838604545+806604228+776996742+750479813
1286+726681412+704244710+681215358+656237176+629794165+604221265+582372505
1276+566194041+556293735+552329944+553468912+558663156+566911971+577425821
1266+589561018+602632616+615739389+627653803+636895899+642187308+643155435
1256+640615781+636036459+630777263+625963364+622842420+622655879+625855732
1247+631665466+638579765+645264152+651158313+656601983+662537850+669933596
1237+679294440+690596569+703552014+717811549+732916972+748087388+762008811
1227+772781579+778179607+776421944+767518812+754539836+743381569+740100576
1217+747190543+761951363+778297342+790084528+793705256+789486117+781785000
1207+777058734+780278466+792201725+809764810+828859014+846725158+862390207
1197+875767258+886741255+894812373+899005871+897676142+888607241+870262693
1187+843782520+813506762+784667513+760267618+740289795+723562213+709871473
1177+700358490+696478031+698967825+707623397+721491915+738810362+756831566
1167+772265202+782441020+786548348+786319207+785569551+788234202+795956091
1157+807384150+819816159+831319191+841425067+850554012+859347198+868371066
1147+877974845+888166567+898579235+908572812+917497852+925033605+931321986
1137+936758718+941639395+945919714+949137094+950503092+949230243+945014025
1128+938337630+930228619+921393808+911192512+897354583+877186810+849706257
1118+816709779+781480318+746552536+713199933+683071932+659584948+646865540
1108+646699364+655926164+666575843+669427928+659266593+638249848+614592794
1098+597361249+591556302+597047479+610825282+629509606+650409793+671613608
1088+691894977+710595651+727419547+742252744+755213788+766749763+777361468
1078+787176050+796019624+803840180+810786773+816984196+822479187+827279210
1068+831361790+834933915+838812265+844138564+851351054+859508586+866767326
1058+871310540+871636724+866391646+854830193+838078593+819990935+806256298
1048+801772479+808049177+822707029+841320720+859901955+876297673+889957174
1038+900657971+907441958+908545874+901939016+885835403+859199198+822391393
1028+777786401+730097343+685984629+652500660+634788033+634281108+648348624
1018+671509789+697702278+722474850+743923262+762143341+778079642+792734330
1009+806837588+820632269+833847202+846119040+857352767+867146414+873420110
999+871822698+857743864+830742121+797709941+770359376+757717457+760298776
989+771203317+781894296+786653749+783516618+774000308+763004971+757287331
979+761764902+776255930+795457727+811598989+817311192+807603554+781058388
969+740091650+690487110+641072885+602792220+584999183+590180769+612433242
959+642000442+671280607+697022970+718834405+737192016+752609100+765598787
949+776704312+786350771+794762516+802080326+808450092+814022328+818966538
939+823406297+827361324+830977996+834738042+839127495+844147896+849369200
929+854371831+858966163+863095804+866756697+870066171+873264077+876489732
919+879611204+882388315+884736357+886761784+888646270+890529376+892387654
909+894022552+895242741+896023150+896475670+896784734+897265977+898407623
899+900686857+904232368+908672940+913323664+917486979+920705656+922988217
890+924698008+925746748+924716995+919327973+908650545+895207445+884279942
880+880203042+882963844+888467517+891885070+890536922+884221196+874260805
870+863198690+854668236+851981028+856131198+865350209+876548072+886979727
860+894953314+899681609+900715175+897527493+889794001+878129174+864428373
850+851435116+841962866+838282742+841670922+851880171+866905184+883710904
840+899631951+913364803+924998714+935335110+945072852+954393045+963033281
830+970439453+975565661+976431185+970613256+957987727+943775416+936899984
820+943057567+959780119+979327330+995325379+1005481075+1009284126+1005460627
810+992563035+971337028+945090784+916691559+885434489+847544595+799717436
800+742519533+682054593+629250119+595883317+588826292+606475913+639577630
790+675376494+702985898+717791669+722340725+723316601+727732262+740680892
781+763822055+794504895+827335035+857525271+882641879+901716772+913906902
771+918086444+912851671+896478347+867159478+824321318+771110330+715540591
761+667275598+632073684+609649355+596604006+590406988+590559694+597019120
751+608459837+622334197+636481515+650319362+664155303+677584893+688957857
741+696077847+696981832+690525165+677019060+658548054+638489212+620308487
731+606273955+597145050+593204101+595047408+602747633+614877313+629200461
721+644109971+659232514+674857155+690604520+704416484+712806321+712227953
711+701087050+681745286+660661722+645201837+639550894+643623007+654943108
701+670546287+687344948+702165487+712886164+719780258+725146236+731387232
691+739555718+749289970+759422379+768712712+776585360+783349955+789601743
681+795536027+800923264+805512728+809229932+812051590+813994497+815469629
671+817453756+821163090+827075386+833148989+836938246+838945497+840515726
662+842537015+845552274+849441252+853150749+854814289+851513822+839262269
652+815763601+785304303+759334909+748656669+754479792+768973741+783229462
642+793198778+799846774+805323833+808571234+804964868+792097784+775470329
632+765505475+768528199+782393797+800308219+816685356+829454585+839087736
622+846726457+852977027+857852024+861306414+863532177+864952134+866224740
612+868035794+870526156+873112750+875219155+876920669+878515565+879848864
602+880598520+880984749+881653508+882863393+884172106+884947078+884894175
592+884064676+882626625+880763154+878589159+875980982+872608787+868332444
582+863611127+859489437+856934082+855810937+854557480+851312999+845652158
572+839006677+833708371+831914600+834439283+839913502+845674715+849769709
562+851970318+853285685+854906221+857399260+860470831+863256462+864989134
552+865778793+866602692+867965770+869086806+869364468+869728140+871217797
543+873350085+875100203+876297105+877142507+877240362+875571710+871179661
533+864316642+856928321+851030712+846765404+843273202+841112595+842069322
523+846551437+853017110+859813999+866393431+872523751+877201496+879469127
513+879636520+878816596+877707082+876164684+873758222+870486397+866792155
503+862888084+858386252+852696849+845559333+837349465+829281269+822951424
493+819249231+817961451+818501441+820770857+825198770+831873948+839625373
483+846555169+851794811+855682005+858037430+857681791+854041183+848114607
473+841753686+836780184+834230428+833989766+835373453+837773018+840744948
463+843595816+845296681+845506997+845394699+846430456+848260984+849257388
453+848707987+847296955+846758832+849028167+854779886+862693834+870554149
443+876994750+881872344+885943401+890330988+895259132+899418389+901444303
433+901889520+902417176+903486201+904325599+904939426+906295039+908341075
424+909814585+910087379+908399740+902039549+891532515+883741656+881897659
414+883723643+885860638+886078257+884506973+883877729+887501297+895635055
404+904456965+909204409+907154397+898550106+888500622+885214517+889706207
394+895316255+897013468+894540715+890113532+885411688+880032972+871808742
384+858969327+842729886+826862798+815306213+810928769+815235053+827172997
374+840761501
##END=
