##TITLE=X8093
##JCAMP-DX=4.24
##DATA TYPE=INFRARED SPECTRUM
##DATE=30/10/2018
##SAMPLING PROCEDURE=Diamant-ATR
##ORIGIN=ComPlat
##XUNITS=1/CM
##YUNITS=TRANSMITTANCE
##RESOLUTION=4
##FIRSTX=3997.453
##LASTX=373.96442
##DELTAX=-1.4165319
##MAXY=0.98598349
##MINY=0.46816775
##XFACTOR=1
##YFACTOR=9.1826868e-010
##NPOINTS=2559
##FIRSTY=0.95448971
##XYDATA=(X++(Y..Y))
3997+1039444908+1039694941+1039924397+1039537664+1038807299+1038374480
3989+1038387268+1038566289+1038796784+1039159175+1039600237+1039953606
3980+1040099523+1039939196+1039503392+1039156189+1039310545+1039883893
3972+1040393500+1040576351+1040558436+1040504496+1040424462+1040276403
3963+1040041948+1039757514+1039580440+1039739274+1040282894+1040861110
3955+1040904730+1040211882+1039234146+1038645868+1038781984+1039416802
3946+1039894084+1039764394+1039481712+1039985801+1041238755+1042123476
3938+1042029617+1041263940+1040187606+1039064537+1038482101+1038838196
3929+1039562070+1039812622+1039459772+1038991188+1038888566+1039015595
3921+1038737002+1037806779+1036866885+1036795809+1037632237+1038770041
3912+1039943286+1041199550+1042095305+1041639768+1039372728+1036218047
3904+1033974699+1033618214+1034725640+1036768936+1039234535+1041073041
3895+1041467498+1040530979+1039182867+1038573948+1038857929+1039057526
3887+1038510466+1037461589+1036493654+1035792823+1035596860+1036593420
3878+1038566159+1040026695+1039866562+1038046426+1035398950+1033261210
3870+1033107114+1035165404+1037475609+1038244531+1037586605+1036840662
3861+1036776531+1036930756+1036664172+1035704545+1033978204+1031894534
3853+1031346501+1033726808+1037241480+1040210519+1041977559+1042047402
3844+1040284841+1037515659+1035194030+1034159172+1034347411+1035473466
3836+1037118865+1038595693+1039357215+1039366108+1039093227+1039116789
3827+1039660409+1040321515+1040197992+1038719281+1036576998+1035634508
3819+1036479893+1037906740+1039432056+1041167290+1042474898+1042540716
3810+1041202795+1038966782+1037119904+1036905117+1037444063+1036709738
3802+1034599456+1033463988+1034754720+1037338065+1039994370+1042066096
3793+1043133278+1043332551+1043201953+1043151583+1043280558+1043479896
3785+1043510274+1043102835+1042141261+1040831252+1039863901+1039972235
3776+1040972820+1042055386+1042722983+1042897720+1042606795+1041911935
3768+1041050647+1040471716+1040572326+1041154438+1041404081+1040812233
3759+1039781271+1039081543+1038732718+1037987813+1036162744+1033212787
3751+1030508385+1030006892+1031028702+1031606075+1031341957+1031282889
3742+1032045774+1032553499+1031532922+1028593935+1024793985+1022536227
3734+1023112302+1025295998+1027770360+1029982875+1031378112+1031651187
3725+1031301323+1031305283+1032163715+1033666572+1035345789+1036862147
3717+1038027667+1038485476+1037702534+1035668390+1033764326+1033778541
3708+1035453214+1037234859+1038098614+1037821449+1036936533+1036435624
3700+1036786202+1037634509+1038590305+1039415179+1039848712+1039727396
3691+1039033315+1037944063+1037154500+1037344102+1038163199+1038819113
3683+1038857215+1038245894+1037227784+1035938675+1034328327+1033209542
3674+1034105427+1035989694+1036459706+1035542465+1035993524+1039093356
3666+1042641716+1044563176+1044532798+1043394216+1042069731+1040883958
3657+1040023060+1039929719+1040315284+1039827746+1037594719+1034311191
3649+1032202856+1032639439+1034550579+1036811712+1038865069+1040235509
3640+1040799900+1040878052+1040610623+1039640092+1037725123+1035226355
3632+1032525133+1029597441+1027243746+1027491247+1029988133+1032375970
3623+1033640348+1033946852+1033749332+1033620551+1034008192+1034604908
3615+1034807492+1034636454+1034536818+1034583618+1034762704+1035647814
3606+1037386813+1038734016+1038519878+1036938286+1035088356+1033844620
3598+1033218694+1032757121+1032324302+1032356173+1033018707+1033453019
3589+1032621719+1030921471+1030566090+1032648007+1035428094+1037038766
3581+1037295550+1037322682+1037989241+1038873896+1039229278+1039143012
3572+1038873118+1037920891+1035735183+1033015072+1031672672+1032461327
3564+1033898040+1034873115+1035614256+1036528121+1037470222+1037939195
3555+1037440428+1035793601+1033610490+1032007607+1031204867+1030340204
3547+1028971321+1027796064+1027664557+1028707657+1030606983+1032673776
3538+1033872596+1033660211+1032606011+1031606464+1030828455+1029888107
3530+1028617692+1027330011+1026478460+1026303073+1026926337+1028373826
3521+1030100622+1031037011+1030659820+1029640087+1028987873+1028819562
3513+1028474566+1027670074+1027005138+1027159753+1027832413+1027929194
3504+1026855586+1025336112+1024621715+1024824038+1024889403+1024159102
3496+1023089648+1022398424+1022065177+1021540121+1020609445+1019670005
3488+1019219012+1019253024+1019279702+1018885440+1018149038+1017446325
3479+1016911792+1016347531+1015706028+1015303782+1015345843+1015529473
3471+1015381673+1014686360+1013447491+1011855643+1010382580+1009456252
3462+1008963456+1008479489+1008009412+1008051733+1008841361+1009891991
3454+1010498963+1010497795+1010232573+1009902117+1009317345+1008322212
3445+1007113267+1006058158+1005460988+1005400557+1005515967+1005241074
3437+1004513500+1003931453+1003979811+1004436841+1004769634+1004824288
3428+1004898480+1005272295+1005824743+1006170193+1006193560+1006251525
3420+1006663053+1007297352+1007869207+1008232053+1008258925+1007892899
3411+1007398741+1007214202+1007533623+1008186551+1008811892+1009101455
3403+1008973647+1008504479+1007777100+1006916591+1006078021+1005287354
3394+1004541735+1004012396+1003807735+1003720691+1003558676+1003431323
3386+1003432816+1003371022+1003100673+1002839735+1002827338+1002866543
3377+1002569061+1001965205+1001429635+1001038228+1000405163+999227959+997776316
3367+996775017+996667786+996988116+996927166+996554648+996677263+997390167
3357+997723804+996923271+995262294+993427878+991840314+990715816+990150906
3347+989898472+989465069+988642792+987734314+987204585+987300911+987922358
3337+988644869+989081647+989411519+990235549+991758787+993486881+994845638
3327+995772226+996592231+997568410+998654675+999522390+999807279+999520637
3318+999208421+999498243+1000517652+1001918730+1003223222+1003943786+1003795338
3308+1003126637+1002772619+1003248278+1004360832+1005542969+1006289821
3299+1006386342+1005953199+1005307282+1004819809+1004847071+1005530182
3291+1006609113+1007608724+1008215436+1008437557+1008489225+1008571661
3282+1008808712+1009350903+1010266002+1011192135+1011530445+1011224784
3274+1010896146+1011013308+1011445218+1011937819+1012413283+1012706091
3265+1012651372+1012553164+1012944505+1013771001+1014375896+1014373949
3257+1014079128+1013997537+1014233549+1014491241+1014543428+1014606975
3248+1015117101+1016098732+1017004029+1017377910+1017553621+1018280221
3240+1019605744+1020627684+1020657802+1020122361+1019839160+1019984428
3231+1020239004+1020397514+1020454505+1020559334+1021053817+1022095814
3223+1023189480+1023578095+1023189739+1022760296+1022885182+1023428218
3214+1024051806+1024757052+1025571150+1026198698+1026373371+1026241474
3206+1026128531+1026111005+1026010655+1025798205+1025830400+1026467165
3197+1027579979+1028708955+1029544215+1030019809+1030195909+1030157223
3189+1029798402+1028915304+1027785094+1027204022+1027601984+1028564726
3180+1029428026+1029911604+1030086082+1030064921+1029903880+1029683771
3172+1029532856+1029547266+1029776008+1030198765+1030625482+1030851239
3163+1030970348+1031176047+1031307555+1031066025+1030489367+1029780876
3155+1029070179+1028662869+1028962688+1029917641+1031025197+1031865390
3146+1032273023+1032251863+1031974243+1031586083+1031073036+1030628923
3138+1030749979+1031536621+1032365520+1032615682+1032347085+1032085694
3129+1032252122+1032828651+1033352928+1033341439+1032810152+1032217980
3121+1031945099+1032026691+1032307296+1032686044+1033158198+1033591926
3112+1033610944+1032965806+1031976775+1031360261+1031529871+1032133337
3104+1032389731+1031970544+1031367726+1031170660+1031370387+1031705322
3095+1032141191+1032561677+1032517733+1031760625+1030713760+1030131519
3087+1030397584+1031176047+1031682084+1031336115+1030197532+1028805022
3078+1027658715+1026855391+1026261856+1025982224+1026317743+1027136321
3070+1027713434+1027432244+1026334230+1024959116+1023910043+1023445809
3061+1023330139+1023262308+1023283729+1023388948+1023122882+1022159686
3053+1020874082+1019815013+1019029150+1018318713+1017767304+1017648064
3044+1018017531+1018628787+1019206289+1019701616+1020214209+1020734656
3036+1021145924+1021439252+1021712457+1021991829+1022149495+1021962814
3027+1021341822+1020566280+1020008185+1019562644+1018825009+1017748415
3019+1016447363+1014562771+1011670001+1008081397+1004515252+1001312992
3010+998582041+996640524+995778652+995820518+996158049+996162269+995632215
3000+994839407+994074899+993436121+993133901+993430994+994102745+994569706
2990+994653505+994613715+994536278+994248013+993686284+992922360+991927033
2980+990524722+988543804+986050878+983346930+980439101+976660830+971241770
2970+964102535+955697559+946307121+935894874+924567463+912907649+901819561
2961+892139821+884448139+879154614+876546667+876674410+879241074+883585812
2951+888832731+894252506+899453209+904023055+907133857+907810152+905584070
2941+900735892+894021751+886350905+878535569+870876212+862834860+853525690
2931+842834525+831784863+821655882+813122385+806310944+801274527+798261414
2921+797708122+799983406+805053316+812413050+821310367+830992444+840815505
2911+850198543+858622668+865908274+872413471+878624820+884596977+890048297
2901+894817416+898986962+902801192+906659886+910952242+915777312+920992621
2891+926455170+931964780+937119268+941578507+945380015+948697750+951428505
2881+953302322+954232479+954250135+953272593+951287067+948724363+946393711
2871+944936875+944316338+943813481+942506977+939771742+935423499+929564285
2861+922372408+914022151+904763481+895057322+885712776+877962415+873144420
2851+872061919+874805722+881194534+890884465+902985406+916132239+929077007
2842+940989710+951506787+960813101+969312975+977047109+983787863+989585931
2832+994710561+999191025+1002880044+1005855510+1008423082+1010753669+1012731017
2822+1014213427+1015299757+1016203691+1017023113+1017820010+1018717908
2813+1019716545+1020652610+1021512794+1022527854+1023835332+1025253092
2805+1026434581+1027105294+1027183380+1026822547+1026359805+1026150795
2796+1026381874+1026989495+1027725053+1028330272+1028752185+1029202789
2788+1029909592+1030806451+1031607957+1032154498+1032514942+1032781721
2779+1032947501+1032973335+1032856692+1032632624+1032363637+1032149045
2771+1032120550+1032369544+1032884344+1033626977+1034591796+1035631002
2762+1036350657+1036451138+1036127433+1035872467+1035902260+1035989694
2754+1035852280+1035505012+1035199222+1035156836+1035397327+1035758096
2745+1036077971+1036321578+1036441207+1036254526+1035703117+1035117306
2737+1034894860+1034999560+1035077516+1034978594+1034813918+1034606141
2728+1034321512+1034173972+1034411023+1034840141+1035056031+1035088746
2720+1035343257+1035953994+1036627303+1037058109+1037204676+1037237845
2711+1037403559+1037845855+1038487034+1039129446+1039633471+1039945557
2703+1040030589+1039862668+1039472949+1038990669+1038637430+1038632107
2694+1038981971+1039384802+1039519554+1039443415+1039454125+1039592643
2686+1039625487+1039490020+1039387008+1039412518+1039420891+1039283672
2677+1039059668+1038868704+1038747322+1038698770+1038766406+1038966458
2669+1039234211+1039503651+1039745051+1039917971+1039999497+1040000276
2660+1039891682+1039660084+1039449841+1039487424+1039887853+1040589138
2652+1041305548+1041615557+1041400835+1041081868+1041114064+1041456009
2643+1041771405+1041846311+1041630162+1041164044+1040618542+1040191306
2635+1039961136+1039976325+1040332485+1040954515+1041491839+1041707988
2626+1041826968+1042178325+1042645546+1042836251+1042718569+1042678845
2618+1042926021+1043245053+1043451466+1043687608+1044045585+1044297890
2609+1044311586+1044334110+1044539095+1044716623+1044688387+1044563825
2601+1044366305+1043899473+1043194877+1042673911+1042636004+1042886491
2592+1043104198+1043332746+1043766279+1044217791+1044275561+1043976586
2584+1043841314+1044181636+1044749143+1045171576+1045474510+1045986519
2575+1046770954+1047449456+1047800748+1048158141+1048789259+1049342291
2567+1049539162+1049916743+1051059869+1052448290+1052884419+1051916419
2558+1050173656+1048535397+1047560906+1047442640+1047935241+1048506772
2550+1048812237+1048762387+1048200008+1047092452+1046010925+1045779586
2541+1046583364+1047791271+1048605045+1048700592+1048373642+1048168916
2533+1048326322+1048704941+1049209745+1049913757+1050713705+1051307240
2524+1051566685+1051559155+1051283548+1050828790+1050625363+1051041435
2516+1051839761+1052437450+1052605891+1052665803+1053099076+1054055003
2507+1055129390+1055707152+1055609008+1055144319+1054480616+1053454197
2499+1052175669+1051283289+1051274656+1051923040+1052569217+1052722794
2490+1052268490+1051429206+1050736618+1050770956+1051687223+1053038125
2482+1054057145+1054108293+1053150355+1051923429+1051307695+1051348069
2473+1051305683+1050741681+1050046238+1049787312+1049954520+1050025986
2465+1049676641+1049286403+1049469839+1050088689+1050285430+1049696763
2456+1048936864+1048589856+1048542926+1048627309+1049014951+1049616470
2448+1049922390+1049762971+1049510407+1049409602+1049355273+1049296594
2439+1049270890+1049099788+1048547535+1047787571+1047367020+1047623868
2431+1048298606+1048840408+1048968216+1048808602+1048647691+1048706694
2422+1048979575+1049247068+1049399217+1049560128+1049763231+1049862089
2414+1049862348+1049932970+1050132827+1050471916+1051015666+1051689494
2405+1052313537+1052859104+1053280564+1053274397+1052644902+1051686444
2397+1050894739+1050543447+1050675733+1051180926+1051759207+1052027674
2388+1051598621+1049912329+1046376886+1041042858+1034734987+1028084069
2380+1020834811+1012529342+1003455989+994452739+986036663+978023677+969866331
2370+961312257+952655950+944271485+936443816+929992430+926065712+924764659
2360+924999308+926209227+929215265+935000157+943681650+954522821+965572288
2350+973809602+976714771+973634346+966411052+958929093+954389366+953110968
2340+953811929+955385862+957433442+959956551+962502638+964243649+965217750
2330+966390801+968128306+969819142+971160633+972659141+974884768+978055677
2320+982332130+987743272+993607029+998655260+1002051600+1004067050+1005686160
2310+1007789238+1010801832+1014779765+1019382649+1023832152+1027377980
2302+1029963338+1032157094+1034413229+1036688059+1038675272+1040075247
2293+1040827292+1041418621+1042622503+1044594073+1046663138+1048261802
2285+1049473409+1050444979+1051021118+1051222014+1051388053+1051667360
2276+1051879226+1051842292+1051492623+1050911356+1050353196+1049940240
2268+1049532801+1049274395+1049786793+1051288936+1052939917+1053560260
2259+1052852743+1051595830+1050665218+1050264919+1050280497+1050667619
2251+1051078304+1051081160+1051178719+1052362285+1054349239+1055695273
2242+1055905516+1055990029+1056696053+1057446670+1057415838+1056826132
2234+1056656588+1057434402+1058710464+1059537415+1059354239+1058729288
2225+1058994055+1060574219+1062238507+1062594342+1061544231+1059869688
2217+1058373452+1057617707+1057687810+1058258692+1059118097+1060278685
2208+1061724421+1063338923+1064668860+1064952970+1064111609+1063053774
2200+1062417074+1062095056+1062130951+1062651203+1063023007+1062352748
2191+1060593238+1058432195+1056474516+1054958612+1054060001+1054301270
2183+1056309775+1059806985+1063436093+1066032680+1067331979+1067199823
2174+1065375208+1062634067+1061015671+1061776608+1063783360+1064830680
2166+1064139845+1062928108+1063259084+1066417011+1070889491+1072576497
2157+1069810171+1066017231+1064804002+1066356450+1068807314+1070325879
2149+1070312443+1069566110+1068797967+1067434083+1064922333+1061917982
2140+1059104596+1056499895+1054751615+1055302569+1058384552+1062191772
2132+1064646855+1065087658+1064147309+1062775311+1061441284+1060075322
2123+1058852357+1058570064+1059570519+1060809972+1061057408+1060568637
2115+1060404415+1060599469+1060269078+1059217280+1058353135+1058580320
2106+1059838207+1061135754+1061495354+1060960627+1060362938+1060107323
2098+1059825420+1059255122+1058738245+1058674244+1059011970+1059374426
2089+1059389485+1058977633+1058495742+1058346579+1058347099+1057970946
2081+1057382669+1057464196+1058439790+1059326718+1059293484+1058799196
2072+1058715137+1058995158+1058963547+1058567338+1058659704+1059902727
2064+1061658343+1062388513+1061253630+1058931741+1056881046+1056247526
2055+1057308282+1059044360+1059269727+1056538322+1052472956+1051021378
2047+1054201893+1059595379+1063483996+1065188138+1066619724+1068446416
2038+1068952842+1067143546+1064832043+1064187489+1064938755+1065768951
2030+1066600965+1067528396+1067604730+1066654386+1066326072+1067605639
2021+1068937199+1068419089+1066585062+1065557215+1066536250+1069247468
2013+1072380405+1073741823+1072056375+1069180351+1068101096+1068743833
2004+1068492177+1066424605+1064348530+1064203262+1066052737+1068179896
1996+1068705471+1067378390+1065724488+1065423891+1066714817+1068286348
1987+1068358009+1066001588+1062069676+1058678918+1057500805+1058845411
1979+1062286864+1067065719+1071470304+1073441096+1072600773+1070284791
1970+1067565785+1064809065+1062881958+1062799847+1063961018+1064574416
1962+1063997303+1063416685+1064026967+1065204495+1065042481+1062502560
1953+1058732728+1056219225+1056680410+1059675673+1063008597+1064586100
1945+1064084671+1062783749+1062002235+1061996133+1062398185+1063001262
1936+1063610765+1063789656+1063248049+1062213646+1061231691+1060708907
1928+1060483735+1059819902+1058350734+1056945371+1056718057+1057319382
1919+1057639906+1057716889+1058433104+1059637571+1060193134+1059648411
1911+1058772518+1058561366+1059118617+1059856057+1060450371+1060927653
1902+1061117514+1060746685+1059969584+1059322239+1059246229+1059770116
1894+1060386111+1060372674+1059471661+1058196638+1057566623+1058411879
1885+1060625238+1062934794+1063866769+1063358915+1062625239+1062387929
1877+1062293550+1061914477+1061337688+1060729483+1059924147+1058611541
1868+1057018070+1056097844+1056385394+1057410710+1058368779+1058651461
1860+1058063508+1056955043+1056019563+1055713967+1055894157+1056030662
1851+1055723185+1055052796+1054411098+1053980291+1053600374+1053234737
1843+1053163142+1053464064+1053881174+1054151199+1054050134+1053382797
1834+1052074410+1050126012+1047668072+1045414923+1044490218+1045005926
1826+1045910899+1046317234+1046080183+1045323140+1044101538+1042688581
1817+1041457372+1040230252+1038351762+1035434326+1031666117+1027653782
1809+1023968462+1020588414+1016896539+1012140857+1005818317+997905097+988869652
1799+979197051+968909561+957573647+944126022+926760831+904666830+880120926
1789+855240931+829009190+800421807+771881159+747840123+730656549+720578653
1779+718204446+724089105+737477077+757673310+785490214+819442653+851668945
1769+876172917+893578158+904830533+909421409+907062716+897353831+880087108
1759+854578137+817516649+768536291+717172445+675167945+648967166+644326374
1749+664165732+699355417+736471365+768951519+795512418+816713974+833651604
1740+846477263+853950265+854398532+844821544+822399554+791408431+756251980
1730+714472587+668165020+627481175+602961560+600015498+615437225+639750881
1720+667505861+699688080+733744049+759766522+775079395+785220644+795187869
1710+807408049+822303552+839309533+856465195+870094113+877874982+879947617
1700+877169023+870204525+858479347+841584167+822478874+803398311+781745567
1690+754833831+724852639+694497762+659567197+616501291+580300702+564902797
1680+564552543+572769346+589580532+617283065+651544215+682874102+710282399
1670+739809157+771154428+796520468+814215660+828935907+844777990+861496809
1660+875818379+886381218+893760359+898912446+904770880+916196175+928933881
1650+935805558+939321333+943793684+950747147+957426107+961794732+964729759
1640+967521854+970674134+974541720+980323756+987824019+993908925+997167981
1630+998186805+997556272+995689076+992652206+987776960+980609035+972266177
1621+963797848+953770776+939047414+918231617+893960736+867175184+835316931
1611+797488533+757046152+719747742+690287646+671363451+664418037+669326257
1601+683657304+703727936+726664207+750996947+775690066+799215977+820077146
1591+837956748+853594429+867728800+880602232+892160138+902203827+910270429
1581+915630681+917620296+915583232+908682540+897586987+884799106+871406330
1571+858516086+850212109+849138241+850623183+848624740+841303562+829597143
1561+812633743+786716490+760185514+751796571+757891667+770626776+787214478
1551+806444398+827078513+846193932+861263523+872954948+883239907+893143846
1541+904799311+920592387+935325355+944270122+949414159+954020873+959706388
1531+964987126+967883142+968257542+966688087+963434548+958000104+949150950
1521+936985683+924834957+915276728+908554928+905357665+905570115+907004297
1511+907527275+906771206+907604453+917604458+937397536+953549888+962184126
1502+966659462+969080598+970231579+970578911+970072874+967929747+963076181
1492+954093637+939854762+921804058+903427053+886450411+871245873+858485578
1482+849107669+843708276+841975184+842972264+845737486+849233853+851668685
1472+850031270+842298759+829153420+812607844+796369552+786080634+783782567
1462+784995731+785305026+784359875+786457760+795887986+808042803+817961735
1452+825315562+830360872+833120837+833888266+832593964+828218848+819415910
1442+805775957+788546038+769264904+749191156+732907557+727366077+733420928
1432+748603008+771910108+799877733+825320431+843928710+856334272+864225423
1422+868060164+867527255+863025565+857271245+853270464+850744694+847811614
1412+843064111+836020813+827514966+819734747+815669316+817901759+826032621
1402+836411440+846073005+854102933+859654863+861016801+856495378+846017313
1392+832175945+818461411+807776867+803236750+807013593+817074808+828630766
1383+838060084+843356595+843945327+841235277+838053853+837220995+840107924
1373+845493620+850962856+855477398+859346866+862974740+866672393+871165969
1363+877288976+884722447+891900953+897577510+901434776+903583550+904048499
1353+902552133+898708888+892421010+883995912+873756260+861653371+847290908
1343+829878332+808502104+784138078+761709597+747005772+741448389+742996423
1333+750009798+762327538+779811450+800774397+821933047+839659267+851283965
1323+855749824+853806295+848148886+843065409+842370225+846707239+853446889
1313+859036338+861129420+859213931+853986225+846614678+838406832+830397157
1303+822755714+814560591+804217343+790273548+772134307+750319483+726276111
1293+702039892+679867091+661661382+648411083+640142288+636202392+635290539
1283+635273468+633349022+626938659+614994021+598650640+580416760+562494902
1273+545847354+530838811+518510848+510866971+509837437+516108763+528772504
1264+545713834+564256619+581678412+595564308+604058535+606029262+601584887
1254+593067487+585172832+583020552+589451427+603954031+623812473+645995205
1244+668327944+689662630+709420591+727076968+741993437+753594248+761702651
1234+766879598+770480729+774213368+779427248+786635677+795532021+805358328
1224+815291411+824668022+833120383+840656411+847504851+853685628+858640842
1214+861269235+860363743+855197117+845816287+832715670+816170679+796052208
1204+772595816+747548418+724322650+706436103+695328412+689466797+685385852
1194+679649708+670331775+657369416+642246793+627812150+617985130+616320193
1184+623825779+638107170+654738297+669444068+679387147+683219552+680620109
1174+672092194+659050125+643622038+627947292+613435991+600585341+589495825
1164+580563327+574589807+572210797+573352496+577373983+583715022+592320765
1154+603430338+617048611+632660458+649405501+666497228+683442583+699804463
1145+714851336+727601764+737128577+742593788+742958062+736813440+722746251
1135+700250848+670627049+637037197+603619810+574335555+552119913+538477299
1125+533432185+535656481+542713963+551537997+559155423+563502757+564110962
1115+562225592+559939338+558750840+558767586+559245388+559832042+561261941
1105+564910975+571715730+581328938+591895346+600466946+604002518+600663817
1095+590915662+577900661+566511781+561188138+563893189+573892156+589073457
1085+607254759+626697714+646144887+664730188+681832754+697011848+710078387
1075+721110459+730273387+737523163+742263721+742978378+737236262+722959609
1065+700786289+675016900+650843838+630018175+610097290+588676598+567762788
1055+553233960+550326585+560007818+578904881+601497389+622326557+637517075
1045+645949833+649782627+653344488+660552268+672570125+687292318+700728454
1035+709110712+710165951+703137062+689034692+672021247+659381555+656955032
1026+662636198+666052790+658001637+640689867+626243605+624574059+635003053
1016+649917964+662878181+671168917+673265698+667515273+654341763+638454697
1006+626859274+623442746+625843890+628314098+627413539+624812149+625318899
996+632693887+646964763+665015921+683049683+698400723+710073325+718799540
986+726563402+735195303+745032514+755038037+764061798+771725829+778254912
976+783838908+788273676+791041171+791483142+788793993+782190783+771696815
966+758885566+746492531+737151100+732542699+733333300+739202899+748758662
956+759866742+770596918+780159366+788972755+797768489+806718318+815402536
946+823266944+829877424+834839065+837506533+836863212+832327315+825212356
936+818835421+816315493+818415455+823977771+831775971+840978364+850334334
926+858214709+863547440+865747688+863325838+853202958+832821473+804387666
916+776680914+760433859+760568288+773337280+790825800+807064742+820164839
907+830751824+839846597+847968696+855266766+861749178+867261254+871632281
897+875001814+877760870+880077307+881663897+882137869+881429768+879460858
887+875258467+866491164+849863219+822603306+785516827+745713483+714672184
877+701325040+706432923+723549899+744390491+762930031+776087055+782606206
867+782033312+774652678+762384594+749626181+742301045+744628256+756065105
857+771532788+784523902+789683907+783232781+763529668+733698742+702987251
847+682094406+675442513+679381630+688342299+700467192+716433902+735571975
837+755279826+773037397+787531887+798441538+806061171+810956993+813536509
827+813945246+812453813+809751099+806578178+802976722+797921351+789663655
817+776674034+758916852+738756774+720524583+708734300+706207296+713134990
807+727102348+744049390+760179867+773663322+784600560+793536499+800413823
798+805135622+808826783+813805885+821741888+832027561+842369965+850794804
788+856671544+860018228+860415606+856750863+847633762+831828418+809094601
778+781841244+755436843+735120072+722909823+718644795+721291362+725927091
768+723187118+708624603+691774730+689323087+708460186+741172977+774423546
758+801079343+820634267+834635702+844372952+850947667+855207113+857400481
748+857365494+855283188+852310124+850095726+849378602+849473890+849436437
738+849287988+849776824+851241773+853121691+854597675+855232688+854387303
728+849865166+837155111+810443557+766836628+712821995+665797111+643550572
718+649117107+669342419+688337431+698339059+700131608+698849510+700377097
708+708791356+724811940+745962023+768118207+787618672+802852095+814138093
698+822492765+828687237+832715605+833441751+828583966+815256554+792169109
688+763540508+740043157+732373738+742874068+764594968+787818074+806583760
679+819839641+828737088+834412347+837136028+835881776+828852433+815336458
669+799287508+789112311+784895380+779658003+771546029+763475338+758470532
659+757220759+759119825+763443273+769238875+775286781+780533247+784817099
649+788984634+793781598+798790429+802573827+803443683+800231296+793175406
639+784491706+777178838+772123791+767112624+760567833+755694989+758148774
629+769553363+785687994+800918497+812523462+820855155+827163285+832465637
619+837992708+845117273+853951758+862805131+869671421+873326102+872631762
609+865712766+850429752+826459922+798169891+774802230+765373755+772226414
599+789767121+809177166+823537488+829012111+824293947+811947777+799584990
589+795756414+803239606+817696319+831936817+840488879+841122139+834350294
579+823093505+811845479+805007295+805442775+813398770+826459078+840886711
569+853440593+862934431+870326101+876871606+882551020+886690772+889451516
560+891611845+893047520+892842664+891108664+889242831+887799237+885160199
550+879096000+869428463+858595860+849613835+843932085+840901186+838279609
540+833220214+824457974+814474845+808328990+809636598+818207743+831042035
530+844444353+855468181+862197121+863299679+858022966+846437798+829473750
520+809907791+793524880+786941857+792382987+805940504+821213392+833025809
510+838750595+838544895+835342570+833420850+834987773+838115257+838873404
500+835469469+828586043+818158931+802861312+782952954+762048231+745110146
490+734762095+730425925+730958185+736426837+747368748+763572638+783484371
480+804205335+822329971+835549113+844032695+849997971+855674399+861667067
470+867417298+872888416+878481045+883721668+887169028+887607818+885076076
460+880766584+875681744+869292867+859881723+846523025+830452525+815281934
450+805256744+802321717+805985811+814342884+824257338+832843477+839107663
441+843494268+846761179+849812849+853400673+857160769+859669144+860146036
431+859846347+861216723+865008754+869018103+870587233+869706602+868317856
421+868122608+871758920+881629430+894078612+903451134+907278022+905343580
411+898728556+888613271+875875630+862811427+853590080+851222365+854456302
401+858543932+859471234+859413983+865303055+876896142+887752502+895111392
391+899287105+898442499+888724981+869182325+845287726+827233842+820632384
381+820428827+817627904+806681060+787654047+768501759+760255487
##END=
