##TITLE=X9525
##JCAMP-DX=5.0
##DATA TYPE=LINK
##BLOCKS=1


$$ === CHEMSPECTRA SPECTRUM ORIG ===
##TITLE=X9525
##JCAMP-DX=5.00
##DATA TYPE=INFRARED SPECTRUM
##DATA CLASS=XYDATA
##ORIGIN=Default
##OWNER=
##XUNITS=1/CM
##YUNITS=TRANSMITTANCE
##XFACTOR=1
##YFACTOR=8.930231e-010
##FIRSTX=3996.5625
##LASTX=399.65625
##MAXX=3996.5625
##MAXY=0.9588762513751113
##MINX=399.65625
##MINY=0.5367431639494837
##NPOINTS=1765
##XYDATA= (X++(Y..Y))
1765A072702406A072663294A072609097A072439298A072532608A072358137A071608860
1758A071592040A072295397A072483817A072331038A072482682A072543620A071800284
1751A070675233A070231180A070889351A071903738A072502439A073070037A073480984
1744A073127637A072251145A071603453A071974888A072569317A072070667A070991937
1737A070373614A070525658A070620836A069968873A070059179A071428649A072300069
1730A072370151A072178326A071760237A071650709A072126799A072820678A073148195
1723A072370418A070995208A070329495A070782759A071798215A072123061A071750359
1716A071308308A070725292A070853976A072021810A072021609A070844298A070685245
1709A071229549A071582162A071926765A071594242A070997677A071037858A071710245
1702A072119057A071685950A072027616A073189844A073032526A071916420A071090386
1695A071775455A073741823A073736150A072767282A072228785A072046705A072042434
1688A071861288A071321390A071086582A071387534A072137078A072737381A072531339
1681A071875972A070937340A070831883A071926832A072166579A072376889A072784369
1674A072547358A072257886A072063125A071222073A070175248A070441360A070867125
1667A070319617A070383222A071155195A071819439A071799483A070822539A069928292
1660A069521016A069413356A069828642A070413127A070798444A070666823A070616298
1653A071408825A072279778A072545956A071860354A070630448A069820233A069848265
1646A070724558A072035693A072646341A071761705A070579321A071054010A071417502
1639A070159964A069400541A070024138A070265754A069205446A068124114A067189353
1632A066772865A067972603A069558860A070018465A069972611A069977950A069444126
1625A068548944A068653800A069587226A070121919A069550383A068801504A069068152
1618A069128089A068886206A069585825A070327827A070157294A069610654A068855370
1611A068276492A068087604A067498114A066796560A068333092A070249068A070317481
1604A069794269A069344743A068939535A068336095A067369030A066948137A067433906
1597A067552979A067099247A067318037A068392762A068366197A066947203A065831163
1590A066036203A066563954A066144126A065217111A064869504A065310821A065881422
1583A065524935A064892264A064837400A065541023A066680758A067612982A067952780
1576A067479159A066609474A065828160A065504647A065461063A065639338A066117565
1569A065836636A065074144A065012471A064813505A064252715A064645642A065390113
1562A065168854A064226749A063160637A062640428A062797679A062936107A062558265
1555A062237289A062484646A062691955A062775386A063040763A063053912A062475235
1548A061620568A060913073A060272790A059250794A058381910A058250156A058416684
1541A058435639A058242613A058329849A058377104A057880854A057563485A057633100
1534A057120900A056157306A056005328A056351133A056304011A055827520A055239031
1527A054721825A054113847A053786998A054091221A054680177A054735441A053749954
1520A052565301A051981214A051915274A052150949A052200808A051933295A051538032
1513A051060540A050863242A050692843A050438879A050407442A050274753A050079458
1506A050186049A050966496A052181852A052832080A052720549A052619832A053203315
1499A053701965A052765602A051067481A050450893A051185886A052003911A052359527
1492A052257941A051506595A050939331A051322780A052289512A053309706A053474899
1485A052570707A051862345A051902592A051874292A051418492A050976708A050824730
1478A050982181A051187688A051246491A051200704A050923846A050492808A050258267
1471A050617688A051400004A051715173A051426435A051166530A051394731A052069921
1464A052473594A052168703A051775577A051831442A051796801A051340868A051184485
1457A051356152A051243487A051239349A051632009A052272558A053070426A053308037
1450A052685709A051952117A051669786A051776444A051811552A051513003A051495315
1443A051663379A051401272A051470686A052213689A052689713A052401109A051764964
1436A051251296A051046123A051172604A051464346A051853935A052202743A052294250
1429A051888442A050808578A049771297A049880692A050788488A051556654A052180451
1422A052085206A050815453A049998897A050718406A051682668A051844457A051610984
1415A051535095A051809550A052201008A052154487A051460074A050652796A050635642
1408A051191359A051470486A051845458A052010118A051158585A050499883A051001204
1401A051555386A051461275A051678997A052248731A052732697A053728529A054502769
1394A053939710A052970642A052488344A052114573A051964998A052175044A052202343
1387A051932427A051760025A051819294A051546442A050892209A050506625A050617821
1380A050975507A051336796A051597435A051475626A051353549A051645825A051514404
1373A050740832A050126246A049785514A049779907A050216819A050644917A050746572
1366A050793694A051229070A051573340A051188623A050218421A049530348A049790253
1359A050132053A049970197A049986215A050387085A050484198A050300383A050330018
1352A050490806A050745971A050777875A050751111A050749642A050070981A049333518
1345A049294072A049321104A049174932A049505653A049800598A049390385A049409073
1338A050153211A050730083A050816721A050222358A049332851A048780671A048275012
1331A047787442A047791380A048265067A049156044A049895910A049795592A049370628
1324A049242078A049544165A049907323A049280055A048070773A048004095A048231628
1317A047338583A046624347A046823046A047199687A047419611A047653018A047735648
1310A047052248A046411498A046986704A047839169A047971524A047969455A048007566
1303A047799789A047408665A046586366A045762671A045603485A045649072A045341445
1296A044703965A044405416A044671795A044578819A043741973A042987957A042867950
1289A042748543A042012081A040905786A039887461A039052417A038320560A037658719
1282A036879139A035852738A034562761A032808174A030326669A027319349A023722205
1275A018577850A011620773A003396546I93798777I82464109I69504339I54652821
1268I37805100I19945060I01621077H83355162H66717553H52659698H41699468H34653020
1260H31825443H33632492H40451073H51453219H64808652H78635237H90933834H99612793
1252I03846749I03581839H98578515H89409583H77490163H64023400H51096735H41700469
1244H37206208H36960251H39134332H42217941H46234243H51292097H57205619H64568104
1236H73387695H82406719H90516412H97974609I05487403I12137921I17137173I21112360
1228I24742476I28272608I31304557I33514544I35011897I36199620I37211138I36902042
1220I34123724I29025890I22907528I17939712I15774711I16956962I21500547I28596187
1212I36427821I43407725I49371706I54459862I58655707I62450816I66185454I69800486
1204I73115500I76061348I79153034I82854833I86694795I89984846I92463348I94450741
1196I96404694I98351974A000356988A002373348A004403057A006476885A008221460
1189A009705064A011245400A012719325A014042875A015101981A015528413A015549371
1182A015946636A016707861A017329388A018096420A019059614A019255710A018748716
1175A018573244A018768606A019240759A020258150A021331807A021978831A022324102
1168A022569789A022870208A023224355A023860433A024755414A025297382A025256067
1161A025087269A025506227A026159792A026025568A025572371A025722012A025967567
1154A025885938A025941202A026275661A026511603A026204911A025677627A025350177
1147A024949241A024631870A024850259A025289106A025363192A025299785A025643654
1140A026279065A026751551A027003913A027056775A026896384A026691881A026432911
1133A026416626A026870954A027268156A027316746A027263751A027204481A027137469
1126A027080002A026853404A026677197A026768704A026689679A026397470A026284671
1119A026345008A026482436A026631010A026540103A026565199A027149550A027624840
1112A027482740A027212891A027169240A027313475A027592068A027833017A027935737
1105A027770610A027565103A027895023A028447336A028821574A028982963A028777522
1098A028519354A028341679A028190435A028294090A028409825A028493724A028731268
1091A028416633A027489214A027084274A027366738A027636387A027493953A027107835
1084A027455709A028713781A029577058A029550227A029290656A028941848A028587500
1077A028814699A028861220A027922321A027345446A027681706A028028179A028207655
1070A028328060A028631084A028835857A027934936A026771040A026737802A027178250
1063A027322085A027325289A027122051A026810820A027091415A027845231A028198311
1056A027879538A027312407A027139739A027455241A027844030A028041795A028172214
1049A028274600A027692853A026526955A025681966A025275423A025476992A026075827
1042A026495585A026636883A026131959A025908297A027096288A028239826A028135504
1035A027330896A026295417A025747843A026263246A026889980A026987360A027370943
1028A027688114A027152220A026453869A026122414A026681602A027737105A027335768
1021A025616556A024722376A024842783A024748606A024501450A024555313A024659102
1014A024737460A024888904A024877557A025143135A025497083A024735591A023722205
1007A023375599A023211607A023415112A023977170A024302751A024113530A023501947
1000A022959178A023176633A023735754A023328210A022413206A021922164A021499269
993A021664863A022366284A022629926A022602160A022176929A021680812A021927170
986A022195418A021760175A021230088A021350225A021930908A022046110A021668134
979A021352364A020882214A020223776A019534303A018705599A017878298A016845021
972A014886662A012116553A009912907A009239719A009155954A008095179A006315095
965A005770191A006480823A006609373A006106051A005629226A006424824A008875292
958A011134470A011531134A009659744A007044616A005824988A005669606A006267506
951A007291505A007471115A006727311A006198492A007118970A008824833A009392498
944A009281301A010427309A012085850A012260188A011636992A012016770A013062527
937A013514790A013774894A014613276A015503184A016027598A016432672A016785485
930A016812116A017021027A018148347A019414429A019804886A019452941A019080505
923A018405782A016948543A015447919A014847884A015925478A017591428A018220365
916A018812524A019824242A020611030A021181230A020077672A017446258A016217420
909A016511965A016606742A016216486A016291440A017626136A018943344A018307867
902A016872453A017539835A019005217A018563366A018358793A020199281A022152301
895A022856191A021847878A019204583A016362590A014968892A016064174A019179621
888A022197017A022929744A022408067A023107152A024070546A023341292A021139181
881A019808957A020850176A022890164A023071176A019427978A014997993A014284624
874A016559954A018030406A018226972A018951954A020296194A022139819A022980603
867A022437434A021823983A019653375A016912300A016035073A015370362A013401390
860A010905469A010657578A013389710A015875420A016253929A015894108A015311493
853A013651617A012693695A013980869A014754975A013980068A013009265A011741247
846A010842929A011234120A012222944A012979830A013224650A013244340A012898869
839A011801718A011331300A011974854A012156066A011771482A011971116A013166916
832A014098606A013380099A011645935A010607119A011260217A013121329A014492267
825A013740254A011721290A010860416A011383829A011616835A010847601A009537267
818A009323550A011070262A012564277A012488588A011831019A010302696A008579212
811A009750850A012080444A011975254A011378890A011138475A009877465A009085138
804A010980156A014109619A016387552A018041355A018963568A018422001A015568394
797A011198545A007140929A005933916A007928117A008443987A007048821A008181413
790A010698493A012337478A013985474A013680317A010808221A008549110A009431210
783A012905743A015037305A014874181A015431700A016309928A015740595A014738022
776A014995723A016327282A017944175A019994775A020750593A018588262A015460601
769A013271905A012189038A011986000A011833088A010858547A009498155A008796867
762A008427101A007671083A007159283A007634039A008094845A007849825A007090269
755A005719598A005064231A005590180A005790281A005277681A005140520A005666670
748A006141225A006380238A006637539A007042146A007750042A008526083A007703120
741A005008232A003061220A003269464A004898904A006388448A006538290A005585842
734A004822415A004894165A005145126A005040270A004480345A003920759A003976424
727A004253015A004035293A003934242A004927938A005513691A004523932A003696163
720A003900402A004362877A004474875A003977960A003479977A003377056A003110144
713A002388632A001499525A001263512A002540744A004236529A004285653A003534974
706A003565944A003850477A003515485A003232153A003399616A003426447A003446871
699A003302235A002628113A002172980A001924222A001401610A001041856A001356424
692A001902063A001936169A001464150A000924786A000801775A000852034A000629240
685A000740036A001541107A001644428A000596601I99531021I99171200I99263374
678I99148106I98432535I97180403I95772888I93908039I91030470I87224482
671I82403772I75726289I66112636I54832098I42559665I29169257I17196843
664I07935802I03155607I03889866I08133100I15022631I23627103I32047093
657I37741425I40691078I41054770I36423282I25617099I06145707H75150625
650H31775585G83611672G31357972F72066701F26998546F05408473F01040627
643F11598385F36259386F69642864F98784910G26798435G51637244G62646130
636G63972683G57982538G46673967G32283989G17668614F99656661F80781168
629F66817089F55564250F46282452F39780107F37681451F41339533F49777477
622F58067247F65961418F74330351F80861262F85322017F89601226F99277753
615G15591383G26780147G39998620G59593557G76012977G88533634G99885722
608H12253733H30601076H48668826H60608602H71230436H81178681H88933225
601H95536421I00692256I03813644I07362331I11334647I13399331I14400570
594I14926252I15001406I14692445I14514169I15130958I16926660I19607665
587I22921744I26654847I29882359I32100689I33636420I34953829I36394248
580I37875916I38858463I39850027I40920413I41353720I41897490I42693822
573I43267560I43851177I44199318I45133945I47828032I48948410I48930723
566I48838281I48946074I49229206I49413688I49938503I50796574I51979892
559I52123724I51071762I50492351I50775549I50983726I51338808I51955130
552I52229851I52381629I52350192I52047838I51862688I51555929I50992403
545I50484942I51479707I53170219I52960573I52119122I51626812I51774585
538I51855146I50749519I49052999I48192322I47778574I46959816I45445243
531I42786330I38764823I32702927I22563191I05108426H83041795H60306849
524H32813466G99563411G70949584G51297780G38973487G37845296G43958722
517G51135857G58957279G67709658G76103683G82793044G88938641G94932724
510H01544931H09368022H15320723H18691002H20421561H19958149H16610233
503H10151472H01444814G90413100G78939403G70438182G64656951G62616029
496G65985439G74731143G87858443H02304086H15530836H28684633H41138545
489H51463764H58500802H60712924H57503768H47892184H33006559H15129566
482G96256671G79797407G69430205G66781238G69301521G72475970G74862631
475G76669679G78431542G81712516G86819961G92710056G99122429H05801313
468H12003774H17433396H22209654H26188778H29604043H32895562H36253760
461H39812125H43491032H46927655H50016937H52927144H55858375H59122263
454H62511830H65271327H66830819H67272870H67255580H67305041H67444471
447H67364177H67253848H67823648H68920599H69456159H68716827H66548956
440H63273922H59479013H55137798H49710445H42760910H33998987H23169511
433H11419957H01798094G96025403G92635969G90007893G88684544G89527197
426G92617481G97856547H04665183H12350847H20499452H28503621H35561149
419H41107041H45390655H49098863H52528611H55693315H58539981H61175533
412H63631608H65605251H66800183H67071634H66355863H64613090H62028064
405H58933375H55465115H51306781H46730357H42257521H37104422H30941008
398H24536377H18848720H15156998H14127994H15533239H18948169H23588067
391H28205005H31580890H33181764H33848411H34815743H36095108H37246589
384H38032175H38211652H38016357H37352112H35341759H31356227H25716759
377H19742566H14764071H10834805H06802886H02486566G99849947H00153502
370H01279620H00484223G97760167G95115271G94169497G94185383G93241344
363G89951894G83432529G73979464G63598779G54930833G48630858G42807174
356G35640051G26493278G15204063G02139970F88783870F78191070F74668880
349F81456025F97234829G16090634G32581338G45136501G54210256G60653198
342G65595183G69838550G73517056G75711691G75472478G73633926G71524056
335G69388957G67261466G65516691G64353062G64084548G66206498G72041795
328G80437890G88305700G92350235G90725065G83415910G70504329G52647894
321G33617884G19484206G14485689G17446221G23625521G28974115G31015371
314G29505938G26058235G21773953G16709622G10952953G05324965G01017123
307F98807269F97980368F96671169F93881370F89479751F83435542F76417727
300F69334436F62668366F56796826F52200980F50480232F54234160F63835799
293F75995500F87118186F95861154G01713404G04462155G04786001G03449904
286G01416924F99149136F96079943F92616756F89982206F88454484F87697531
279F88018040F89661564F91595027F92174438F90601130F87751528F84751750
272F82479557F82616917F86394806F93162929G01002773G08430134G14609367
265G19074260G22702107G26527384G29785265G31475043G33060031G37454909
258G45564535G54931567G62148148G66304213G69132256G72210726G75060996
251G76389885G76215745G76601266G79515277G83940457G87669489G89571115
244G89061518G86308696G81931639G75382172G66129875G56324864G48888226
237G44361060G41509789G39421277G37779289G35015654G28351520G16169793
230F99815917F84300355F76016191F77075230F81516629F81031929F73796059
223F64002995F57489104F58666014F67295516F79095195F89527273F95720523
216F97069702F94388564F88802491F81798426F74571233F68454806F64997760
209F64697208F66207242F68214792F70877242F73194554F74599733F77031112
202F81577234F86863555F92149876F99397761G08576972G17067244G24742829
195G31683620G36437385G39846175G43476157G47231019G50924476G54251704
188G57351266G60858438G64155297G66743660G69056367G70627940G71394371
181G73130003G77258969G82297067G85793826G88259513G90231688G90981699
174G91807332G93795326G95488241G95406412G94083130G92045542G89561704
167G87962365G86767700G84607838G82441235G81198914G79888714G77423362
160G74507148G72243498G70707100G70239219G71088546G72291955G73263092
153G74712852G76720072G79102794G82458789G85637777G86556052G85744302
146G84526073G82937550G81422443G79756893G77429502G76440344G77394795
139G78529657G79853339G82373156G86845257G91856123G93731652G93171729
132G95587424G98917722H01117494H03041082H03204140H01669009H00585541
125G99467633G98176922G98906843H00545227H00389912G98889556G97836790
118G98683782H01487063H04506931H06483712H08341287H10521639H12444490
111H14719753H16891962H17426652H17252384H17573827H17963016H19211544
104H20515537H19385681H17503545H16900639H16436830H15428382H15057014
97H16056785H16875410H16617374H15845003H13889247H09261964H02789187
90G97060615G92688430G89597679G88720052G89766076G91498571G94210279
83G98092156H00909320H01292102H00935217G99952467G96630845G92497474
76G90421577G90911083G93190351G97544582H01690969H02853529H04217860
69H05353322H03603607H02874754H04434447H06420038H08953537H09759677
62H08165280H08111017H09538354H10312928H12036011H13960264H12670888
55H10306921H10812379H12554752H13589897H14437222H14942013H16675509
48H20274789H22681473H22535435H20898786H19499348H20660574H22287475
41H22420100H22959732H22895590H23155961H24704374H23603085H20428636
34H22308236H29272388H30633448H26003495H26134181H33448076H39804984
27H42415039H44444748H43577199H37503890H30929594H29053598H32780695
20H36534689H37248458H37636378H37912168H36765693H33680348H32381093
13H36118468H39673096H38455804H34783639H32046035H29387386H31315112
6H41453847H50543153H51478915H52081287H58095327H59659224
##END=


$$ === CHEMSPECTRA PEAK TABLE EDIT ===
##TITLE=X9525
##JCAMP-DX=5.00
##DATA TYPE=INFRAREDPEAKTABLE
##DATA CLASS=PEAKTABLE
##$CSTHRESHOLD=0.93
##MAXX=3996.5625
##MAXY=0.9588762513751113
##MINX=399.65625
##MINY=0.5367431639494837
##$CSSOLVENTNAME=- - -
##$CSSOLVENTVALUE=0
##$CSSOLVENTX=0
##NPOINTS=28
##PEAKTABLE= (XY..XY)
413.9296875, 0.7406620972256859
426.1640625, 0.7433355440522483
442.4765625, 0.7403640141521138
552.5859375, 0.7058647269994287
575.015625, 0.7043452258692012
685.125, 0.6933791629639464
717.75, 0.6878414150929589
823.78125, 0.5935899612495048
850.2890625, 0.5871529578703024
862.5234375, 0.6036980745370121
952.2421875, 0.6094700096787667
968.5546875, 0.6141297809959662
1001.1796875, 0.5808938732693593
1048.078125, 0.6380522248964159
1072.546875, 0.6823451517170588
1111.2890625, 0.602494894691128
1203.046875, 0.7270351049986614
1270.3359375, 0.7043135164049664
1374.328125, 0.6847533581805978
1411.03125, 0.6810337303272699
1455.890625, 0.6589128962334069
1602.703125, 0.816682278194304
1672.03125, 0.5694642661845182
1710.7734375, 0.5367431639494837
1749.515625, 0.8065388199455218
2877.1171875, 0.8178079713188241
2932.171875, 0.7474248406038674
2966.8359375, 0.7428393357667333
##END=


$$ === CHEMSPECTRA PEAK TABLE AUTO ===
##TITLE=X9525
##JCAMP-DX=5.00
##DATA TYPE=INFRAREDPEAKTABLE
##DATA CLASS=PEAKTABLE
##$CSTHRESHOLD=0.93
##MAXX=3996.5625
##MAXY=0.9588762513751113
##MINX=399.65625
##MINY=0.5367431639494837
##NPOINTS=49
##PEAKTABLE= (XY..XY)
2966.8359375, 0.7428393357667333
2932.171875, 0.7474248388178212
2877.1171875, 0.8178079713188241
1749.515625, 0.8065388199455218
1710.7734375, 0.5367431639494837
1672.03125, 0.5694642661845182
1602.703125, 0.816682278194304
1551.7265625, 0.8473345030972912
1533.375, 0.8488116258163081
1508.90625, 0.8488050094081603
1498.7109375, 0.8498247256953573
1455.890625, 0.6589128944473607
1411.03125, 0.6810337303272699
1374.328125, 0.6847533581805978
1315.1953125, 0.7744792674369211
1307.0390625, 0.7744777198278888
1270.3359375, 0.7043135164049664
1203.046875, 0.7270351049986614
1156.1484375, 0.7142844792047758
1143.9140625, 0.7092117061363807
1111.2890625, 0.602494894691128
1072.546875, 0.6823451517170588
1048.078125, 0.6380522248964159
1001.1796875, 0.5808938732693593
968.5546875, 0.6141297809959662
952.2421875, 0.6094700096787667
907.3828125, 0.6931785917617326
862.5234375, 0.6036980745370121
850.2890625, 0.5871529578703024
823.78125, 0.5935899612495048
717.75, 0.6878414150929589
685.125, 0.6933791629639464
668.8125, 0.7083206762639399
650.4609375, 0.7127904292328983
640.265625, 0.712486683499849
617.8359375, 0.7298252574420704
597.4453125, 0.7278647413190235
575.015625, 0.7043452258692012
552.5859375, 0.7058647269994287
534.234375, 0.7169857017288175
522.0, 0.7216618055454928
509.765625, 0.7236227985428751
487.3359375, 0.7318318481989389
477.140625, 0.7348647707581291
468.984375, 0.7326617238494917
460.828125, 0.7376402017157345
442.4765625, 0.7403640141521138
426.1640625, 0.7433355440522483
413.9296875, 0.7406620954396397
##END=

##END=

