##TITLE=PHOS-08
##JCAMP-DX=4.24
##DATA TYPE=INFRARED SPECTRUM
##DATE=23/8/2021
##SAMPLING PROCEDURE=Diamant-ATR
##ORIGIN=Angelika Moesle
##XUNITS=1/CM
##YUNITS=TRANSMITTANCE
##RESOLUTION=4
##FIRSTX=3997.453
##LASTX=373.96442
##DELTAX=-1.4165319
##MAXY=0.89460349
##MINY=0.2332238
##XFACTOR=1
##YFACTOR=8.3316443e-010
##NPOINTS=2559
##FIRSTY=0.89249825
##XYDATA=(X++(Y..Y))
3997+1071215028+1070973294+1070893884+1071106501+1071576162+1072137537
3989+1072547533+1072604336+1072282835+1071664085+1070755526+1069605734
3980+1068553737+1068082860+1068395276+1069256260+1070114813+1070401259
3972+1070016445+1069497350+1069422734+1069776071+1070130409+1070249237
3963+1070232782+1070248450+1070360553+1070555714+1070816120+1071156365
3955+1071561854+1071851877+1071726038+1071085755+1070285221+1069873007
3946+1070007288+1070366133+1070575102+1070478737+1070156163+1069777787
3938+1069463512+1069307054+1069402488+1069777430+1070318273+1070786431
3929+1070996902+1070962634+1070791224+1070549633+1070311977+1070237361
3921+1070445042+1070890880+1071446674+1071904316+1071879134+1071132900
3912+1069961932+1068984265+1068602813+1068777943+1069259909+1069849828
3904+1070471297+1071090834+1071543039+1071642480+1071481300+1071190346
3895+1070638486+1069788876+1069157821+1069456501+1070316985+1070562797
3887+1069863779+1068999002+1068865294+1069431820+1070320705+1071261529
3878+1071559207+1070676617+1069005441+1067461606+1066602839+1066392726
3870+1067029003+1068631000+1070285221+1071103210+1071175967+1071178184
3861+1071348450+1071263818+1070664026+1069860130+1069578548+1070676689
3853+1072850004+1073741823+1072908381+1071648203+1070503562+1069395191
3844+1068332320+1067640814+1067465898+1067624288+1068307639+1069813629
3836+1071316901+1071746427+1071121811+1069985111+1068661834+1067426551
3827+1066840424+1067259362+1068124997+1068683868+1069233224+1070505565
3819+1071737556+1071950889+1071701643+1071751435+1071719457+1071070230
3810+1070031182+1069190014+1069012809+1069241022+1068827378+1067396362
3802+1066115794+1066529296+1068101389+1069381312+1070139852+1070575173
3793+1070616523+1070253601+1069740444+1069367219+1069157106+1068823514
3785+1068212777+1067729595+1067934915+1068816861+1069635852+1069559376
3776+1068749041+1068113765+1068132080+1068526623+1068740671+1068462738
3768+1067816159+1067244196+1067232821+1067848066+1068630142+1069035917
3759+1068674210+1067628366+1066781689+1066921192+1067864448+1068661834
3751+1068385832+1067456956+1067173800+1067854719+1069248677+1070601285
3742+1070868702+1070174620+1069249464+1068528841+1068157190+1068122708
3734+1068460592+1069214338+1070091992+1070686275+1070844450+1070654654
3725+1070310546+1069977885+1069655526+1069176994+1068463811+1067712640
3717+1067191900+1066985578+1067118428+1067730382+1068585000+1068757268
3708+1068230233+1068051454+1068579706+1069258335+1069488336+1069223996
3700+1068744248+1068083790+1067116354+1065906110+1064688140+1063655674
3691+1063018181+1063210623+1064224847+1064848891+1064353762+1063267426
3683+1062195327+1061236833+1060211735+1059029106+1057864004+1057339544
3674+1057852987+1058513517+1058730712+1059134198+1060132612+1060778261
3666+1060353384+1059139278+1057618050+1056117282+1054828130+1053885232
3657+1053452414+1053470013+1053284438+1052341826+1050919109+1049910751
3649+1050215512+1051407155+1052160758+1052113112+1051611330+1051182877
3640+1051176724+1051463886+1051609685+1051302993+1050551679+1049572009
3632+1048545624+1047715616+1047753317+1048790291+1049304163+1048460062
3623+1046775579+1044983715+1043762669+1043735484+1044645044+1045248485
3615+1045133019+1045132232+1045831393+1046525475+1046292397+1045366526
3606+1044636316+1044240056+1043729760+1042999193+1042316415+1041814418
3598+1041320362+1040658187+1039847137+1039073432+1038423132+1037603784
3589+1036190581+1034296272+1032855097+1032341940+1032014286+1031225986
3581+1030084278+1029069554+1028380838+1027625374+1026273267+1024314857
3572+1022264805+1020582039+1019380739+1018625132+1018181941+1017634588
3564+1016629164+1015151146+1013249253+1011038737+1008879085+1007091871
3555+1005565349+1004034033+1002572684+1001395135+1000378979+999332706+998431015
3546+998008141+998042481+998073529+997625187+996575909+995188747+993799725
3536+992564729+991553867+990851845+990496720+990515320+990927820+991527612
3526+991815919+991397552+990458804+989719294+989644964+989869170+989721655
3516+989081371+988316178+987628535+986947760+986224919+985452071+984595021
3506+983707567+982960903+982512919+982361970+982358464+982422278+982596478
3496+982781051+982616652+981888803+980870788+980025256+979495502+979004808
3486+978218011+977150919+976184198+975691144+975674403+975856330+976086045
3476+976393381+976663230+976578598+976030816+975331297+974882598+974868504
3466+975275138+975907910+976444818+976759022+977075516+977514843+977794207
3456+977708932+977550327+977719949+978242692+978915026+979683438+980646725
3446+981736352+982550692+982708724+982359680+982099990+982272831+982596263
3437+982640475+982396881+982256877+982617511+983523923+984623709+985527832
3427+986187360+986826070+987672246+988813596+990060325+990972819+991373014
3417+991653451+992238005+993023229+993690197+994283407+995055539+995880468
3407+996234162+995890984+995416531+995671499+996846331+998281639+999223393
3397+999461263+999329844+999430930+1000260938+1001772151+1003383090+1004614438
3387+1005491591+1006237968+1006882688+1007379319+1007885036+1008631199
3378+1009578174+1010456615+1011118003+1011595104+1011877902+1011989433
3370+1012238321+1012998148+1014189218+1015270475+1015827128+1016036812
3361+1016424488+1017184744+1017945358+1018303488+1018307494+1018255199
3353+1018370879+1018836104+1019696445+1020574528+1020930368+1020728053
3344+1020455843+1020484101+1020792796+1021265963+1021829841+1022296211
3336+1022442511+1022329120+1022259010+1022409388+1022796562+1023536215
3327+1024717843+1026011359+1026817186+1026895880+1026570444+1026296017
3319+1026227624+1026220613+1026149789+1026154153+1026463993+1027053626
3310+1027645048+1027983003+1027945802+1027564064+1027102059+1026931078
3302+1027182756+1027617219+1027854732+1027750569+1027606488+1027907028
3293+1028740827+1029680148+1030269567+1030348762+1029939553+1029256345
3285+1028781677+1028909304+1029540216+1030252040+1030745738+1030953490
3276+1030854192+1030412289+1029743032+1029187881+1029033283+1029237244
3268+1029630500+1030274789+1031324211+1032573658+1033454603+1033593677
3259+1033216446+1032872481+1032853523+1032992525+1032972995+1032687049
3251+1032316329+1032150785+1032338291+1032785989+1033252001+1033472058
3242+1033307659+1032902027+1032585963+1032518930+1032594476+1032762667
3234+1033177957+1033889924+1034640880+1035139658+1035400421+1035638721
3225+1035904564+1036026397+1035907139+1035666765+1035466524+1035349055
3217+1035272221+1035232946+1035334103+1035656248+1036045140+1036209110
3208+1036070680+1035849192+1035792318+1035971669+1036273639+1036512583
3200+1036617819+1036701306+1036892676+1037212603+1037625747+1038084462
3191+1038510268+1038796572+1038850584+1038719165+1038628953+1038693840
3183+1038693983+1038440302+1038159221+1038180826+1038488663+1038855950
3174+1039154129+1039342351+1039402874+1039407953+1039444081+1039453667
3166+1039334911+1039178596+1039226384+1039569920+1040024056+1040308428
3157+1040237031+1039776814+1039119718+1038677887+1038757868+1039192117
3149+1039507608+1039523490+1039541590+1039832829+1040201619+1040299128
3140+1040148822+1040040010+1040049024+1040008961+1039861088+1039724303
3132+1039662206+1039639314+1039654265+1039711927+1039723945+1039597463
3123+1039345284+1038998672+1038557413+1038104278+1037776410+1037569087
3115+1037361406+1037106008+1036788155+1036307764+1035630422+1034934123
3106+1034445147+1034216791+1034141030+1034079577+1033993872+1034007822
3098+1034270446+1034709058+1035016680+1034960879+1034645244+1034355864
3089+1034176871+1033929414+1033544600+1033271889+1033300505+1033377482
3081+1033108492+1032543540+1032141342+1032142415+1032232770+1031863122
3072+1030802684+1029372598+1028132021+1027321901+1026724256+1026037328
3064+1025136924+1023991782+1022707423+1021662724+1021178183+1021002767
3055+1020507852+1019449632+1018233379+1017322173+1016617002+1015633827
3047+1014238939+1012849344+1011816377+1011044388+1010325554+1009613229
3038+1008857194+1007932037+1006736746+1005200065+1003380944+1001613547
3030+1000178095+998831854+997053439+994680455+992035690+989588018+987654003
3020+986289591+985382678+984884902+984858360+985295399+986068604+987052208
3010+988087465+988835559+988910462+988284057+987452547+986968506+986806826
3000+986423013+985402423+983786619+981889519+980131922+978935415+978460675
2990+978509966+978758782+978899501+978609979+977727389+976497901+975426946
2980+974824650+974577694+974336676+973821015+972934419+971700638+970182773
2970+968377030+966094901+963028408+958978166+953933590+947969508+941143870
2961+933408885+924677562+915247221+906105402+898517074+893355172+890960511
2951+891376373+894441937+899789271+906882255+914982952+923164991+930587273
2941+936795163+941700738+945354647+947827787+949226110+949676311+949315964
2931+948415561+947467655+946939045+946933966+947299178+948033608+949320328
2921+951163057+953319847+955641680+958201384+961034371+963979604+966817814
2911+969380451+971541176+973322667+975002714+976885434+978962743+980994052
2901+982840000+984467609+985781943+986780141+987734558+988921622+990310644
2891+991710969+992969717+993893657+994299003+994257438+994026364+993752509
2881+993450109+993129609+992707022+991939182+990662335+989053041+987541185
2871+986444690+985710117+985041789+984247909+983393506+982647844+982034817
2861+981269839+979824300+977250145+973436988+968578129+963089646+957685294
2851+953373359+951170998+951696746+954963123+960488377+967512325+975116248
2842+982394306+988743916+994000538+998294731+1001873523+1004970994+1007661258
2832+1009857324+1011517912+1012759347+1013724065+1014472374+1015040331
2823+1015507201+1015970638+1016518206+1017242763+1018214635+1019359777
2815+1020398325+1021013784+1021146133+1021078027+1021161800+1021478437
2806+1021867758+1022263374+1022784544+1023454159+1024070190+1024423741
2798+1024469312+1024313140+1024166483+1024227292+1024498215+1024803190
2789+1024974385+1024945412+1024775504+1024657606+1024766418+1025063310
2781+1025392466+1025740007+1026208237+1026747792+1027098052+1027060780
2772+1026732340+1026399893+1026247727+1026226265+1026202728+1026156227
2764+1026161951+1026243149+1026355252+1026448397+1026415918+1026102358
2755+1025524314+1024925810+1024497785+1024232586+1024060032+1023884615
2747+1023562256+1023076642+1022621504+1022373975+1022347648+1022508471
2738+1022826395+1023204770+1023505453+1023668779+1023799053+1024088290
2730+1024589071+1025114890+1025461502+1025632339+1025758679+1025928873
2721+1026165241+1026455408+1026731624+1026885149+1026839793+1026614728
2713+1026311326+1026074099+1026064227+1026350173+1026783777+1027126382
2704+1027315177+1027409681+1027339429+1026982801+1026430512+1025904621
2696+1025506429+1025241588+1025145652+1025218480+1025354979+1025495126
2687+1025723267+1026063726+1026285357+1026154797+1025835012+1025737146
2679+1025958920+1026167030+1026101642+1025896108+1025791516+1025808686
2670+1025832938+1025813050+1025758250+1025690072+1025639422+1025565378
2662+1025348468+1025019742+1024838674+1024944696+1025110741+1025031760
2653+1024697955+1024323514+1024069904+1023978118+1024049301+1024232157
2645+1024379530+1024390547+1024379029+1024510591+1024712763+1024787165
2636+1024734440+1024688297+1024659609+1024599301+1024572330+1024652312
2628+1024798826+1024962224+1025172051+1025448839+1025711749+1025816197
2619+1025671830+1025351831+1025101941+1025155525+1025473664+1025779640
2611+1025938388+1026114734+1026428080+1026748794+1026999613+1027280337
2602+1027484798+1027205291+1026307320+1025303613+1024856130+1025058588
2594+1025448338+1025660669+1025783432+1026006995+1026238284+1026276486
2585+1026148072+1026058718+1026129257+1026355824+1026750582+1027322903
2577+1027897084+1028176519+1028115424+1027992876+1027982002+1027926701
2568+1027731397+1027657567+1027937647+1028278964+1028118357+1027382710
2560+1026705154+1026730480+1027422487+1028229673+1028738824+1028930695
2551+1028933342+1028820165+1028682522+1028631729+1028564767+1028181598
2543+1027485871+1026981299+1027075947+1027582593+1028081872+1028410240
2534+1028562979+1028514689+1028365242+1028371108+1028676226+1029156260
2526+1029555382+1029717993+1029684942+1029591081+1029574054+1029814071
2517+1030421804+1031135846+1031432451+1031145361+1030689579+1030528113
2509+1030679921+1030822643+1030648229+1030138148+1029629069+1029495646
2500+1029722929+1029983478+1030086567+1030075765+1030000505+1029877313
2492+1029812927+1029975037+1030471453+1031248808+1032003555+1032275121
2483+1031801955+1030784012+1029742531+1029169281+1029241035+1029700251
2475+1030011379+1029836750+1029417668+1029261281+1029412875+1029386834
2466+1028866595+1028032223+1027175817+1026506273+1026267830+1026494540
2458+1026776337+1026766893+1026687913+1026892804+1027241705+1027310741
2449+1026995607+1026625244+1026613225+1027134323+1028019703+1028805499
2441+1028994580+1028506748+1027811307+1027383855+1027180395+1026898813
2432+1026522942+1026246153+1026048989+1025721264+1025261046+1024990053
2424+1025156741+1025520308+1025500634+1024820646+1023917381+1023597382
2415+1024233373+1025337451+1026046843+1026023377+1025668396+1025494267
2407+1025628548+1025893818+1026011001+1025763544+1025256897+1024899984
2398+1024929100+1025134134+1025226349+1025237295+1025323930+1025358412
2390+1025012159+1024226434+1023356507+1022789909+1022567992+1022458321
2381+1022340280+1022417543+1022933633+1023719572+1024354848+1024832879
2373+1025529751+1026371706+1026770327+1026566009+1026243649+1026077605
2364+1025774990+1025023319+1024060246+1023717641+1024581201+1025903119
2356+1026180408+1025058874+1023596738+1022664857+1022250211+1022137535
2347+1022270099+1022520704+1022649333+1022660565+1022809726+1023172148
2339+1023579855+1023786319+1023538648+1022817023+1022001824+1021524938
2330+1021398884+1021236130+1020612873+1019420729+1018074703+1017284686
2322+1017319526+1017697114+1017970040+1018353566+1019161611+1020108086
2313+1020567088+1020353040+1019932026+1019845749+1020156376+1020546627
2305+1020763608+1020788075+1020701297+1020569019+1020401902+1020165175
2296+1019899261+1019725848+1019558873+1019045645+1018134439+1017408808
2288+1017420469+1017964102+1018430329+1018524976+1018238100+1017583294
2279+1016865890+1016765806+1017607403+1018819721+1019557228+1019661819
2271+1019659888+1019924944+1020186280+1019946549+1019179425+1018409868
2262+1018080498+1018051882+1018001303+1018155257+1019054730+1020555784
2254+1021794214+1022303508+1022388283+1022348078+1022189903+1022012626
2245+1021919910+1021755082+1021395808+1020933945+1020415208+1019984751
2237+1020159166+1021186696+1022288413+1022276538+1020876570+1019000360
2228+1017803065+1017789401+1018795898+1020447973+1022273390+1023479770
2220+1023220223+1021388725+1018885323+1016989225+1016596041+1017752773
2211+1019558373+1020758743+1020807820+1020174619+1019510226+1019024684
2203+1018855420+1019315065+1020218115+1020501557+1019250965+1016881629
2194+1014780497+1014084698+1015204587+1017879613+1021065865+1023362373
2186+1024140729+1023825738+1022932846+1021631318+1020390455+1019987327
2177+1020591554+1021551908+1022159641+1022282547+1022309518+1022630733
2169+1023122427+1023246049+1022760435+1022084023+1021860890+1022557332
2160+1024274366+1026354966+1027781332+1028450947+1028855363+1028738323
2152+1027395158+1024893688+1022080732+1019767556+1018432546+1018079281
2143+1018067978+1017790260+1017437352+1017365025+1017216365+1016644831
2135+1016258587+1016805224+1017995222+1018977396+1019403917+1019418154
2126+1019081272+1018357787+1017468401+1016803722+1016477356+1016220170
2118+1015760954+1015164238+1014764258+1014842451+1015304385+1015652928
2109+1015411552+1014566306+1013467379+1012497367+1012082649+1012707695
2101+1014404196+1016276543+1017002389+1016094831+1014529821+1013806193
2092+1014484178+1015937372+1017252064+1017871529+1017550314+1016361676
2084+1014899540+1014041774+1014261116+1015270332+1016383853+1017095534
2075+1017147544+1016332273+1014843667+1013769135+1014360700+1016567425
2067+1018931753+1020027461+1019597147+1018528410+1018084003+1018820150
2058+1020003352+1020532963+1020290800+1019811553+1019098584+1018015253
2050+1017524989+1019068180+1022394150+1025314773+1026129972+1025170548
2041+1023843909+1023151187+1023162061+1023275094+1022969117+1022654913
2033+1023403079+1025411853+1027351734+1027795067+1026803522+1025624756
2024+1025118467+1025024893+1024696953+1024052806+1023577494+1023752839
2016+1024643656+1025729634+1026133907+1025438680+1024280447+1023531637
2007+1023024561+1022039812+1020729054+1019767413+1019215052+1018980615
1999+1019631844+1021536312+1023835038+1025226564+1025138641+1023767719
1990+1021802227+1020217328+1019575685+1019574111+1019691222+1019918004
1982+1020473442+1021288426+1022211651+1023166711+1023716139+1023142673
1973+1021320619+1018959582+1016890142+1015482305+1014621678+1014020670
1965+1013714550+1014009867+1014699371+1015039615+1014875431+1014829502
1956+1015027239+1014875145+1014318491+1014073037+1014275353+1013948987
1948+1012265864+1009733703+1007607675+1006530281+1006298563+1006734099
1939+1007933182+1009625892+1011058553+1011662709+1011555184+1011212364
1931+1010756368+1009799806+1008238372+1006888840+1006714568+1007541214
1922+1008135068+1007773505+1006939562+1006350644+1006116994+1005968119
1914+1005844999+1005877693+1006049675+1006173010+1006134593+1005978779
1905+1005820461+1005832193+1006146326+1006585295+1006664848+1006132518
1897+1005380775+1005004689+1004949246+1004585178+1003640992+1002531906
1888+1001768002+1001367735+1001070057+1000750129+1000408597+999970915+999260093
1878+998264541+997332875+996896909+997007367+997295388+997379876+997231288
1868+997140432+997219197+997198737+996925239+996550512+996312212+996313286
1858+996398633+996262277+995860365+995558538+995639950+995949290+996225005
1849+996399921+996470602+996487486+996674849+997119184+997568456+997910489
1839+998265042+998616089+998710164+998400968+997879727+997436822+997135782
1829+996813708+996431541+996094087+995754987+995280819+994741479+994348437
1819+994174595+994052405+993741778+993159799+992378653+991539846+990882678
1809+990626851+990695029+990806488+990858999+991019964+991477176+992208245
1799+992990607+993569294+993861679+994102196+994707855+995639450+996110612
1789+995757634+995057328+994526644+994353159+994489300+994867246+995391420
1779+995855357+996123347+996284669+996537778+997020888+997543059+997623685
1769+997242019+996812921+996514456+996253550+996032276+995976976+996064255
1759+996171207+996302984+996384539+996210769+995831678+995588871+995732309
1749+996070622+996165412+995877893+995352932+994836985+994590887+994639892
1740+994596538+994128738+993572084+993728113+994894503+995790041+995530923
1730+994840705+994352801+994124660+994035593+993907107+993426644+992485105
1720+991505149+991271356+992114813+993134903+993661796+993957185+994271460
1710+994556190+994623008+994384207+993983440+993618800+993367981+993317402
1700+993432796+993482230+993689410+994246421+994411178+993638760+992306469
1690+990988415+989931267+989071570+988464552+988325121+988191913+987360546
1680+985979680+984428762+982987587+981824847+980842888+979717634+978317165
1670+976795508+975309835+973799553+972205568+970647139+969306908+968191598
1660+967044238+965681185+964183136+962855495+962230807+962409371+961874466
1650+960323692+958847391+958197020+958278361+958088136+957390191+956588656
1640+955893001+955403309+955425558+956264937+957256912+957542786+957495641
1630+957728290+958510008+959662089+960790706+961925045+963379526+964842807
1621+965658650+965955756+966532727+967790401+968793536+968740310+967851210
1611+966469700+964789080+963160113+962220720+962527985+964148940+966561271
1601+968917300+970609223+971591325+972107272+972261656+971999604+971408970
1591+970766397+970322347+970192073+970368205+970759386+971264745+971782910
1581+972141611+972178383+971866039+971155789+969801393+967722295+964940817
1571+961181887+956442500+951903282+948842297+947476669+947406774+947996550
1561+949273111+953010365+959716102+964300891+966110569+967156628+967967034
1551+968570617+969049578+969332662+969265271+968898986+968583137+968950280
1541+970698004+973207773+974294610+973933333+973288828+973004742+973023057
1531+972828468+972364816+971963119+971773752+971663652+971526152+971514420
1521+971750502+971865538+971506622+970946105+970522946+970066162+969334522
1511+968465525+967718217+967184957+966564777+965022802+962501801+959232277
1502+954659077+947607015+935862495+916219594+889340271+861604828+836743723
1492+814737352+798546760+796173490+808784216+827120152+844170512+858086917
1482+868762771+876021799+879949778+881286791+880739008+878277386+873287036
1472+866133172+858678196+851712839+844526281+836246448+827136249+818946484
1462+812708118+807875085+803702296+800356295+798843723+798630891+798502262
1452+798222469+797958486+798003771+798801586+800736030+804088183+809255165
1442+816255576+824338960+833271382+844356517+857828443+869971011+878468684
1432+885098160+891676055+898088549+903380154+907738232+912141953+916712362
1422+920638052+923815218+927176600+930907344+933925834+935949846+937502695
1412+938906168+940206766+941335311+942196653+942744078+942932944+942664025
1402+941800608+940042009+936909556+932084679+925435458+916860522+907220854
1392+898440455+891698304+887304742+885785517+887433228+891279651+896220709
1383+902168265+909234278+916878335+924161973+930592066+936328507+941428027
1373+945395210+948068591+950039449+951829739+953433453+954762524+956025064
1363+957418879+958726703+959621884+960177607+960724316+961486719+962417813
1353+963327874+964141142+964964354+965934866+967035439+968083072+968920448
1343+969612956+970393959+971378923+972357233+973078500+973663269+974369799
1333+975207175+975994474+976641267+977195846+977680029+978024280+978165071
1323+978175802+978271594+978611553+979092159+979470820+979683938+979876810
1313+980152812+980459361+980713901+980913498+981090488+981239863+981303677
1303+981176479+980748526+979950711+978612840+976202941+971739842+963896332
1293+951189384+932547972+908548781+882794641+861855863+852305120+856360011
1283+870316621+887275911+901437626+910659786+915943592+919026040+920418424
1273+919175773+913829440+903304035+887339796+866532652+842201730+816147550
1264+790139728+765235699+741497987+718307843+694838620+670405825+644836258
1254+618784368+593628159+570921340+551828439+536843726+525817469+518229536
1244+513570274+511633755+512604161+516926648+525028025+537013026+552534790
1234+570808807+590499712+609392229+624309908+632152847+632191765+627767655
1224+624965645+628823086+640723705+658924073+680411205+702097363+721316174
1214+736131122+745563681+749750564+749989078+748562569+748241354+751302268
1204+758319991+767796476+777208574+784488635+788650336+789527846+787334141
1194+782350588+774779788+764871274+753213604+740808269+728808709+718266779
1184+710124159+705224737+704114506+706851987+713117038+722432772+734163627
1174+747388954+761026853+774218843+786547487+797817123+807669121+815491814
1164+820691418+822880687+821689330+816639531+807665544+795919236+783862874
1154+774330731+769274923+769119609+773085648+780120040+789599816+801247470
1145+814556070+828482490+841713898+853200658+862484771+869613883+874856125
1135+878569985+881231347+883347216+885214555+886810900+887946528+888498674
1125+888551757+888399448+888344577+888406673+888312169+887843438+887065297
1115+886150514+885153746+884021052+882715160+881313046+880002289+878899928
1105+877844711+876417129+874071903+870095920+863412360+852440330+835139651
1095+809476224+774525034+731735557+685383455+642063222+609934431+597310041
1085+609270539+643565992+690168628+736375217+773250405+798052347+812307708
1075+818772069+819541697+815608639+807301405+794822527+778438062+758456704
1065+735200242+709007991+680379585+650189387+619628541+589875453+561902175
1055+536512889+514355962+495866717+481272863+470590750+463498732+459260126
1045+456893473+455396497+453766706+451008801+446331690+439325699+429981563
1035+418623182+405685302+391433411+376035590+359895828+343674974+328017893
1026+313483811+300681858+290309120+283122186+279925292+281453585+288149808
1016+300057259+316928251+338323240+363481881+391190711+419969780+448424308
1006+475495359+500598842+523565173+544370958+563045314+579849684+595278982
996+609756010+623388472+635991115+647350033+657578189+667133725+676374342
986+685256972+693582520+701351486+708775772+716038806+723115121+729823791
976+736033971+741763687+747116243+752236581+757272645+762246182+767017977
966+771449240+775525093+779334316+783034082+786826207+790869151+795172072
956+799536875+803614659+807143445+810194701+813106739+816148766+819319923
946+822450803+825411346+828197474+830850752+833350720+835640933+837716811
936+839597242+841254467+842700650+844096755+845632291+847341169+849139901
926+850977264+852806830+854458834+855646900+856128865+855889850+855208502
916+854466703+853829496+853220546+852635492+852247244+852104664+851880029
907+850845917+847776275+840718346+826861749+803060867+768054592+725733559
897+685480106+657153098+645196892+648212878+662995919+686785855+716133167
887+746278581+772863945+793784981+809373564+821234693+830828002+838787408
877+845250982+850425404+854629886+858076043+860874977+863158178+865070087
867+866766588+868441341+870197650+871913968+873386906+874526182+875309188
857+875713747+875759676+875411562+874438760+872545881+869525245+865138980
847+858972941+850421684+838682030+822876466+802427452+777338419+748158010
837+715859956+681780554+647429228+614121314+582782684+554141758+528850876
827+507168868+488763073+473226966+460749554+452031430+447736880+448492093
817+455372280+469773798+492373629+522210311+556724284+592445208+625723183
807+653507130+674083343+687101132+692985375+692758521+688233325+681694563
798+675201299+670167954+667101961+665342934+663280076+659066294+651127349
788+638444653+621098403+600655684+579654165+560542985+545043041+534162333
778+528333784+527206599+529360670+532712931+535630514+537760655+540071185
768+544530135+553600129+569260895+591822559+619413133+648723173+676566713
758+701038784+721579227+738400516+751998210+762908500+771569714+778253631
748+783002605+785439474+784766425+780435532+772978910+763917358+754969197
738+747785501+744278678+746275504+754226969+766462683+780031044+792363266
728+802319712+809944668+815594903+819499632+821790917+822250777+819671972
718+811951295+798015933+780668538+767191747+765044329+775521158+792622598
708+808626971+819734712+826360754+829934038+830971369+829299763+824217413
698+814011721+796639359+772710778+748426071+733862372+736071744+753251949
688+776367907+796613175+810686467+819653729+825329790+828854355+831120029
679+832848938+834165132+834813071+834930253+835083206+835507653+835910066
669+836019880+836014086+836154304+836483818+837022586+837623451+838000825
659+838137323+838199492+838133103+837848015+837480299+837104428+836625252
649+836147293+835962791+836088130+836226345+836162889+835885385+835330520
639+834278523+832670016+830916140+829632711+829054238+828947429+828927469
629+828524412+827335058+825609655+824259694+823775224+823624060+823085077
619+822059049+820826915+819631695+818704965+818152318+817618056+816489798
609+814570878+812177577+809465206+806051243+801430111+795397781+787909324
599+778799411+767857857+755085021+740670554+724633487+706786171+687559060
589+668548502+651452427+636584897+622486424+606799116+587942369+566252956
579+543497311+521700195+503021225+489928568+484247929+486589149+496991040
569+514789531+537608919+561670278+583496153+601035848+613742867+622291405
560+627867453+631164878+632253361+631631177+630796232+631118663+632478640
550+633683590+634286601+635580046+639487922+646661746+655985922+665741055
540+674852398+683266584+691513223+699916034+708249952+716183102+723806055
530+731499832+739260356+746276434+751565177+755122150+757672267+759590185
520+760904305+761750266+762325162+762872301+763753317+765029735+766238834
510+766831829+766475989+765043041+762879598+760697053+758397469+754368690
500+747107659+737231981+726498251+715404389+702630121+687058137+669978087
490+654583808+643655561+638585444+639551020+645355567+653707728+662185513
480+668584701+670865899+668127059+661859433+655242334+651020826+649934561
470+650719499+651457006+650388412+646757968+641853252+638058909+637041037
460+639891766+648386649+663575608+682757720+702265124+720878492+737271614
450+749251500+756687447+761839763+766928408+772497875+777487509+780734140
441+782338283+782928847+782726102+782310097+783188966+786400830+791062166
431+795258993+798088188+800109911+801889184+803518080+805741331+809536246
421+813120904+809882070+796377737+781634687+772494441+768107961+765889432
411+764523803+764634977+766502173+768030841+767049096+764318197+762241675
401+761592878+759966844+753277418+742025237+732555621+729063106+732114934
391+740913004+753343234+766733176+779615969+791169906+799582589+804377062
381+808141787+812971672+819167972+827470770+838594608+848286857
##END=
