##TITLE=X9720
##JCAMP-DX=4.24
##DATA TYPE=INFRARED SPECTRUM
##DATE=19/11/2018
##SAMPLING PROCEDURE=Instrument type and / or accessory
##ORIGIN=Default
##XUNITS=1/CM
##YUNITS=TRANSMITTANCE
##RESOLUTION=4
##FIRSTX=3996.5625
##LASTX=399.65625
##DELTAX=-2.0390625
##MAXY=1.01929
##MINY=0.52346879
##XFACTOR=1
##YFACTOR=9.4928776e-010
##NPOINTS=1765
##FIRSTY=0.99106884
##XYDATA=(X++(Y..Y))
3997+1044013082+1044222922+1044617926+1044771570+1044405763+1044071789
3984+1043842422+1043660836+1043914503+1044504090+1045026995+1045520327
3972+1045599880+1044582702+1042916287+1042003903+1042824615+1044308566
3960+1044947253+1045361911+1045914641+1046054220+1046260795+1046949337
3948+1047268242+1047095258+1047054069+1046209183+1044852756+1044716379
3935+1045322479+1046030235+1047269686+1047884514+1047605543+1047620236
3923+1047166210+1046661011+1047496165+1048094228+1046935963+1045061780
3911+1043580341+1043738067+1047402610+1053944387+1058725629+1058667487
3899+1054861355+1049707084+1047640328+1050172287+1051833992+1050943710
3886+1052703617+1054720959+1054611079+1054489771+1051889749+1049777094
3874+1051842469+1056442000+1060618335+1059872780+1057277719+1056890689
3862+1055043568+1052271191+1053507879+1060803687+1071185314+1069039569
3850+1056572475+1049314215+1049166912+1053350656+1058906586+1064102737
3838+1065582543+1061368787+1056964277+1054498435+1052661423+1052260391
3825+1053207686+1057032340+1063583222+1064447950+1061168741+1057502001
3813+1051885982+1048582411+1050635480+1054844151+1056482687+1059032415
3801+1060855049+1056995923+1052759751+1048781263+1044892941+1043481009
3789+1044210427+1045639751+1046386310+1046369294+1047539552+1047911011
3776+1045253788+1043689280+1046723298+1052373348+1054060923+1051488026
3764+1048852529+1048582349+1051724363+1054290856+1055074209+1060020334
3752+1069920999+1073741823+1068970125+1067534647+1066843217+1060388904
3740+1056089001+1059208475+1066462842+1067448752+1059514005+1051502844
3727+1048859373+1050139448+1051532481+1050992874+1048848385+1047034604
3715+1048717219+1055533823+1061474146+1057889910+1050698080+1047736458
3703+1048868226+1049013205+1046434092+1044288913+1044461142+1049175326
3691+1057592542+1060329129+1052787126+1045547766+1043754141+1046450229
3678+1053116705+1062521463+1065901762+1062711965+1061697549+1056979096
3666+1048275248+1043428643+1042387731+1043208506+1046548368+1049773703
3654+1050151064+1054398350+1064770433+1067352309+1056631246+1047059657
3642+1044074301+1043985517+1043594217+1043675717+1045308917+1050020463
3630+1057395636+1056592191+1047445432+1043288059+1046735227+1052821284
3617+1054271768+1053221939+1053601560+1053163106+1051830979+1049469178
3605+1045119106+1042268809+1043083242+1045071575+1045840550+1045512164
3593+1044464721+1044630107+1047765215+1049745323+1046849252+1043352543
3581+1041713190+1041125110+1040752584+1040518068+1040986284+1043523454
3568+1048457964+1051457260+1048895853+1044639400+1041544854+1040167267
3556+1040834775+1042579802+1043164365+1042122636+1041879957+1042439908
3544+1041443575+1039475837+1038578020+1038891399+1039265055+1039367715
3532+1040175806+1042061040+1043321212+1042598387+1040963053+1039768433
3519+1039247474+1039283954+1039657548+1039965276+1040014816+1039790974
3507+1039980533+1041033439+1041872611+1041306947+1039919377+1039305365
3495+1039389063+1038970261+1038219935+1037658164+1037438215+1037982719
3483+1038658641+1037900968+1036373819+1036136289+1036499208+1036203724
3470+1036112052+1036206298+1036069419+1036328422+1036327543+1035311369
3458+1034644113+1035177692+1035591407+1034832416+1034175018+1035022729
3446+1036412497+1037358410+1037651885+1036794755+1035355384+1034477157
3434+1034584024+1034985244+1035189873+1035724017+1036328360+1036589875
3422+1036831361+1036888310+1036774851+1036789355+1036533240+1036175657
3409+1036502347+1037185238+1037282875+1036603689+1035762821+1035376230
3397+1035424829+1035844384+1036459023+1036460342+1036030552+1036072935
3385+1036326162+1036364086+1036266324+1035987605+1035449630+1034791604
3373+1034428873+1034716445+1035350926+1035517065+1035111638+1034820424
3360+1034823312+1034755186+1034552943+1034530653+1034870592+1035261955
3348+1035371270+1035353626+1035417545+1035550344+1035572634+1035482218
3336+1035518258+1035716734+1035775316+1035517317+1035452581+1035604467
3324+1035418675+1035059649+1034805166+1034798322+1035076162+1035492578
3311+1035921614+1035763512+1035049226+1034740682+1034814208+1034947885
3299+1035121182+1034458132+1033094234+1033028180+1034216960+1034665963
3287+1034209300+1033680556+1033415273+1033592965+1033978740+1034061684
3275+1033705043+1033088646+1032557201+1032644038+1033304890+1033773232
3263+1033600814+1033287121+1033095301+1032712038+1032243257+1032145558
3250+1032774827+1033417785+1033538967+1034025203+1034929802+1035063668
3238+1034150028+1033259682+1033164369+1033553471+1033774048+1033673712
3226+1033446856+1033397880+1033759230+1033833070+1033421803+1033333522
3214+1033241160+1032519088+1031732910+1031519239+1031879773+1032446191
3201+1032514819+1032012006+1031811898+1032207719+1032246083+1031500591
3189+1031098115+1031401573+1031473780+1031213584+1031465806+1032212302
3177+1032381016+1031809198+1031382109+1031457455+1031602058+1031674453
3165+1031887496+1031873871+1031293576+1030661858+1030330082+1030127651
3152+1029949770+1029751044+1030173864+1030889342+1030543125+1029799642
3140+1029320501+1028850778+1028941068+1029568077+1029687502+1029145634
3128+1029252626+1029906383+1029699243+1028806386+1028028998+1027692073
3116+1027414358+1026544985+1025652316+1025357711+1025091298+1024861114
3103+1025322738+1025753281+1025564726+1025319724+1025155657+1025075162
3091+1024678587+1023723130+1023270234+1023518878+1023552093+1023159287
3079+1022389998+1021589504+1021480816+1022079005+1022600278+1022512750
3067+1022519469+1023067803+1023391103+1023264960+1022778849+1021975969
3055+1021670815+1021969941+1021681866+1020517510+1019365901+1018703291
3042+1018146794+1017098346+1015855379+1014906200+1013808464+1012155172
3030+1010435010+1009339910+1008718552+1008023166+1007399548+1006856738
3018+1005519023+1003737328+1002666590+1001832818+999936345+996487293+992571469
3004+989467881+986765765+983315708+979437809+976611371+975395905+975076310
2989+975217082+975730758+975234538+972913298+969221631+963463520+954593220
2975+941856825+924116036+902890971+882772182+864344358+843951810+821409749
2961+800009190+781849914+768388182+761435578+761375614+766399786+773160194
2946+778776715+781347038+778866252+769744295+754106617+733931443+711489594
2932+688441079+665534530+643584631+625076249+612966172+609122116+613846597
2918+625290987+640433637+656479191+671839656+686393160+699768243+711506798
2904+722056636+732300441+742916710+753749537+764826989+776537227+788658983
2889+800611397+811580036+820905681+827976705+831326362+829517354+822539571
2875+812005117+801244308+794086322+791399024+790345679+787540337+780599161
2861+769014375+754711336+740517926+729796926+726396536+732147614+745652795
2847+764084763+784297672+803859274+822265561+840103798+857420888+873743842
2832+889006168+902838731+914320103+923397544+930760599+936768608+941862790
2818+946386284+950391770+954149303+957492430+960376195+963212302+965844597
2804+967941618+969700458+971344708+972696803+973625449+974443838+975818976
2789+977985755+980180475+981831130+983673856+986105289+988507338+990605363
2775+992229144+993400721+994423173+995269064+995991261+996723944+997330797
2761+997686998+997849935+998146110+998943967+999748920+999952167+999939107
2747+1000012633+999990155+999889441+1000127536+1000646235+1000541377+999893460
2732+999683871+999756266+999595087+999429639+999350462+999417395+999803295
2718+1000386226+1000868633+1000940024+1000828008+1001046639+1001673522
2706+1002245780+1002560603+1002925720+1003075910+1002840829+1002766676
2694+1002906381+1002676888+1002085040+1001840917+1002121207+1002347372
2681+1002159571+1001855547+1001866284+1002154924+1002270707+1002217901
2669+1002417633+1002745453+1002837627+1002835053+1002952530+1003242112
2657+1003824730+1004260107+1004142629+1004014101+1004420847+1005221843
2645+1005837927+1005864299+1005567684+1005624634+1005748893+1005350184
2632+1005092373+1005253049+1005438088+1005736398+1005971981+1005609690
2620+1004910850+1004853775+1005357028+1005470173+1005219897+1005243254
2608+1005704250+1006168196+1006360581+1006532685+1006558805+1005975811
2596+1005273142+1005483045+1005831899+1005268244+1004672630+1004765243
2583+1005483422+1006191491+1005945296+1005407573+1005697531+1006175668
2571+1006308341+1006098250+1005478587+1005495728+1006263510+1006692294
2559+1006648154+1006713894+1007562987+1008669388+1008573196+1007523179
2547+1007161578+1007900665+1008881552+1009090136+1008474178+1008057198
2535+1008082501+1008049223+1007480922+1006411063+1006098940+1006771408
2522+1007059672+1006945019+1006924864+1006965803+1007784506+1009222809
2510+1009852078+1009555276+1009358621+1009135532+1008390041+1007809433
2498+1007731763+1007897212+1008428719+1009288298+1009528214+1008261198
2486+1007051698+1007636701+1008286502+1007262480+1005862164+1005346542
2473+1005823674+1006928192+1007592372+1007925090+1008534581+1008879543
2461+1008943838+1008923432+1008535460+1008044640+1007752797+1007572656
2449+1007514702+1007347307+1007011576+1007300906+1008167831+1008094243
2437+1006939934+1006412382+1006713894+1006511965+1006018947+1005878991
2424+1005706008+1005823235+1006302188+1006500977+1006562133+1006728210
2412+1006829865+1006776557+1006588505+1005917355+1004880586+1004569405
2400+1005042205+1005262845+1005247524+1005326010+1004895781+1004156443
2388+1003835592+1003268107+1001721368+999434788+996644955+994037839+992460270
2373+991796153+991915514+992255264+992012460+991807078+991682819+990803148
2359+989827598+989210070+988428601+988273449+989595656+991020020+990902166
2345+989861064+990082834+991566534+993119615+993961048+993588773+992143249
2331+990459881+990138717+991248320+991927570+991403660+991393551+993074093
2316+994498332+994308584+993822410+994287424+995523045+997087177+998503378
2302+999131078+999698061+1000996722+1002040774+1001955821+1001584614+1002597020
2288+1004538638+1005649686+1006175480+1006557361+1005660549+1003514679
2276+1001851340+1001569230+1002653467+1004288676+1004886426+1004054851
2263+1003155966+1003093742+1003085203+1002610520+1002016914+1001435553
2251+1001041679+1000570574+999789733+1000321114+1002442560+1003307162
2239+1002329665+1001926687+1003139955+1004400629+1004347509+1003935489
2227+1004030551+1004238947+1003590527+1001608285+999668990+999320638+999923473
2212+999950849+999464424+999717902+1001730597+1004553394+1005797805+1004468315
2198+1002235043+1001494637+1001791503+1002577116+1005231701+1007422654
2186+1004581460+998635361+996283731+998670962+999742453+997065578+995119752
2172+997096658+1000408454+999594208+996735246+996195388+994523950+993290777
2157+997211185+1000765094+999873430+998187865+998595490+999928433+1001019138
2143+1001239715+999848189+997719774+995923135+995398284+996590643+997048625
2129+996119853+996223140+997257711+997253693+996516992+996328437+996592966
2115+997426802+998217941+996844749+994684375+994909222+996145345+996441896
2100+996371698+996297545+996538528+996673461+996337165+996370129+996604017
2086+996711888+997234417+997858035+997881769+997374185+996789118+996114767
2072+995488574+995520157+994637786+992626221+992704518+994253267+994983187
2057+995879371+996459038+996031258+996930142+999036832+1000234843+1000531457
2043+999345565+996861953+996194257+998818955+1001222887+999364590+995188318
2029+993578162+995750529+998368006+997694721+994712755+993833649+995483739
2015+994560995+990726796+990303851+994179427+997217150+997293061+996036909
2000+994087756+991930646+992342729+995658794+997569834+996540224+996189109
1986+996791190+995765033+994277064+995112155+997655541+1000481037+1004225448
1972+1006150553+1003836848+999176098+994446719+992583650+994300610+995814636
1958+994805746+993306412+993186422+993008856+992064010+992938469+995413792
1943+995789583+993201743+990433133+989356808+989542223+989716148+989865522
1929+990071219+990380767+991975854+993425648+993557567+994020823+993469160
1915+991616074+991536395+992381407+991703351+990705637+990604233+990896891
1900+990840319+990351131+990324320+990246964+989916130+990563420+991091537
1886+990580499+989597414+988315016+987629111+987755630+988401539+989865020
1872+992950148+996990168+996912498+991785730+988140400+987760465+987815154
1858+987531976+987617683+987647257+987025648+986722252+988774881+992857158
1843+993496536+989812780+987923967+988398776+988558385+989193808+992277366
1829+994418904+993197850+991327371+988682456+985893063+984476548+983508658
1815+982759274+983772371+985305297+984537139+982788345+982413559+983397773
1800+984243036+983269244+981868991+983225732+984933399+980540757+973944165
1786+971075910+971025678+971588015+970812134+967719283+965940036+967951162
1772+967917570+959576516+948651202+939927764+934041502+928334753+921185997
1758+914443923+906915043+900182639+896897528+893552204+886259849+878107036
1743+872493529+869102243+865553984+864536806+872486120+884425097+886703452
1729+883990536+882581178+884544208+889330787+897207642+910638482+924287136
1715+927557428+926765347+929428157+936794980+946974489+954790251+960690515
1701+967756140+967428319+956172045+937947719+922520887+914892172+914035168
1686+922880729+940561869+947953618+946819275+950522873+959325612+966783353
1672+971428343+975832162+973930603+969401458+970207101+971292029+968412660
1658+968338945+976600634+990716939+989587305+982646505+982869217+977567770
1643+966544127+961132863+962714889+968866623+967784960+951279980+934836722
1629+920128068+898613546+866388448+818774943+763848928+718515975+675588713
1615+638715108+627021132+637188398+657087364+674124792+684243899+690661731
1601+696692533+703436239+710472164+715636858+716583336+712282114+703285169
1586+691784583+680880930+672817404+669793683+677261344+701986885+733880145
1572+762305454+794589574+822546666+839233608+853369189+869734024+894821165
1558+914084583+910459220+907121555+908425616+911660684+915920464+923425610
1544+935950784+950504225+953528134+941980268+936004406+935881089+933316731
1529+931808418+934878100+939253099+944089155+945901554+941421510+935594395
1515+928672871+922999086+922976984+929899262+932900253+912768969+889226808
1501+870821086+850521842+823580421+799500538+791111074+798659795+813135064
1486+823251157+829639353+834919640+837338767+836311542+833997273+828288326
1472+809132717+776641394+745552961+718627739+694369033+678591839+674640037
1458+677385415+677404251+677782742+685205509+698892904+716219914+733767627
1444+750152429+765147966+776665002+784620909+788916668+793443741+802710113
1429+812221864+815963825+816450564+817236491+821175736+829629558+836663285
1415+840872961+846672198+853758040+860420937+866595023+871463416+873909416
1401+876404016+879608003+881052773+878998637+872892112+865784733+858392293
1387+845991441+827210117+805408462+783025383+765012216+757676035+760932262
1372+767045318+770801470+771417742+771426658+777868475+790607885+801536339
1358+809020011+815413921+821840606+829133463+837514953+846080539+853528986
1344+859455308+864397729+867888912+868429021+866666225+864293813+863308720
1329+866039467+872617160+880926693+888734293+894711034+898103576+898633137
1315+897237718+895083434+892684211+890766829+890020270+890323540+891109970
1301+892169782+893899363+896394904+898964034+900845312+901499132+900391600
1287+897296614+892588019+886124979+876968927+865213920+852644104+841557359
1272+833388661+827943678+823802756+819432718+813923252+807058489+799231174
1258+791969962+788292924+791021914+800169929+812690394+824320576+831732543
1244+834104704+832445824+827194608+817595706+803580994+786796981+770384615
1230+758260599+753395722+756647429+765842535+773541573+773359674+771274897
1215+774726649+776337056+762246307+723000038+660029710+596696776+566542641
1201+577956515+607771089+633670404+656142329+686286105+725050155+762028053
1187+787544042+799256164+801353749+800909393+803314455+809991542+818990246
1172+827156307+832669917+834458519+830273268+815087356+781412903+725462050
1158+655273709+591468918+555045069+551433205+566843587+581194785+586165775
1144+588513260+597403590+615634068+640459632+667423154+693431659+716792297
1130+736549486+752299492+763759580+771014952+774488114+775228708+775791547
1115+778671984+783927532+790046113+796449755+803524107+810651076+816399328
1101+820304604+822438230+821966875+817875430+811396379+806230932+804769962
1087+805699362+805707839+801087525+787677782+762666301+728775164+695213417
1073+672834294+665384528+665692381+665108822+664554773+671481258+689123656
1058+713650534+739115790+761277915+778811940+792468254+803545267+813020474
1044+820721835+826343694+830259957+833078170+835170230+836009026+835115855
1030+832685363+828908679+824394980+820300774+817141304+814894281+814328616
1015+816478882+820910265+826336410+832146635+837777787+842021745+843957775
1001+844261673+844103884+843163685+841028802+839157633+839318749+841127255
987+843095370+844834620+846563259+848402531+850316523+852005228+853421429
973+854253067+854082093+853595417+853202924+852429429+851713574+851747166
958+852331290+853410315+854631369+854822687+852924707+847795678+838682887
944+827505789+819012473+816507262+818322236+819931387+817868210+812652092
930+810021493+815124841+825735961+836163675+843900197+849118952+852241565
916+853978240+855303586+856392533+856877513+856693479+856112495+855628644
901+855486365+855877099+856771840+857338509+857353578+857632737+858537273
887+859816846+861080282+861494688+861137106+861251256+861888374+862597008
873+863514165+864313278+864088180+863038979+862817523+863433858+863620089
858+863552277+864020054+865080055+866176661+867287144+868204237+868167820
844+867706950+867267051+866783892+866547868+865635484+864053709+862755990
830+860267732+855958222+850782918+844006876+834745150+823107873+808846965
816+790646688+766960741+737407871+704370223+673607475+653423762+652103000
801+671049961+701148717+730673395+753004422+766677250+775570154+785098418
787+795678018+804850395+811189930+815307305+818846145+822240885+825486564
773+828643397+831188855+832658490+833594608+835346039+837667090+838133987
759+836370313+835425655+836560060+837868014+837852191+836108483+833409130
744+831090465+829566580+829056359+829806496+830201061+828029008+824979858
730+823999411+824114754+823047219+821194949+820649879+822976330+827839323
716+832977959+836966806+839949902+842365953+844103570+845042012+846111933
701+846891833+846435233+845887024+844562368+840617724+834731336+825662686
687+810564490+790102874+767130083+747987408+742179067+752985397+773891684
673+794117528+806560009+816132853+827618055+832984929+834600799+836284983
659+836854289+836535573+836198397+834620137+833197720+833782284+835602154
644+837487137+837962197+836735053+835692131+836112188+836763371+836338165
630+835908564+837187948+840061353+842775838+843178628+841109863+839595334
616+840265353+842065257+844365714+845911323+845778085+845983342+847123272
602+847073104+845920553+844852578+844091829+843966377+844341665+845176945
587+846568659+847393327+847734773+848981256+850564664+851076707+850542248
573+850021792+850114782+850993260+851997191+851620960+849925976+847923390
559+846044812+845191449+844154618+841643003+839405021+836959083+833619912
544+829101315+824173273+822819798+823914207+823859204+823467653+822494677
530+819446657+817783822+820571142+824522253+827692774+830990003+832936330
516+832422906+831056559+830437587+832174011+836453885+841148855+844739181
502+844922085+842155673+842058476+846390778+851312102+852781988+850731180
487+849266443+849033057+846937417+846189163+848530244+849322011+848741528
473+848645713+846176731+840906804+839828029+843690734+844234924+844542150
459+850484357+852239681+846516544+846226711+852332797+853371386+848127391
445+845781538+847462771+847681214+849812266+855108878+856254586+853385514
430+852477337+856050961+860125453+860033341+861540461+865633098+856620330
416+842983795+842637891+851065091+859020495+860442850+858821643+860498293
402+860212227+856061636
##END=
