##TITLE=NiW-X10410
##JCAMP-DX=4.24
##DATA TYPE=INFRARED SPECTRUM
##DATE=28/3/2018
##SAMPLING PROCEDURE=Diamant-ATR
##ORIGIN=Angelika Moesle
##XUNITS=1/CM
##YUNITS=TRANSMITTANCE
##RESOLUTION=4
##FIRSTX=3997.453
##LASTX=373.96442
##DELTAX=-1.4165319
##MAXY=0.95621628
##MINY=0.58130622
##XFACTOR=1
##YFACTOR=8.905458e-010
##NPOINTS=2559
##FIRSTY=0.93396413
##XYDATA=(X++(Y..Y))
3997+1048754739+1049090262+1048974204+1048598189+1048321432+1048241584
3989+1048235091+1048197744+1048091459+1047892273+1047615315+1047316538
3980+1047042926+1046848560+1046834973+1047077328+1047487679+1047818248
3972+1047926140+1047975803+1048197945+1048496923+1048602807+1048538487
3963+1048544846+1048586342+1048358712+1047818717+1047331932+1047234146
3955+1047462714+1047656745+1047569669+1047319951+1047162932+1047134085
3946+1047168153+1047396720+1047892073+1048290911+1048187838+1047727424
3938+1047286954+1046950896+1046729825+1046890793+1047569401+1048286226
3929+1048510042+1048394787+1048345125+1048342113+1048121376+1047707478
3921+1047331798+1047062403+1046917967+1047070903+1047603736+1048286962
3912+1048842418+1049151570+1049186642+1048969051+1048584134+1048144334
3904+1047803992+1047818851+1048340440+1049077880+1049513865+1049541708
3895+1049487026+1049525377+1049431406+1048971193+1048354830+1047858875
3887+1047422689+1047041587+1047031213+1047568598+1048401347+1049063289
3878+1049251096+1049109806+1049004859+1049182157+1049572429+1049800796
3870+1049463600+1048579315+1047705203+1047395716+1047850174+1048807548
3861+1049708365+1050155527+1050051517+1049476317+1048664249+1048133290
3853+1048508770+1049393524+1049838946+1049786272+1049636414+1049609575
3844+1049552551+1049250560+1048941676+1049117636+1049719475+1050070793
3836+1049951925+1049850257+1049984788+1050159141+1050291597+1050442257
3827+1050477530+1050223261+1049875490+1049811505+1050011292+1049931042
3819+1049360996+1048890742+1049083703+1049793366+1050401028+1050637226
3810+1050590910+1050405245+1050283297+1050400827+1050621966+1050643986
3802+1050417694+1050234505+1050333094+1050605367+1050890156+1051178760
3793+1051488983+1051683215+1051570705+1051173473+1050749803+1050505038
3785+1050403906+1050259002+1049960826+1049654954+1049690293+1050213690
3776+1050864990+1051145027+1050876034+1050275400+1049734267+1049412064
3768+1049102376+1048700593+1048426646+1048410851+1048508368+1048689884
3759+1049186307+1049996500+1050652486+1050836076+1050708774+1050598406
3751+1050658777+1050759039+1050745318+1050731732+1051012371+1051643726
3742+1052171607+1052352386+1052387993+1052331972+1051851880+1050747126
3734+1049694577+1049449277+1049726971+1050009485+1050400426+1051202922
3725+1052142425+1052497156+1052087810+1051413552+1050935602+1050846450
3717+1051174543+1051692652+1052010438+1051985406+1051918476+1052128370
3708+1052524464+1052878258+1053034006+1052868353+1052341208+1051668089
3700+1051280227+1051358067+1051626926+1051688101+1051402241+1050934464
3691+1050638430+1050992626+1052023891+1052788438+1052705979+1052327956
3683+1052278026+1052482231+1052476609+1052159291+1051947189+1052231643
3674+1052778398+1053043443+1052959914+1052695873+1052333779+1052040021
3666+1052088144+1052466368+1052716488+1052415300+1051795257+1051514216
3657+1051885479+1052554917+1053000206+1053230112+1053554122+1053996332
3649+1054261979+1054313783+1054330248+1054205623+1053846341+1053504259
3640+1053576946+1054078522+1054475353+1054235006+1053487660+1052951547
3632+1053024769+1053195107+1052540126+1051156338+1050237584+1050104928
3623+1050250501+1050376063+1050717609+1051498487+1052140819+1051986477
3615+1051392603+1051091817+1051170059+1051202453+1051108952+1051200579
3606+1051546208+1051860782+1051959102+1051985406+1052302054+1053079853
3598+1053909322+1054063798+1053301326+1052350713+1052183386+1052847805
3589+1053542142+1053539197+1052979792+1052635234+1052809588+1053150331
3581+1053162646+1052654510+1051914928+1051353984+1051065447+1050951598
3572+1051013509+1051226548+1051368709+1051259344+1051114373+1051319180
3564+1051851612+1052406399+1052758051+1052809454+1052594139+1052280837
3555+1052077636+1052101999+1052261160+1052223946+1051730133+1050983323
3547+1050538972+1050729456+1051300507+1051794119+1052002406+1051913991
3538+1051584827+1051164035+1050858163+1050813052+1051056411+1051509263
3530+1052005619+1052328157+1052345358+1052135866+1051909641+1051806903
3521+1051852817+1052024761+1052252392+1052425273+1052512751+1052560874
3513+1052517570+1052278762+1051932933+1051680739+1051506519+1051280427
3504+1051138200+1051346153+1051800946+1052088278+1052071144+1052000867
3496+1052096912+1052299712+1052459073+1052548224+1052589587+1052522858
3488+1052282042+1051955020+1051709452+1051576929+1051427474+1051169189
3479+1050899727+1050836612+1051083853+1051397489+1051310546+1050692778
3471+1050045895+1050022135+1050754555+1051800812+1052605316+1052865943
3462+1052638313+1052292081+1052223009+1052431498+1052535641+1052327220
3454+1052073018+1052035604+1052002206+1051646269+1051130838+1050929712
3445+1051143555+1051464687+1051711393+1051884810+1051865266+1051595335
3437+1051454045+1051896455+1052761666+1053394158+1053402993+1052950008
3428+1052423533+1052123551+1052110633+1052171272+1052075829+1051882467
3420+1051817210+1051964323+1052268254+1052627671+1052817084+1052641392
3411+1052290743+1052131448+1052113979+1051894314+1051527936+1051454982
3403+1051783611+1052111838+1052063581+1051676990+1051362484+1051592123
3394+1052407001+1053242427+1053477487+1053088621+1052575197+1052378689
3386+1052488656+1052531893+1052245364+1051810450+1051598950+1051735086
3377+1052071010+1052421993+1052655849+1052655849+1052319255+1051672975
3369+1051065848+1051019733+1051619832+1052277959+1052417576+1052138141
3360+1051927377+1052012580+1052225285+1052291814+1052100326+1051753090
3352+1051389658+1051008355+1050552157+1050063364+1049583138+1049040131
3343+1048462053+1048129475+1048235493+1048520684+1048539759+1048215414
3335+1047878954+1047808878+1047948562+1048058328+1047951038+1047572614
3326+1046983291+1046316329+1045724128+1045323683+1045182727+1045320537
3318+1045639662+1045850961+1045592810+1044686036+1043227956+1041508111
3309+1039947493+1038983025+1038774202+1039019703+1039149080+1038682842
3301+1037476621+1035732213+1033741634+1031633056+1029493557+1027616693
3292+1026308872+1025422913+1024368089+1022648913+1020221546+1017288787
3284+1013925397+1010061033+1005756132+1001183510+996304480+990911624+985057819
3274+979080058+973162401+967251638+961357675+955535326+949623559+943366699
3264+936765213+930076450+923504347+917025009+910473922+903754438+897057845
3254+890879694+885671634+881473688+878026234+875221713+873249340+872284202
3244+872231461+872832095+873881699+875323314+877294215+880079259+883824955
3234+888288682+893065375+898035431+903358210+908994960+914522814+919568434
3224+924240047+928916210+933708900+938353540+942599542+946474882+950097762
3214+953449372+956452542+959134713+961642062+964157577+966714655+969026433
3204+970718971+971792402+972573815+973207446+973582256+973727830+973860754
3194+974054183+974209127+974291117+974341047+974324314+974177201+973947630
3184+973772473+973787867+974151768+974999174+976247494+977624321+979005163
3174+980529103+982281878+984104729+985802822+987419795+989280395+991714656
3165+994625261+997466393+999804475+1001683614+1003331442+1004823322+1006114010
3155+1007150428+1007989000+1008929172+1010297164+1011962862+1013378709
3146+1014216210+1014640348+1014868514+1014897027+1014844419+1015107858
3138+1015858884+1016747587+1017418364+1017987273+1018677126+1019319056
3129+1019604179+1019568372+1019472527+1019352989+1019022420+1018458196
3121+1017869007+1017388312+1016985525+1016650471+1016388907+1016095952
3112+1015666058+1015151697+1014668660+1014265203+1013972918+1013883699
3104+1014134689+1014784517+1015664117+1016511657+1017348288+1018427743
3095+1019695071+1020698894+1021224834+1021634984+1022378849+1023425641
3087+1024342254+1024823283+1025004866+1025236378+1025687958+1026311549
3078+1027016394+1027645473+1027960314+1027928388+1027846532+1027911187
3070+1027926782+1027706581+1027464627+1027527876+1027925042+1028490136
3061+1029090770+1029551519+1029627284+1029256824+1028628414+1027872167
3053+1026930187+1025855217+1024944026+1024362802+1023874544+1023159057
3044+1022249673+1021506879+1021243306+1021379041+1021381786+1020673394
3036+1019168395+1017279885+1015456967+1013926267+1012714491+1011636375
3027+1010408134+1008960027+1007501076+1006276115+1005467327+1005258504
3019+1005683446+1006424701+1007015161+1007322037+1007722951+1008736010
3010+1010514955+1012721920+1014813096+1016427994+1017619490+1018712197
3002+1019875984+1020950419+1021741938+1022213932+1022278252+1021721324
2993+1020485051+1018718756+1016460455+1013542890+1009864994+1005562569
2985+1000968596+996660818+993462746+992017383+992273459+993624919+995552851
2975+997846424+1000255184+1002334312+1003745273+1004522872+1005021972
2966+1005645898+1006524963+1007456568+1008240123+1008951326+1009785279
2958+1010766815+1011748149+1012678349+1013777414+1015281609+1016992753
2949+1018347761+1019038617+1019321532+1019612077+1019970624+1020028652
2941+1019349442+1017862180+1015842486+1013421143+1010410678+1006768456
2932+1002938962+999554088+996987371+995305944+994583965+995109771+997018695
2922+999705551+1002061303+1003519182+1004515844+1005794082+1007648056
2914+1009912648+1012295506+1014578170+1016678783+1018615817+1020424412
2905+1022135623+1023749116+1025150105+1026136325+1026619094+1026768349
2897+1026934605+1027425138+1028279372+1029247855+1030056844+1030635056
2888+1030989520+1031049624+1030863557+1030762693+1031044001+1031600930
2880+1032062482+1032168634+1031874542+1031307038+1030770256+1030577362
2871+1030732172+1030904853+1030795221+1030370748+1029726341+1028921034
2863+1028040430+1027254198+1026694190+1026336581+1026070064+1025871615
2854+1025871347+1026202854+1026816606+1027535573+1028250391+1028978460
2846+1029816430+1030872459+1032078813+1033091337+1033646459+1033953937
2837+1034404312+1034987745+1035364363+1035420584+1035397895+1035515425
2829+1035748811+1036005155+1036289007+1036630487+1036973237+1037197990
2820+1037176171+1036841384+1036333382+1035988489+1036001072+1036182387
2812+1036238609+1036163647+1036187273+1036423337+1036723654+1036876389
2803+1036869361+1036882145+1037026112+1037208900+1037256219+1037032806
2795+1036458074+1035589383+1034670829+1033926295+1033339649+1032799186
2786+1032356106+1032134433+1032108932+1032224588+1032592973+1033298889
2778+1034157004+1034912649+1035528878+1036111508+1036758725+1037564233
2769+1038519532+1039402144+1039994345+1040345328+1040612983+1040801526
2761+1040868457+1040939202+1041187380+1041614664+1042105064+1042603160
2752+1043079103+1043396153+1043381227+1042997381+1042343336+1041545057
2744+1040714249+1039953919+1039392841+1039237160+1039677027+1040658563
2735+1041843633+1042878044+1043625456+1044117061+1044391609+1044475072
2727+1044436520+1044367916+1044337530+1044428354+1044720840+1045121352
2718+1045333723+1045185405+1044897804+1044857312+1045172219+1045603051
2710+1045887773+1045983818+1045991314+1045986495+1045981543+1045976456
2701+1046010323+1046165066+1046456213+1046725207+1046775940+1046648973
2693+1046608949+1046808535+1047097675+1047229528+1047162464+1047078533
2684+1047142117+1047326309+1047462714+1047402945+1047178460+1047037973
2676+1047196464+1047530380+1047723676+1047714506+1047722605+1047835583
2667+1047877616+1047715309+1047442501+1047230867+1047171566+1047286285
2659+1047557755+1047924333+1048298207+1048572086+1048594307+1048263202
2650+1047730369+1047348999+1047307301+1047484801+1047712164+1047924400
2642+1048049225+1048045544+1048060537+1048258517+1048544912+1048707821
2633+1048741688+1048827493+1049070718+1049390110+1049603083+1049612721
2625+1049555964+1049692837+1050099038+1050571768+1050843639+1050800134
2616+1050601351+1050667144+1051286786+1052157752+1052652301+1052598489
2608+1052400977+1052422060+1052655715+1052935484+1053101003+1053062384
2599+1052925110+1052940972+1053269735+1053859861+1054492287+1054908126
2591+1055045735+1055169154+1055603868+1056337493+1056964430+1057037652
2582+1056514992+1055847026+1055533390+1055684251+1056105712+1056578576
2574+1056872669+1056776623+1056354292+1055983765+1055959469+1056178332
2565+1056320358+1056232345+1055987045+1055590950+1054921445+1054078589
2557+1053476416+1053390143+1053729815+1054380111+1055321689+1056270094
2548+1056674019+1056292315+1055479377+1054813821+1054647298+1054998214
2540+1055661830+1056341040+1056770934+1056865105+1056811026+1056893417
2531+1057145477+1057322910+1057280074+1057148891+1057092937+1057077208
2523+1056941005+1056629176+1056340304+1056387423+1056833313+1057405034
2514+1057859023+1058203648+1058469429+1058557375+1058428735+1058216498
2506+1058069921+1058001919+1057896504+1057649798+1057323111+1057055924
2497+1056817919+1056449668+1055954182+1055552064+1055484062+1055844215
2489+1056409844+1056648652+1056220766+1055443034+1054905716+1054760209
2480+1054752178+1054776406+1054987304+1055414388+1055789198+1055854991
2472+1055684251+1055505078+1055301275+1054884834+1054336539+1053986158
2463+1053931008+1053979666+1054051683+1054236947+1054483786+1054596163
2455+1054541012+1054522138+1054747894+1055204628+1055643558+1055815234
2446+1055713031+1055486405+1055227116+1055029002+1055080806+1055416396
2438+1055723004+1055682846+1055419809+1055356894+1055670330+1056097681
2429+1056340571+1056471420+1056721540+1057001777+1056983171+1056665787
2421+1056494578+1056771537+1057226329+1057351021+1057000707+1056494645
2412+1056238369+1056357170+1056604478+1056599592+1056252558+1055853920
2404+1055591887+1055259176+1054709610+1054234136+1054150339+1054375426
2395+1054653388+1054839990+1054872117+1054807261+1054851971+1055054235
2387+1055203557+1055280794+1055612903+1056299141+1056916709+1057097421
2378+1057027211+1057095882+1057392116+1057826896+1058416152+1059160887
2370+1059910107+1060498359+1060772640+1060582089+1060076362+1059747600
2361+1059844180+1060069535+1060021479+1059517694+1058542383+1057339040
2353+1056423699+1056111067+1056232412+1056520146+1056967174+1057675566
2344+1058428133+1058661988+1058104792+1057098224+1056201155+1055760418
2336+1055814966+1056232947+1056876283+1057576911+1058031503+1057979899
2327+1057471495+1056729170+1055914961+1055209045+1054871314+1055044998
2319+1055641683+1056373300+1056786462+1056588683+1056070306+1055804525
2310+1055900571+1055998691+1055913287+1055828152+1055979482+1056451274
2302+1057141662+1057741493+1057898713+1057558639+1057088385+1056944686
2293+1057196880+1057503689+1057597191+1057518882+1057315280+1056989462
2285+1056877019+1057437428+1058417758+1058967994+1058893969+1058952734
2276+1059500626+1059750210+1058977163+1057734465+1057218967+1057929434
2268+1059370112+1060582959+1060729537+1059703024+1058345340+1057608971
2259+1057574435+1057730449+1057912233+1058339383+1059038605+1059804022
2251+1060454252+1060836358+1060957636+1061186939+1061791455+1062316525
2242+1061999341+1060783951+1059392668+1058353304+1057453960+1056353288
2234+1055310177+1054876467+1055151886+1055830294+1056676629+1057557233
2225+1058361805+1059180766+1060095705+1060752025+1060718962+1060151860
2217+1059616282+1059589309+1060334982+1061638586+1062576817+1062262981
2208+1060914131+1059695863+1059583219+1060657720+1062247520+1063488277
2200+1063911879+1063632311+1063003298+1062202275+1061155014+1059776380
2191+1058477193+1058384226+1060327285+1063334203+1065218228+1065281277
2183+1065094340+1065870600+1066680860+1066152711+1064583326+1063580574
2174+1064180873+1065637280+1066110211+1064554479+1061603582+1058743710
2166+1057254306+1057651003+1059420912+1061643807+1064192787+1067253383
2157+1069766153+1070391686+1069328428+1067505912+1065485615+1063938451
2149+1063641949+1064291241+1064657418+1064418610+1064484804+1065313136
2140+1066273856+1066789689+1066969330+1067094691+1067344743+1067855891
2132+1068432430+1068503510+1067760917+1066538365+1065370629+1064520411
2123+1064027937+1063836650+1063810480+1063932963+1064393176+1065084836
2115+1065287903+1064488619+1063279721+1062707800+1062978869+1063528301
2106+1064019704+1064495112+1064820594+1064736597+1064383873+1064330797
2098+1065043272+1066470029+1068091218+1069279167+1069619375+1069082258
2089+1068103935+1067380417+1067284773+1067481214+1067319443+1066610315
2081+1065871871+1065737809+1066227071+1066756090+1066867194+1066668678
2072+1066496466+1066487364+1066674234+1067216370+1068150251+1068989693
2064+1069061777+1068451237+1068085329+1068532156+1069212839+1069193697
2055+1068289065+1067004402+1065920463+1065445123+1065715187+1066476387
2047+1067328345+1068107282+1068925172+1070047462+1071532515+1072713236
2038+1072726287+1071787587+1070963606+1070616639+1070325625+1070256352
2030+1071092983+1072517129+1072994611+1071567654+1069311294+1068190008
2021+1068486844+1068723845+1068384909+1068708652+1070207426+1071623942
2013+1071864290+1071009052+1069544680+1068138873+1067626253+1068056348
2004+1068578807+1068989091+1070138421+1072213064+1073741823+1073175591
1996+1070895873+1068853690+1068613142+1070194776+1072199210+1072664176
1987+1070530165+1066845107+1063934234+1063096934+1063991259+1065971196
1979+1068499227+1070400721+1070575945+1069586043+1068920152+1069088148
1970+1069565161+1070005564+1070611485+1071424490+1071929614+1071733307
1962+1071175977+1070801501+1070588394+1070348248+1070463903+1071268073
1953+1072014883+1071610958+1070386800+1069980732+1071117078+1072597178
1945+1073021718+1072481388+1071871585+1071418667+1070843600+1070232659
1936+1069878329+1069794532+1069879065+1070244238+1071022371+1071976465
1928+1072557689+1072379119+1071545031+1070573000+1070029324+1070075305
1919+1070392355+1070599371+1070663289+1070814820+1071135484+1071430647
1911+1071444970+1071173099+1070863880+1070596158+1070122692+1069337731
1902+1068541192+1068035934+1067768480+1067505711+1067117782+1066666269
1894+1066386500+1066502758+1067013437+1067649009+1068015119+1067913987
1885+1067576456+1067511868+1068055611+1068988087+1069708861+1069904097
1877+1069917483+1070223288+1070730354+1071021233+1071070160+1071282061
1868+1071867168+1072475298+1072642825+1072284345+1071670459+1071187489
1860+1071046466+1071152417+1071234206+1071106971+1070862140+1070754248
1851+1070876128+1071082140+1071232265+1071327641+1071413446+1071493294
1843+1071560492+1071662160+1071863420+1072119696+1072232474+1072058187
1834+1071755394+1071651652+1071865628+1072086499+1071861947+1071211115
1826+1070553122+1070168138+1070064128+1070176370+1070461896+1070820576
1817+1071118617+1071302542+1071405548+1071459427+1071467860+1071473683
1809+1071561028+1071713696+1071774000+1071611359+1071265396+1070928736
1800+1070830013+1071038836+1071359032+1071491487+1071242974+1070648765
1792+1070081262+1069942314+1070087687+1070075104+1069727066+1069251190
1783+1068967941+1068966000+1069122751+1069324145+1069502380+1069550503
1775+1069371732+1069048860+1068867344+1068983134+1069188410+1069185732
1766+1068882604+1068433769+1068005347+1067593390+1067215835+1067060824
1758+1067183441+1067359468+1067409666+1067408394+1067465285+1067567755
1749+1067643588+1067662596+1067700010+1067882262+1068219658+1068536373
1741+1068614749+1068413154+1068088608+1067665942+1066811508+1065292722
1732+1063717179+1062603724+1061643673+1060609798+1059715005+1059252314
1724+1059265634+1059397152+1058958891+1057143068+1053355607+1048567066
1715+1045606197+1045747621+1048004181+1051145161+1054390084+1057309791
1707+1059742513+1061745742+1063466190+1065054717+1066563731+1067638367
1698+1067856895+1067534357+1067146361+1066813382+1066553491+1066334361
1690+1065972133+1065359585+1064616791+1063726616+1062418594+1060681012
1681+1058646995+1056206108+1053221679+1049242729+1043394948+1035533362
1673+1026348227+1015122984+1000044755+982282748+966038055+952193221+938063865
1663+921380041+902586435+883187376+863273488+842635412+820080180+790026661
1653+750638818+722223490+714817299+719648942+732511639+750312934+766384813
1643+778503845+788846476+798772130+808700863+820170000+835412209+852248701
1633+865443708+874902790+883153509+891363601+899167761+906099414+912776598
1623+920212305+928066729+935107680+941481000+948538616+956456758+963373219
1613+968467162+972531180+976207470+979606801+982486819+984459327+985157211
1604+984099643+980752718+975028490+967414748+958699665+950021461+942942359
1594+939003970+939040916+942695654+948387086+953975713+957601403+957868054
1584+953791319+945328899+934062025+922734245+914334605+912040631+916798115
1574+924922537+933621690+943401101+954584178+965064618+973173244+979556871
1564+984909167+989199075+992900463+997202553+1001210818+1002275882+1001194687
1554+999242794+996646494+993547413+990253363+987068946+984082040+980920245
1544+976983395+971593417+962418255+946666237+928296033+911235993+891836465
1534+864978207+832279194+802231632+778013512+756565176+736467832+719809977
1524+708067228+700402284+696183657+695432228+697827737+703091550+710517619
1514+718913845+727825837+737196772+746888771+758339570+774723144+793336707
1504+807001164+816323440+824522288+833070111+842299220+851933994+860902877
1494+868143817+873857403+879113051+884792770+890669332+895891849+900384489
1485+904353265+907419751+908688485+906899702+900367355+887240685+866224519
1475+837261364+803750753+775699392+761696735+759806351+764881688+774508699
1465+787010172+799030348+808068102+814424087+819404316+823516791+825872811
1455+826042747+824804734+822845412+820777327+819293345+818897318+819688436
1445+821419592+823708949+826105996+828080177+829150864+828907304+827186388
1435+824711032+822640337+821679617+822309700+824769730+828722710+833743298
1425+839714834+846281516+852810583+859278743+865913828+871552853+874678707
1415+875838210+876598808+878036876+880322083+882658692+883522630+880911271
1405+873113471+861049723+849032893+841841014+842359859+850424980+863187750
1395+877635226+891336428+902405923+910737829+917588631+923896158+929255682
1385+932252025+932026335+929392956+926847256+927102395+930574547+934737755
1375+935908838+930953775+918117381+896526885+865313060+825946033+785358462
1366+753419578+738404465+744400564+767140725+795827859+822722461+845908780
1356+865749714+882608829+896635781+908156790+917698129+925657366+932251422
1346+937704984+942285437+946294706+950057804+953755244+957323508+960670566
1336+963842133+966936396+970042706+973208650+976373591+979405073+982214078
1326+984778987+987071422+989039914+990701664+992171256+993524657+994705645
1316+995607667+996092846+995892790+994668431+992130094+987871375+981118426
1306+970763747+955620730+934850265+908753140+879516374+850863977+826482480
1296+808550403+797636253+793665001+796505664+805598636+819553772+836469510
1286+854586917+872620862+889691611+905145521+918394875+928742727+935312688
1276+937166997+933416414+923303489+906690946+885027763+861881602+841791954
1266+827465555+817657364+808835326+799950776+794680068+797725338+809669949
1256+826672630+844195762+859746118+872890124+884146088+894189138+903461484
1247+911956298+919361284+925593448+931119494+936595611+942280618+947899832
1237+952973429+957158256+960344615+962584041+963999688+964772266+965230137
1227+965908879+967356518+969739109+972594363+974842758+974693168+969103069
1217+953481097+923743356+881428175+837301790+806986104+800224253+814527227
1207+839425159+865110127+886780471+903642865+916478589+926239193+933700802
1197+939577296+944588180+949288238+953911192+958432746+962721985+966604287
1187+969902888+972564378+974738279+976643990+978389135+979979805+981454484
1177+982913501+984413279+985866205+987106025+988068619+988831693+989498053
1167+990168429+990961688+991898046+992847588+993716413+994538185+995321204
1157+995990442+996525283+996990651+997421014+997771997+997998021+998161599
1147+998432534+998930564+999626038+1000436901+1001283102+1002029109+1002597483
1137+1003115458+1003698422+1004160577+1004247051+1004061587+1003957912
1129+1004056969+1004140029+1004018952+1003796542+1003701300+1003819834
1120+1004081867+1004404539+1004751573+1005104564+1005415858+1005567121
1112+1005459630+1005244851+1005294714+1005742010+1006200885+1006149148
1103+1005475961+1004549309+1003906174+1003948608+1004754986+1006063075
1095+1007451146+1008559448+1009217776+1009488911+1009548212+1009465218
1086+1009217040+1008957149+1009018725+1009546672+1010337389+1011127838
1078+1011835025+1012451722+1012917625+1013194851+1013350197+1013504003
1069+1013726881+1014010198+1014302818+1014573686+1014813698+1014964827
1061+1014889999+1014462715+1013636124+1012346374+1010437985+1007754007
1052+1004096658+998839471+990582126+977438589+958234565+934213757+909684544
1043+890010401+878172209+873543097+874034233+878486046+886563482+897290896
1033+908689288+918882397+927194759+934030568+939782773+944083992+946243839
1023+946219074+944833547+943032247+941260263+939775611+939249940+940657286
1013+944571715+950691703+957947032+965028744+970954767+975210139+977478680
1003+977574859+975803009+973090853+970448773+968445611+967473379+968254123
993+971478966+976897590+983242263+989178059+994007560+997439219+999041467
983+998056050+993341602+983160073+965837732+942513402+919741650+907202629
973+910657580+927370853+949088450+968638906+983255114+993375937+1000370572
963+1005461705+1009520703+1012993725+1015897704+1018050723+1019410282
955+1020170478+1020501650+1020295303+1019233050+1016818734+1012214721
946+1004826803+995924248+989139038+988082206+993276880+1001980250+1010770830
936+1017738292+1022616452+1025857426+1027998598+1029503998+1030728424
928+1031892814+1033117039+1034429947+1035741114+1036908583+1037864952
919+1038657944+1039391837+1040115556+1040745974+1041167770+1041445263
911+1041825629+1042497611+1043420314+1044408208+1045319667+1046106703
902+1046748967+1047282604+1047836922+1048463458+1049020922+1049355976
894+1049433214+1049287238+1049091467+1049133700+1049424379+1049522030
885+1048938865+1047467265+1044926718+1040747246+1033742772+1021492489+999217762
875+961120941+907190515+850074064+810797058+803425872+824540560+858751933
866+891988464+918131102+936506326+946604661+943796861+918051321+860594194
856+777863254+697501718+652752746+657630906+699676155+755340684+807452409
846+849547789+881452203+905117009+922861748+936683290+947901572+957088849
836+964452606+970353731+975295074+979568584+983231220+986399306+989413721
826+992634348+996033344+999176064+1001769151+1003995326+1006133352+1008093746
816+1009575988+1010583693+1011515432+1012659876+1013840529+1014710492
807+1015152233+1015211466+1014863361+1014021978+1012737783+1011285927
799+1009869411+1008125538+1005088032+999543178+990041528+974887200+953435852
789+928392078+906299135+894226351+894962921+905437539+919772170+933430403
779+944783014+954082467+961809656+967841496+971801571+973814103+974515869
769+974403627+973514857+971725137+969084060+965774951+961895795+957439900
759+952448293+947032681+941282685+935196296+928575267+921038495+912290415
749+902211758+890641622+877451301+862876724+847426294+831534526+815547247
739+799891743+785160214+772123029+761521310+753787763+749102497+747581033
730+749334812+754562483+763351859+775190452+789157502+804714150+821384186
720+836281904+841310858+825426719+784793167+732221696+691648582+679110833
710+691667189+715477233+739397311+759455100+775649930+788826263+799858612
700+809543852+818437706+826849996+834928168+842595454+849611842+856018627
690+862334989+868954679+875583807+881667318+887125430+892348015+897699038
680+903248310+908772885+913862210+918193348+921757663+924750258+927436378
670+930380649+934475990+939492496+943783675+947054300+950136715+953429426
660+956672140+959683208+962701036+965820330+968719423+971150739+973325846
650+975602887+977948934+979908925+981180470+982060071+983101642+984455445
640+985848000+987017744+987705053+987381176+985398227+981058456+973007190
630+958713854+935053399+900661113+859928638+824685397+808265012+815578972
620+840024923+870025968+896927397+917301164+930802043+937495424+936361421
611+925253508+902620435+870479021+836341739+811162498+803320122+813559078
601+835703223+861653570+885640043+905327773+920850019+933307652+943393805
591+951037131+956441632+960713335+964812023+968648276+971916156+975117440
581+978904901+982930167+986144502+987937235+988539006+988600917+988740936
571+989357499+990267017+990180878+986796740+977218388+957913500+926238858
561+885456854+847935435+828909981+834732196+858601875+887798684+913078588
551+931571007+944122210+952126893+956570808+958979100+961711335+966068776
541+970895132+974281947+976098909+977709389+979704921+981243586+981529245
531+980678157+978406136+972443100+959655231+940195265+920012852+906976939
521+905289288+913897081+927898131+941714052+952392673+959910035+964952242
511+967664064+968615815+969874175+973620407+979591340+985225681+988286009
501+988483387+987192432+986155746+986297371+987581298+989778626+992832997
492+996237415+999019179+1000772088+1001706036+1001767880+1000740564+999120981
482+998113008+998653672+1000572502+1002580349+1003440338+1003120946+1002350710
472+1001700815+1001719958+1002849476+1004409960+1004852839+1003681957
463+1001880189+1000178147+998532595+997611364+998915638+1002285185+1005651721
453+1007943888+1009535361+1010513282+1010338794+1009100715+1008012827
445+1008250028+1009469568+1009871954+1008204449+1005430716+1003721112
436+1004130659+1005649914+1006993409+1008473442+1010856836+1013363516
428+1014237025+1012886770+1010369248+1007811902+1004601515+998173045+986152868
418+970063789+952400839+930273293+899366946+861144496+825518280+805358556
408+807664846+829501111+861387923+894179567+921989844+941214483+950971204
398+955800572+962808995+972236285+979560084+983681327+986645075+989313392
388+989959405+987142502+983032570+981701256+983042141+983557305+983278406
378+986785629+997322894+1007714919+1003901021
##END=
