##TITLE=AH317
##JCAMP-DX=5.0
##DATA TYPE=LINK
##BLOCKS=1


$$ === CHEMSPECTRA SPECTRUM ORIG ===
##TITLE=AH317
##JCAMP-DX=5.00
##DATA TYPE=INFRARED SPECTRUM
##DATA CLASS=XYDATA
##$CSCATEGORY=SPECTRUM
##ORIGIN=
##OWNER=
##XUNITS=1/CM
##YUNITS=TRANSMITTANCE
##XFACTOR=0.12501352010900002
##YFACTOR=0.004064065243272092
##FIRSTX=4000.433
##LASTX=249.7859
##MAXX=4000.433
##MAXY=130.05008778470696
##MINX=249.7859
##MINY=50.126180710517986
##NPOINTS=3890
##XYDATA= (X++(Y..Y))
3890B4342B4319B4348B4371B4333B4310B4325B4328B4347B4355B4336B4333B4327B4340
3876B4323B4327B4349B4352B4315B4303B4300B4321B4332B4338B4346B4361B4368
3863B4377B4380B4359B4388B4350B4324B4351B4370B4394B4377B4348B4347B4321
3850B4338B4389B4391B4377B4363B4361B4346B4321B4306B4321B4315B4281B4322
3837B4370B4355B4409B4426B4363B4320B4305B4362B4401B4379B4390B4369B4366
3824B4347B4327B4336B4319B4320B4397B4392B4329B4346B4357B4350B4328B4325
3811B4380B4402B4379B4310B4291B4397B4368B4353B4454B4419B4326B4332B4362
3798B4370B4371B4344B4397B4392B4353B4403B4410B4504B4481B4386B4529B4411
3785B4419B4440B4377B4365B4376B4348B4319B4249B4375B4520B4453B4408B4397
3772B4254B4410B4550B4447B4429B4337B4275B4549B4559B4423B4389B4370B4320
3759B4461B4532B4364B4254B4327B4605B4563B4436B4288B4240B4536B4568B4406
3746B4485B4511B4403B4350B4349B4416B4273B3924B4660B4701B4626B4628B4477
3733B4465B4431B4443B4429B4404B4392B4493B4454B4407B4485B4477B4379B4628
3720B4555B4391B4495B4510B4415B4478B4552B4475B4428B4387B4430B4487B4440
3707B4437B4419B4424B4637B4720B4560B4454B4320B4417B4703B4539B4442B4424
3694B4413B4402B4430B4377B4298B4608B4647B4491B4388B4324B4423B4752B4688
3681B4522B4433B4410B4540B4575B4523B4345B4380B4413B4364B4371B4428B4464
3668B4464B4464B4476B4469B4450B4455B4396B4409B4497B4466B4427B4410B4416
3655B4368B4448B4449B4416B4480B4568B4507B4428B4405B4484B4475B4490B4508
3642B4479B4425B4490B4503B4455B4513B4555B4503B4436B4463B4747B4619B4563
3629B4728B4576B4477B4361B4434B5020B4762B4519B4507B4530B4465B4425B4426
3616B4536B4598B4657B4536B4555B4695B4598B4545B4531B4501B4534B4556B4532
3603B4521B4514B4546B4521B4481B4525B4579B4524B4469B4457B4443B4353B4615
3590B4718B4474B4573B4632B4509B4476B4514B4541B4511B4454B4601B4613B4530
3577B4526B4533B4506B4486B4478B4492B4504B4485B4674B4605B4400B4725B4669
3564B4527B4503B4537B4548B4544B4522B4483B4521B4538B4412B4437B4809B4900
3551B4660B4501B4425B4669B4762B4719B4682B4530B4490B4523B4557B4511B4467
3538B4459B4536B4559B4535B4491B4587B4642B4549B4528B4448B4429B4516B4604
3525B4677B4664B4728B4621B4553B4523B4499B4522B4524B4497B4497B4490B4509
3512B4533B4469B4484B4586B4539B4447B4371B4593B4790B4666B4532B4560B4542
3499B4520B4478B4475B4493B4571B4591B4608B4629B4539B4543B4563B4609B4713
3486B4618B4464B4607B4645B4635B4643B4547B4556B4554B4549B4542B4565B4570
3473B4576B4509B4483B4552B4571B4549B4596B4547B4500B4456B4542B4614B4638
3460B4668B4603B4564B4564B4572B4561B4587B4589B4520B4488B4535B4568B4561
3447B4540B4571B4559B4530B4491B4552B4634B4628B4646B4590B4534B4506B4502
3434B4500B4535B4568B4562B4587B4581B4564B4538B4531B4552B4551B4550B4558
3421B4561B4569B4568B4554B4575B4590B4571B4551B4550B4550B4553B4522B4549
3408B4592B4585B4562B4529B4520B4530B4536B4536B4526B4531B4548B4542B4536
3395B4533B4553B4560B4553B4574B4598B4599B4584B4588B4597B4624B4645B4611
3382B4547B4525B4577B4623B4631B4560B4474B4519B4588B4592B4562B4565B4596
3369B4604B4600B4572B4581B4578B4580B4562B4533B4550B4558B4571B4593B4600
3356B4574B4582B4591B4567B4571B4578B4588B4550B4504B4504B4500B4532B4568
3343B4557B4588B4604B4595B4573B4581B4568B4530B4511B4523B4560B4574B4573
3330B4598B4627B4631B4607B4575B4577B4589B4591B4576B4539B4528B4553B4539
3317B4508B4566B4589B4549B4539B4532B4556B4588B4592B4538B4542B4566B4580
3304B4561B4563B4568B4547B4570B4623B4636B4604B4548B4507B4528B4581B4579
3291B4559B4570B4586B4593B4561B4550B4528B4504B4546B4597B4575B4556B4544
3278B4526B4542B4574B4559B4555B4563B4522B4508B4518B4546B4547B4523B4512
3265B4508B4555B4572B4554B4549B4517B4496B4518B4526B4522B4527B4542B4524
3252B4508B4511B4533B4512B4483B4511B4523B4519B4538B4520B4497B4528B4573
3239B4572B4544B4560B4591B4577B4569B4576B4581B4553B4536B4544B4583B4590
3226B4565B4577B4584B4567B4553B4521B4526B4549B4557B4555B4540B4538B4564
3213B4557B4551B4550B4563B4543B4531B4560B4589B4593B4576B4589B4586B4601
3200B4589B4562B4576B4609B4623B4560B4528B4524B4509B4502B4514B4538B4540
3187B4548B4548B4541B4572B4584B4572B4582B4579B4579B4573B4528B4517B4533
3174B4519B4509B4507B4533B4577B4549B4524B4561B4578B4581B4571B4563B4593
3161B4589B4539B4505B4498B4481B4491B4513B4528B4545B4541B4540B4523B4511
3148B4517B4508B4528B4513B4497B4530B4537B4549B4560B4564B4547B4549B4572
3135B4574B4566B4540B4518B4545B4584B4560B4549B4583B4629B4633B4586B4574
3122B4578B4577B4608B4589B4549B4560B4574B4592B4602B4609B4611B4567B4570
3109B4594B4594B4606B4641B4643B4613B4627B4632B4624B4594B4575B4586B4602
3096B4610B4614B4604B4607B4594B4577B4570B4569B4586B4577B4540B4574B4626
3083B4644B4634B4620B4632B4634B4642B4650B4644B4643B4622B4608B4591B4609
3070B4619B4590B4564B4565B4603B4610B4575B4551B4564B4583B4581B4559B4553
3057B4573B4575B4572B4559B4570B4568B4557B4587B4598B4598B4601B4585B4559
3044B4540B4540B4536B4553B4565B4551B4523B4483B4494B4560B4595B4590B4530
3031B4495B4484B4460B4449B4468B4479B4506B4499B4468B4468B4437B4437B4457
3018B4446B4457B4491B4513B4522B4505B4502B4502B4502B4500B4477B4482B4464
3005B4463B4523B4533B4480B4453B4448B4453B4499B4506B4492B4513B4512B4503
2992B4510B4504B4476B4491B4516B4503B4516B4534B4534B4550B4561B4561B4561
2979B4554B4577B4596B4597B4592B4581B4582B4546B4546B4565B4549B4520B4510
2966B4506B4501B4528B4540B4530B4532B4537B4526B4530B4571B4566B4525B4521
2953B4534B4549B4550B4538B4522B4504B4511B4518B4520B4511B4496B4493B4520
2940B4532B4501B4490B4494B4449B4450B4488B4486B4465B4439B4428B4429B4443
2927B4442B4430B4435B4463B4479B4472B4463B4474B4509B4511B4465B4434B4427
2914B4434B4451B4420B4386B4371B4370B4345B4300B4254B4228B4194B4165B4127
2901B4081B4090B4101B4079B4050B4036B4046B4076B4086B4123B4166B4192B4184
2888B4188B4218B4213B4188B4187B4220B4257B4256B4253B4273B4277B4267B4248
2875B4222B4214B4214B4185B4176B4165B4127B4109B4116B4087B4076B4091B4079
2862B4070B4054B4033B3992B3965B3973B3949B3927B3910B3857B3825B3815B3759
2849B3730B3696B3655B3611B3567B3522B3483B3427B3397B3387B3374B3383B3389
2836B3372B3378B3386B3365B3343B3348B3344B3307B3276B3279B3265B3209B3180
2823B3193B3177B3093B3009B2977B2944B2878B2798B2666B2506B2341B2176B2008
2810B1839B1683B1537B1443B1384B1371B1384B1362B1342B1302B1182B1041B0888
2797B0698B0499B0321B0212B0139B0058A9997A9917A9790A9616A9380A9168A9053
2784A9099A9308A9613A9901B0125B0313B0485B0627B0724B0840B0954B1051B1161
2771B1278B1359B1412B1453B1493B1559B1647B1723B1797B1870B1960B2035B2125
2758B2233B2320B2383B2448B2488B2512B2534B2550B2580B2558B2521B2506B2495
2745B2479B2469B2449B2444B2449B2436B2434B2427B2392B2358B2328B2283B2244
2732B2226B2201B2180B2177B2203B2211B2225B2241B2222B2203B2217B2205B2168
2719B2159B2160B2162B2150B2171B2192B2223B2229B2209B2215B2228B2243B2265
2706B2267B2252B2253B2244B2201B2152B2080B1991B1898B1755B1596B1433B1263
2693B1132B1011B0851B0682B0520B0363B0226B0130B0056A9971A9868A9784A9676
2680A9585A9520A9525A9620A9783A9981B0180B0384B0585B0771B0937B1128B1324
2667B1490B1645B1769B1884B1997B2097B2183B2264B2357B2434B2509B2585B2653
2654B2730B2819B2896B2972B3049B3119B3188B3229B3249B3317B3361B3363B3395
2641B3449B3500B3519B3545B3582B3593B3596B3601B3601B3613B3632B3656B3700
2628B3742B3765B3816B3875B3918B3963B4014B4042B4041B4063B4120B4143B4156
2615B4182B4190B4205B4211B4229B4246B4251B4261B4282B4300B4307B4319B4309
2602B4311B4337B4351B4357B4362B4357B4340B4329B4324B4317B4311B4306B4294
2589B4289B4300B4291B4292B4288B4293B4293B4307B4325B4328B4314B4330B4356
2576B4351B4344B4361B4375B4366B4375B4376B4383B4396B4393B4391B4412B4404
2563B4402B4411B4413B4416B4426B4447B4455B4446B4440B4437B4438B4436B4436
2550B4449B4481B4509B4528B4519B4510B4512B4509B4546B4565B4556B4558B4564
2537B4573B4575B4562B4569B4566B4555B4555B4564B4559B4545B4553B4551B4540
2524B4527B4531B4528B4505B4501B4514B4522B4516B4516B4505B4504B4536B4545
2511B4530B4534B4542B4541B4559B4577B4575B4570B4562B4558B4556B4556B4552
2498B4564B4569B4547B4522B4511B4524B4523B4520B4486B4496B4522B4536B4540
2485B4548B4545B4554B4562B4570B4591B4622B4624B4619B4609B4611B4628B4626
2472B4625B4640B4675B4669B4646B4651B4660B4663B4665B4656B4625B4589B4592
2459B4603B4595B4580B4580B4602B4608B4633B4641B4620B4606B4634B4670B4703
2446B4718B4714B4690B4681B4707B4718B4710B4699B4678B4692B4716B4712B4681
2433B4664B4664B4679B4708B4708B4693B4675B4656B4658B4663B4685B4701B4668
2420B4696B4705B4670B4666B4725B4749B4733B4727B4741B4802B4819B4779B4735
2407B4727B4752B4765B4775B4731B4684B4695B4718B4736B4727B4699B4687B4682
2394B4680B4696B4720B4703B4700B4726B4699B4665B4684B4714B4745B4786B4774
2381B4757B4783B4766B4747B4730B4705B4704B4682B4707B4751B4781B4782B4794
2368B4753B4708B4708B4668B4637B4662B4657B4660B4729B4712B4648B4651B4702
2355B4728B4684B4715B4758B4761B4761B4768B4766B4769B4765B4789B4804B4783
2342B4766B4769B4742B4694B4702B4728B4712B4714B4722B4731B4731B4686B4653
2329B4698B4731B4705B4706B4711B4718B4718B4752B4778B4784B4802B4789B4773
2316B4783B4792B4800B4822B4802B4791B4798B4785B4776B4736B4700B4733B4705
2303B4681B4697B4699B4731B4743B4686B4670B4678B4682B4732B4726B4690B4699
2290B4719B4719B4751B4746B4733B4780B4803B4791B4772B4775B4808B4789B4754
2277B4760B4774B4781B4767B4759B4751B4762B4777B4752B4722B4693B4712B4726
2264B4689B4671B4706B4752B4732B4715B4747B4766B4792B4811B4817B4821B4827
2251B4799B4755B4743B4754B4751B4768B4780B4776B4741B4722B4718B4724B4736
2238B4731B4698B4668B4687B4724B4704B4687B4714B4745B4743B4743B4747B4731
2225B4753B4733B4728B4751B4782B4802B4761B4744B4726B4732B4730B4750B4713
2212B4660B4640B4606B4573B4576B4572B4597B4615B4598B4603B4679B4671B4608
2199B4619B4678B4679B4671B4729B4774B4710B4710B4753B4824B4827B4793B4865
2186B4913B4842B4820B4796B4812B4822B4791B4720B4702B4665B4651B4616B4601
2173B4626B4695B4783B4730B4701B4727B4726B4735B4708B4694B4707B4768B4735
2160B4748B4726B4773B4803B4790B4759B4756B4668B4685B4667B4696B4659B4674
2147B4620B4708B4660B4713B4674B4690B4622B4683B4636B4658B4667B4692B4720
2134B4701B4698B4662B4725B4716B4735B4728B4765B4752B4745B4738B4742B4756
2121B4766B4743B4723B4664B4691B4687B4671B4677B4664B4670B4677B4697B4707
2108B4677B4671B4675B4620B4579B4657B4715B4758B4784B4764B4720B4774B4827
2095B4862B4860B4851B4866B4834B4801B4718B4734B4783B4754B4783B4844B4857
2082B4736B4666B4725B4765B4707B4721B4779B4782B4757B4806B4840B4793B4774
2069B4753B4766B4843B4863B4946B5041B4940B4824B4811B4763B4745B4792B4853
2056B4855B4823B4727B4678B4791B4842B4823B4810B4756B4810B4755B4680B4774
2043B4820B4811B4815B4868B4961B4919B4848B4851B4831B4796B4923B4899B4818
2030B4795B4863B4912B4851B4879B4986B4959B4957B4942B4876B4978B4915B4749
2017B4830B4982B4884B4754B4896B5032B5030B5067B4941B4866B4942B5018B5155
2004B5061B5073B5085B5035B5023B5005B4919B5026B5168B5224B5329B5278B5245
1991B5194B4988B4833B4730B4797B4933B5028B5111B5174B5124B5105B4969B4962
1978B5056B4768B4838B5043B5018B4998B5012B5024B5121B5100B4949B4864B4806
1965B4834B4955B4946B4830B4779B4875B5030B4928B4842B4829B4886B4927B4866
1952B4832B4908B4915B4858B4895B4907B4873B4839B4788B4803B4736B4794B4914
1939B4895B4819B4798B4847B4900B4871B4849B4862B4848B4808B4820B4809B4747
1926B4658B4681B4751B4789B4738B4670B4704B4757B4735B4718B4709B4759B4804
1913B4828B4787B4807B4841B4883B4929B4872B4857B4954B4918B4813B4764B4800
1900B4815B4820B4829B4854B4927B4955B4879B4838B4895B4932B4863B4786B4660
1887B4650B4661B4728B4787B4775B4734B4870B4861B4855B4925B4879B4811B4837
1874B4921B4905B4901B4887B4857B4847B4796B4805B4807B4994B5035B4982B4989
1861B4849B4827B4910B4955B5076B4972B4896B4973B4915B4955B4978B4956B5069
1848B4971B4918B5011B4956B4957B4852B4768B4885B5140B5260B5049B5070B5100
1835B5033B5073B5076B5044B4945B4930B4900B4870B4971B4849B4898B4927B4898
1822B4944B4814B4791B4781B4789B4703B4628B4729B4876B4952B4897B4866B4910
1809B4905B4916B4936B4950B5009B5014B5018B4970B4902B4945B4940B4866B4842
1796B4730B4688B4862B4927B5045B5189B5154B5018B4937B4890B4896B4979B4889
1783B4817B4842B4881B4846B4827B4953B4959B4808B4668B4873B4914B4832B4838
1770B4818B4836B4826B4860B4842B4754B4730B4736B4795B4848B4796B4748B4783
1757B4829B4874B4868B4867B4927B4926B4887B4790B4797B4824B4879B4926B4929
1744B4929B4909B4826B4823B4827B4815B4743B4680B4675B4724B4737B4729B4714
1731B4696B4708B4691B4643B4651B4687B4720B4739B4760B4766B4763B4790B4815
1718B4813B4809B4800B4811B4812B4831B4859B4834B4795B4760B4766B4797B4778
1705B4732B4722B4736B4742B4742B4752B4723B4711B4722B4698B4701B4718B4740
1692B4753B4760B4757B4749B4766B4778B4780B4777B4759B4735B4757B4755B4757
1679B4809B4800B4756B4744B4738B4730B4732B4740B4754B4739B4721B4722B4715
1666B4692B4683B4681B4678B4671B4664B4665B4659B4677B4690B4691B4686B4745
1653B4773B4747B4750B4742B4707B4697B4728B4752B4739B4745B4760B4757B4730
1640B4720B4744B4727B4702B4676B4666B4716B4714B4699B4708B4716B4718B4721
1627B4730B4738B4757B4758B4760B4762B4755B4759B4790B4787B4768B4754B4754
1614B4784B4782B4761B4761B4770B4748B4708B4728B4725B4699B4689B4689B4639
1601B4629B4674B4699B4713B4688B4678B4691B4703B4700B4718B4730B4733B4728
1588B4737B4743B4741B4743B4716B4702B4696B4652B4666B4708B4705B4670B4620
1575B4638B4635B4616B4599B4567B4532B4525B4558B4552B4553B4534B4501B4534
1562B4548B4534B4524B4515B4546B4619B4622B4648B4680B4701B4717B4730B4742
1549B4765B4767B4738B4762B4821B4804B4796B4769B4741B4809B4854B4835B4806
1536B4807B4839B4844B4849B4852B4860B4872B4898B4914B4917B4893B4857B4842
1523B4893B4888B4835B4812B4778B4725B4674B4603B4554B4493B4381B4266B4239
1510B4188B4157B4136B4088B3998B4175B4330B4267B4246B4251B4435B4459B4424
1497B4425B4404B4385B4425B4444B4439B4406B4286B4207B4258B4185B4030B3839
1484B3729B3650B3559B3429B3282B3171B3105B2935B2737B2583B2439B2283B2161
1471B2004B1816B1555B1190B0812B0307A9810A9232A8702A8035A7325A6604A5920
1458A5231A4524A3749A3196A2911A2638A2449A2337A2334A2393A2566A2730A2961
1445A3264A3649A4064A4517A4925A5359A5661A6048A6573A6824A7045A7293A7525
1432A7786A8025A8362A8728A9073A9402A9730B0154B0472B0727B0982B1222B1407
1419B1586B1985B2226B2386B2505B2660B2791B2927B3051B3211B3355B3511B3623
1406B3746B3865B4007B4109B4194B4345B4391B4411B4428B4449B4463B4413B4376
1393B4350B4324B4286B4234B4140B4088B4012B4053B3954B3861B3749B3593B3460
1380B3375B3278B3097B2805B2231B1548B0659A9746A9158A9170A9798B1034B1842
1367B2464B2844B3214B3482B3600B3634B3632B3649B3925B4076B4278B4286B4223
1354B4208B4330B4340B4319B4286B4313B4328B4313B4291B4288B4385B4442B4388
1341B4459B4539B4532B4653B4701B4648B4623B4625B4621B4684B4730B4737B4757
1328B4732B4702B4690B4684B4667B4686B4653B4630B4621B4625B4638B4618B4573
1315B4572B4585B4564B4560B4500B4477B4531B4542B4543B4545B4577B4657B4708
1302B4726B4734B4706B4696B4686B4662B4668B4667B4621B4684B4649B4569B4519
1289B4449B4361B4281B4164B4005B3823B3615B3296B3017B2731B2501B2277B2077
1276B1891B1732B1643B1768B2211B2591B3099B3642B4124B4385B4392B4489B4523
1263B4517B4537B4554B4651B4695B4738B4722B4590B4355B4171B4031B4024B4063
1250B4211B4296B4215B4000B3690B3324B2964B2589B2175B1641B0732A9642A8677
1237A8112A7939A8003A8188A8390A8795A9520B0142B0921B1716B2356B2735B2776
1224B2670B2338B1837B1369B0872B0598B0577B0610B0543B0364B0131B0069B0172
1211B0505B0996B1575B2119B2628B2966B3351B3623B3877B4099B4301B4473B4602
1198B4741B4753B4775B4753B4754B4737B4719B4645B4560B4506B4477B4440B4293
1185B4174B4019B3852B3597B3338B2956B2495B2091B1540B0923B0297A9708A9221
1172A8913A8856A9028A9373A9775B0152B0402B0484B0477B0494B0596B0834B1127
1159B1421B1719B2025B2336B2729B3070B3390B3645B3841B4002B3989B3942B3791
1146B3555B3450B3457B3618B3775B3976B4049B4025B3905B3835B3595B3452B3494
1133B3685B3950B4180B4311B4332B4356B4457B4516B4418B4146B3774B3482B3379
1120B3444B3628B3868B4064B4210B4352B4455B4538B4538B4545B4578B4629B4635
1107B4652B4670B4667B4641B4642B4665B4668B4649B4632B4621B4590B4535B4494
1094B4490B4479B4462B4452B4438B4356B4264B4191B4136B4069B3986B3913B3844
1081B3760B3658B3535B3414B3255B3053B2814B2539B2242B1909B1569B1224B0825
1068B0382A9927A9468A9021A8618A8279A7970A7633A7286A6969A6674A6409A6215
1055A6149A6183A6263A6369A6463A6479A6406A6261A6095A5974A5907A5897A5995
1042A6188A6439A6744A7116A7513A7917A8292A8659A9021A9329A9601A9847B0046
1029B0167B0205B0198B0135A9995A9811A9596A9398A9221A9092A9012A8977A8993
1016A9069A9224A9450A9704A9996B0310B0613B0895B1166B1402B1596B1762B1920
1003B2059B2172B2279B2377B2473B2556B2574B2506B2363B2185B2094B2175B2337
990B2434B2352B2009B1441B0865B0626B0942B1597B2257B2773B3153B3417B3587
977B3682B3699B3622B3422B3142B2917B2881B2978B3101B3204B3258B3224B3151
964B3128B3166B3256B3398B3600B3826B4020B4188B4342B4472B4545B4573B4547
951B4502B4417B4321B4326B4405B4462B4445B4347B4202B4023B3931B4001B4189
938B4388B4535B4649B4738B4751B4713B4667B4595B4468B4318B4138B3948B3765
925B3613B3542B3558B3630B3742B3901B4022B4084B4124B4165B4191B4144B4076
912B4009B3926B3811B3646B3462B3296B3135B2971B2829B2734B2666B2644B2669
899B2722B2758B2739B2663B2546B2356B2177B2190B2452B2843B3233B3554B3820
886B3958B4006B4051B4031B3914B3669B3325B2921B2573B2502B2741B3090B3344
873B3457B3405B3138B2778B2590B2715B3047B3426B3708B3880B3991B4065B4137
860B4248B4366B4451B4473B4454B4413B4335B4235B4081B3877B3645B3457B3306
847B3185B3158B3191B3261B3350B3423B3434B3421B3426B3424B3455B3437B3359
834B3311B3273B3238B3272B3301B3205B2989B2618B2069B1356B0564A9805A9197
821A8839A8730A8881A9269A9787B0320B0829B1340B1800B2178B2481B2748B3001
808B3221B3389B3556B3705B3843B3949B4013B4092B4168B4190B4184B4166B4110
795B3952B3698B3374B2939B2419B2016B1948B2248B2711B3144B3525B3812B3993
782B4132B4207B4209B4174B4049B3828B3554B3210B2864B2743B2891B3154B3419
769B3612B3667B3585B3472B3463B3549B3628B3626B3531B3371B3287B3435B3722
756B3982B4174B4310B4445B4530B4523B4494B4475B4385B4248B4148B4077B4012
743B3959B3911B3854B3776B3666B3486B3214B2846B2348B1626B0612A9266A7627
730A5980A4836A4554A5108A6110A7221A8231A9031A9630B0110B0647B1242B1796
717B2272B2645B2923B3125B3281B3412B3496B3487B3387B3279B3173B3155B3325
704B3547B3730B3884B3984B4036B4095B4137B4167B4211B4210B4216B4259B4290
691B4285B4304B4348B4431B4486B4507B4524B4556B4550B4518B4517B4552B4588
678B4637B4675B4654B4649B4655B4633B4639B4669B4654B4646B4629B4594B4548
665B4467B4325B4174B3937B3556B2964B2037B0811A9745A9518B0197B1265B2166
652B2788B3199B3472B3721B3908B3997B4024B4037B3981B3864B3700B3470B3017
639B2281B1517B1213B1560B2194B2734B3139B3396B3532B3610B3632B3530B3448
626B3524B3717B3896B4052B4278B4469B4530B4557B4639B4694B4710B4704B4697
613B4656B4591B4531B4411B4167B3761B3180B2472B1755B1443B1778B2469B3099
600B3439B3666B3893B4049B4088B4099B4096B4076B4017B3858B3630B3263B2771
587B2196B1373B0179A8529A6782A5777A6071A7387A9041B0564B1724B2512B3078
574B3507B3793B3925B4029B4107B4121B4081B3974B3859B3632B3297B2855B2129
561B0866A9180A7563A6719A6859A7681A8814A9935B0851B1606B2255B2805B3190
548B3454B3700B3896B4048B4189B4294B4390B4438B4454B4478B4507B4457B4445
535B4436B4419B4407B4404B4442B4540B4636B4683B4762B4818B4801B4732B4718
522B4776B4796B4769B4738B4648B4523B4399B4201B3857B3304B2510B1631B1053
509B1052B1578B2298B2884B3285B3595B3833B3936B3975B4016B3928B3786B3577
496B3276B2938B2393B1655B0786A9576A8066A6758A6318A6788A7808A8944B0013
483B0915B1604B2108B2520B2879B3184B3380B3522B3650B3762B3865B3974B4075
470B4107B4044B4085B4160B4221B4276B4380B4471B4518B4555B4610B4683B4684
457B4672B4690B4697B4693B4674B4673B4681B4682B4677B4692B4743B4748B4717
444B4732B4743B4698B4690B4695B4692B4695B4655B4630B4693B4674B4664B4692
431B4641B4550B4573B4603B4585B4539B4508B4497B4498B4480B4407B4375B4370
418B4278B4162B4067B3953B3845B3675B3479B3154B2603B1878B0984B0181A9667
405A9474A9190A8977A9287B0119B1065B1885B2463B2927B3362B3672B3823B4022
392B4192B4175B4261B4371B4470B4495B4451B4466B4379B4402B4436B4470B4529
379B4554B4570B4613B4639B4631B4617B4591B4551B4485B4426B4350B4247B4036
366B3768B3472B3112B2549B1945B1391B0883B0663B0839B1236B1707B2133B2482
353B2905B3224B3253B3274B3279B3104B2899B2652B2437B2449B2632B2906B3346
340B3667B3765B3880B4022B4029B4013B4005B3867B3595B3206B2604B2003B1364
327B0903B0983B1549B2099B2568B3009B3312B3542B3706B3751B3907B3947B3684
314B3578B3364B2902B2591B2284B1902B1724B1694B1833B2187B2389B2578B2885
301B3160B3322B3623B3897B4002B4149B4372B4344B4523B4688B4649B4702B4689
288B4508B4670B4802B4744B4736B4789B4717B4792B4882B4805B4843B4779B4597
275B4833B4816B4618B4661B4738B4780B4737B4632B4494B4608B4653B4610B4774
262B4758B4578B4650B4799B4591B4308B4046B3756B3394B2790B2247B2148B2272
249B2513B3001B3445B3803B4170B4450B4601B4789B4822B4691B4680B4595B4658
236B4915B4969B4768B4633B4634B4587B4398B4145B4087B4258B4458B4532B4776
223B4835B4859B4776B4800B4937B4917B4705B4637B4616B4537B4621B4582B4314
210B4304B4463B4583B4760B4721B4461B4584B4790B4665B4676B4741B4773B4783
197B4465B4375B4643B4557B4462B4774B4854B4819B4955B4834B4700B4657B4463
184B4291B4483B4532B4629B4962B4760B4460B4620B4770B4690B4923B4736B4357
171B4444B4359B4412B4629B4600B4447B4553B4464B4233B4468B4330B4184B4481
158B4645B4561B4513B4191B3997B4333B4037B3970B4359B3980B3355B3058B2611
145B2076B1626B1306B1372B1888B2204B2595B3188B3147B3526B4241B4184B3828
132B3680B3979B3935B4081B4045B3998B4239B4244B4169B4401B4132B3933B4269
119B4295B4177B4364B4368B4432B4254B4024B3893B3986B3696B3636B3822B3330
106B2548B2365B2704B2912B2638B2746B2696B2966B3282B3058B3246B3300B3428
93B3729B3618B3280B3272B3912B3997B3660B3440B2968B2901B3077B3660B3466
80B3096B3259B3126B2965B2796B2517B3120B3751B3421B2023B1556B2203B3011
67B2712B2793B2441B2883B3083B2772B2741B2434B2530B2863B2948B5160B3362
54B3213B3588B3611B3840B3697B3925B4153B4188B4360B3795B3220B4198B3823
41B2237B2563B3399B3235B2861B2448B1176B1865B3350B1616B1648B4363B2548
28B2763B1751B1441B2475B2762B1421B0270A9406A9396B1222B5721B4361B3016
15B3488B3566B3998B3853B2598B1386B1366B2604B4584B4889B2064B3583B7264
2C2000B9282
$$ === CHEMSPECTRA INTEGRALS AND MULTIPLETS ===
##$OBSERVEDINTEGRALS= (X Y Z)

##$OBSERVEDMULTIPLETS=
##$OBSERVEDMULTIPLETSPEAKS=
$$ === CHEMSPECTRA SIMULATION ===
##$CSSIMULATIONPEAKS=
##END=


$$ === CHEMSPECTRA PEAK TABLE EDIT ===
##TITLE=AH317
##JCAMP-DX=5.00
##DATA TYPE=INFRAREDPEAKTABLE
##DATA CLASS=PEAKTABLE
##$CSCATEGORY=EDIT_PEAK
##$CSTHRESHOLD=0.93
##MAXX=4000.433
##MAXY=130.05008778470696
##MINX=249.7859
##MINY=50.126180710517986
##$CSSOLVENTNAME=- - -
##$CSSOLVENTVALUE=0
##$CSSOLVENTX=0
##NPOINTS=58
##PEAKTABLE= (XY..XY)
386.7341870146565, 86.5889740731552
469.674698868443, 98.12685529880466
490.8920391103111, 90.0109170079903
544.8998142710207, 88.16583138754477
564.1883053998454, 84.95115578011654
581.5479474157878, 91.18543186329593
595.0498912059652, 83.97578012173123
637.4845716893801, 77.12376612157449
719.4606589868858, 66.32148070495727
739.7135746721519, 85.55670150136409
786.9703779377728, 67.9471068022661
810.116567292363, 64.12688547359033
831.3339075340705, 87.14575101148347
853.5156723322189, 95.29420182424401
863.1599178966312, 86.2110160055309
881.483984469015, 79.3224254181847
929.7052122910773, 94.10343070796529
950.9225525327847, 59.14840555058203
980.8197137824632, 94.63988732007721
986.6062611211105, 95.35516280289309
994.3216575726406, 92.4290358277372
1009.7524504757007, 89.19810395933588
1039.6496117253791, 76.11994200648628
1051.2227064026742, 94.44074812315688
1064.7246501928516, 94.11562290369511
1086.906414991, 91.80723384551656
1094.62181144253, 91.44959610410862
1110.0526043455898, 90.12877490004519
1117.7680007971198, 92.02669336865326
1139.9497655952687, 95.67622395711159
1156.3449830547697, 97.25714533674443
1178.5267478529186, 93.99370094639694
1185.2777197480073, 92.98987683130873
1198.7796635381846, 83.82540970773017
1206.4950599897143, 89.79145748485361
1230.6056739007454, 77.12376612157449
1255.6807123682179, 64.60644517229645
1266.2893824890716, 65.63058961360102
1329.9414032141935, 95.01378132245824
1343.443347004371, 95.3104580852171
1353.0875925687837, 95.30232995473055
1371.411659141167, 83.21986398648264
1378.1626310362558, 76.63201422713857
1418.6684624067884, 81.56172536722761
1423.4905851889944, 83.62627051080985
1440.8502272049368, 72.90526639905806
1456.2810201077996, 97.63510340436873
1477.498360349704, 87.95856406013789
1561.4032967600924, 96.04198982900608
1572.0119668809461, 77.85936193060674
1647.2370822833632, 50.126180710517986
1702.2092820002915, 97.89520357993815
2832.514862149653, 79.33055354867123
2870.1274198507117, 90.05968579090955
2883.629363640891, 90.32791409696551
2934.7438651324246, 77.43263508006316
2954.0323562612493, 86.85313831396788
3042.7594154537173, 97.74076910069381
##END=


$$ === CHEMSPECTRA PEAK TABLE AUTO ===
##TITLE=AH317
##JCAMP-DX=5.00
##DATA TYPE=INFRAREDPEAKTABLE
##DATA CLASS=PEAKTABLE
##$CSCATEGORY=AUTO_PEAK
##$CSTHRESHOLD=0.93
##MAXX=4000.433
##MAXY=130.05008778470696
##MINX=249.7859
##MINY=50.126180710517986
##NPOINTS=100
##PEAKTABLE= (XY..XY)
397.34285713551026, 97.52537364280039
394.4495834661866, 97.41564388123204
3005.1468577526357, 97.3953235550157
374.1966677809205, 97.27340159771752
365.51684677294907, 97.26527346723098
1156.3449830547697, 97.25714533674443
3854.804891977372, 97.22869688004153
356.8370257649781, 97.1027108575001
297.04270326562073, 96.30615406981876
376.1255168938028, 96.23706496068314
353.9437520956544, 96.05824608997916
1561.4032967600924, 96.04198982900608
1139.9497655952687, 95.67622395711159
986.6062611211105, 95.35516280289309
1343.443347004371, 95.3104580852171
1353.0875925687837, 95.30232995473055
853.5156723322189, 95.29420182424401
1057.0092537413216, 95.19666425840549
1058.9381028542039, 95.18447206267567
1329.9414032141935, 95.01378132245824
2986.822791180252, 94.99346099624188
2983.9295175109282, 94.98533286575534
2980.071819285163, 94.86747497370044
980.8197137824632, 94.63988732007721
2976.214121059398, 94.59518260240121
335.6196855232706, 94.57892634142813
1051.2227064026742, 94.44074812315688
291.2561559269734, 94.36759494877798
300.90040149138576, 94.33914649207507
2972.3564228336336, 94.2050323390471
1064.7246501928516, 94.11562290369511
929.7052122910773, 94.10343070796529
380.9476396760092, 94.07091818601911
1178.5267478529186, 93.99370094639694
325.97543995885826, 93.86365085861225
342.3706574183593, 93.7092163793679
264.2522683466186, 93.53852563915048
329.8331381846233, 93.07115813617418
1185.2777197480073, 92.98987683130873
994.3216575726406, 92.4290358277372
313.4379207251218, 92.30304980519576
345.263931087683, 92.23802476130341
1117.7680007971198, 92.02669336865326
347.1927802005657, 92.00230897719362
1086.906414991, 91.80723384551656
276.78978758035464, 91.63654310529913
321.15331717665185, 91.5105570827577
1094.62181144253, 91.44959610410862
2893.273609205451, 91.21388031999884
311.5090716122395, 91.20168812426901
581.5479474157878, 91.18543186329593
306.6869488300331, 91.17323966756611
350.0860538698894, 90.89281916578034
2857.589900617125, 90.43357979329059
288.36288225764974, 90.37261881464151
2863.3764479557726, 90.2588249878299
2874.9495426330677, 90.23444059637026
2880.736089971715, 90.12877490004519
1110.0526043455898, 90.12877490004519
2871.0918444073027, 90.05562172566628
2868.198570737979, 90.01904513847684
490.8920391103111, 90.0109170079903
1206.4950599897143, 89.79145748485361
253.6435982257649, 89.66953552755544
1009.7524504757007, 89.19810395933588
544.8998142710207, 88.16583138754477
1477.498360349704, 87.95856406013789
279.6830612496783, 87.84883429856954
316.3311943944459, 87.60499038397322
831.3339075340705, 87.14575101148347
273.896513911031, 87.13762288099693
2954.0323562612493, 86.85313831396788
257.5012964515299, 86.83281798775153
386.7341870146565, 86.5889740731552
863.1599178966312, 86.2110160055309
282.57633491900197, 86.06064559152982
739.7135746721519, 85.55670150136409
564.1883053998454, 84.95115578011654
595.0498912059652, 83.97578012173123
1198.7796635381846, 83.82540970773017
1423.4905851889944, 83.62627051080985
1371.411659141167, 83.21986398648264
1418.6684624067884, 81.56172536722761
2832.514862149653, 79.33055354867123
881.483984469015, 79.3224254181847
268.10996657238366, 78.8266094585055
1572.0119668809461, 77.85936193060674
2934.7438651324246, 77.43263508006316
1230.6056739007454, 77.12376612157449
637.4845716893801, 77.12376612157449
1378.1626310362558, 76.63201422713857
1039.6496117253791, 76.11994200648628
1440.8502272049368, 72.90526639905806
786.9703779377728, 67.9471068022661
719.4606589868858, 66.32148070495727
1266.2893824890716, 65.63058961360102
1255.6807123682179, 64.60644517229645
810.116567292363, 64.12688547359033
950.9225525327847, 59.14840555058203
1647.2370822833632, 50.126180710517986
##END=

##END=

