##TITLE=X8195
##JCAMP-DX=4.24
##DATA TYPE=INFRARED SPECTRUM
##DATE=31/10/2018
##SAMPLING PROCEDURE=Diamant-ATR
##ORIGIN=ComPlat
##XUNITS=1/CM
##YUNITS=TRANSMITTANCE
##RESOLUTION=4
##FIRSTX=3997.453
##LASTX=373.96442
##DELTAX=-1.4165319
##MAXY=0.9156633
##MINY=0.38388863
##XFACTOR=1
##YFACTOR=8.527779e-010
##NPOINTS=2559
##FIRSTY=0.8844834
##XYDATA=(X++(Y..Y))
3997+1037179073+1037921075+1038779312+1039056235+1038726612+1038179057
3989+1037750183+1037713418+1038235462+1039059800+1039623151+1039677529
3980+1039484829+1039357411+1039309953+1039165480+1038825093+1038425436
3972+1038158857+1037979577+1037683573+1037264205+1037009509+1037251275
3963+1038060725+1039138711+1040093892+1040779419+1041099187+1040737272
3955+1039644958+1038578435+1038496798+1039437021+1040429107+1040702884
3946+1040637463+1041066127+1042095396+1042962929+1042870877+1041848668
3938+1040669894+1040156308+1040618661+1041794080+1043033872+1043545990
3929+1043101460+1042424041+1042261885+1042418799+1042187237+1041531695
3921+1041011399+1040797102+1040535277+1039929709+1039115925+1038514551
3912+1038509798+1039263123+1040649904+1042378819+1044212156+1045954561
3904+1047225806+1047554590+1046865359+1045537989+1044105357+1043194979
3895+1043341059+1044507042+1045746624+1045770528+1044690306+1043861285
3887+1043703113+1043480639+1042941751+1042820693+1043079653+1042753734
3878+1042001737+1042140897+1043455337+1044860290+1045363252+1045134137
3870+1044905232+1045269314+1046455496+1047962705+1048459726+1046838799
3861+1043940196+1041800300+1041646183+1043492591+1046532311+1048972963
3853+1048346008+1045408124+1043278014+1042735911+1043291993+1044319654
3844+1045157203+1045569721+1046114690+1047213924+1048113398+1047856465
3836+1046951819+1046314309+1045708252+1044618664+1043479450+1043174780
3827+1043830042+1044917464+1046274819+1048133528+1049851190+1049834415
3819+1048156034+1046426700+1044991552+1043324494+1041594531+1040414499
3810+1040122409+1040765789+1042123004+1043801246+1045461804+1046620518
3802+1046406011+1044825972+1043707936+1044005967+1044650676+1044377947
3793+1043247959+1042167387+1041700561+1041915277+1042703340+1043690253
3785+1044176370+1043940965+1043629235+1043546619+1042981241+1041516878
3776+1040094940+1039833604+1040989243+1043051485+1044895237+1045324321
3768+1044360892+1043170586+1042653086+1043135638+1044617825+1046542445
3759+1047681799+1047225386+1046139922+1045999713+1047261941+1049119183
3751+1050077998+1049818130+1049946526+1051056594+1051550260+1049379680
3742+1045582931+1042802241+1041634790+1041849436+1043407179+1045293847
3734+1045160627+1042750519+1040661646+1040503754+1041696367+1042932734
3725+1043494967+1043581217+1043527748+1043199382+1042512737+1041913250
3717+1042002576+1043077975+1045064942+1047368461+1048621603+1047785662
3708+1045637589+1043530404+1042173538+1041663027+1041474661+1040723503
3700+1039247747+1037940366+1037614517+1038523009+1040748316+1044290299
3691+1048496631+1051402013+1050795607+1047404876+1043993456+1041922966
3683+1041248971+1041746901+1043276896+1045819804+1049054950+1051644827
3674+1052174979+1051545856+1050844673+1049209696+1046217924+1043599110
3666+1042359318+1041750186+1040996791+1040156308+1039801872+1040312312
3657+1041531625+1042883109+1044014984+1045371080+1047691025+1050883045
3649+1052598680+1050343738+1046278523+1043579120+1042749610+1042844108
3640+1043095379+1043401588+1043703952+1043517124+1042509033+1041271547
3632+1040930461+1041783945+1042430471+1041178028+1039031213+1037941834
3623+1038584865+1040955973+1044379484+1047191138+1048213278+1048278140
3615+1048281705+1047825572+1046644422+1045505977+1045100238+1045146439
3606+1044935217+1044316020+1043784820+1043694796+1043684591+1043184285
3598+1042371690+1041747320+1041124978+1040106473+1039177432+1039236214
3589+1040399611+1041681130+1041932401+1041525754+1041514431+1041768988
3581+1041559723+1040918299+1040537513+1040558761+1040571272+1040687647
3572+1041518206+1043286471+1045718527+1048160647+1049195368+1047716606
3564+1044895726+1042720254+1041873410+1041784924+1041776606+1041850625
3555+1042201985+1042475623+1042119929+1041350109+1041021394+1041462779
3547+1042004812+1041645693+1040249337+1038948318+1039036036+1040644802
3538+1042484919+1042946993+1041688050+1039913004+1039028347+1039482872
3530+1040714696+1041717266+1041879212+1041469838+1041177818+1041350179
3521+1041717475+1041679662+1040922912+1039862960+1039288565+1039474764
3513+1039943967+1040095359+1039746026+1039172610+1038911413+1039356223
3504+1040341179+1041167614+1041219825+1040557014+1039727853+1039209654
3496+1039099710+1039116974+1038916655+1038459824+1038031229+1037931630
3488+1038237838+1038853960+1039664179+1040503195+1041045298+1040939757
3479+1040141350+1039032121+1038236370+1038223789+1038917145+1039777688
3471+1040305672+1040219283+1039373417+1038024240+1036961491+1036743140
3462+1036960862+1036822471+1036262335+1035927609+1036261216+1037023488
3454+1037668616+1038027106+1038499035+1039388095+1040219562+1040223127
3445+1039439048+1038626942+1038259366+1038273065+1038428721+1038449969
3437+1038138029+1037604313+1037124835+1036810239+1036689881+1036890688
3428+1037449706+1038122023+1038526084+1038413204+1037831820+1037075210
3420+1036441964+1036147009+1036351450+1036930598+1037295798+1036860563
3411+1035704086+1034575496+1034302837+1035169671+1036696381+1038049402
3403+1038693761+1038608629+1038056741+1037350735+1036741952+1036368645
3394+1036234307+1036137852+1035772653+1035165128+1034811111+1035020306
3386+1035399275+1035385855+1035148493+1035456729+1036572527+1037727817
3377+1038033885+1037577194+1037129728+1037103517+1037268469+1037220661
3369+1036815062+1036337681+1036176784+1036215855+1036078582+1036068796
3360+1036927802+1038468770+1039476092+1039253548+1038406704+1037825110
3352+1037688047+1037723833+1037766678+1037748016+1037579011+1037274829
3343+1036953453+1036708542+1036643680+1036778856+1036789271+1036274566
3335+1035418287+1034928325+1035287514+1036380037+1037685181+1038615130
3326+1038924134+1038917634+1039042745+1039287377+1039177223+1038389510
3318+1037239043+1036435324+1036420926+1037105195+1038056811+1038667341
3309+1038431516+1037509186+1036733774+1036713365+1037223876+1037642825
3301+1037659180+1037402597+1037069758+1036644239+1036093259+1035677526
3292+1035731205+1036163923+1036547645+1036707634+1036869091+1037148879
3284+1037275598+1037086882+1037025864+1037643314+1038677336+1039229015
3275+1038933360+1038375391+1038225537+1038499734+1038788259+1038703197
3267+1038022702+1036897258+1036031333+1036169235+1037200391+1038167734
3258+1038304658+1037707617+1036923329+1036312100+1035939421+1035792083
3250+1035976396+1036677230+1037796453+1038757156+1039041068+1038924204
3241+1039143743+1039713804+1039729391+1038730526+1037582366+1037344305
3233+1037912618+1038442420+1038483867+1038127125+1037645830+1037428597
3224+1037704402+1038113845+1038082532+1037649744+1037421748+1037669664
3216+1037925199+1037589006+1036683590+1035799143+1035363419+1035246975
3207+1035179456+1035238378+1035611685+1036077603+1036162455+1035828498
3199+1035621960+1036012461+1036852036+1037605082+1037920307+1037872359
3190+1037722714+1037514009+1037054940+1036400866+1036045521+1036340757
3182+1036992525+1037438383+1037498143+1037385053+1037253791+1037065075
3173+1036830019+1036691558+1036784588+1037206961+1037985448+1038883805
3165+1039503561+1039734703+1039766784+1039643979+1039262844+1038676218
3156+1037964200+1037147201+1036539956+1036611808+1037269098+1037892489
3148+1038095323+1037900876+1037422447+1036836729+1036309863+1035777965
3139+1035269690+1035268153+1036098921+1037199972+1037615356+1037047602
3131+1036046780+1035336090+1035170859+1035173725+1034716194+1033547136
3122+1032000366+1030574585+1029401542+1028151685+1026462610+1024412390
3114+1022431644+1020834131+1019743844+1019420511+1020237720+1022170098
3105+1024537571+1026479735+1027638169+1028205504+1028374580+1028129249
3097+1027592668+1027033440+1026332397+1024981891+1022903922+1020901230
3088+1020082693+1020950296+1022984791+1024990279+1025939658+1025656934
3080+1024729641+1023774880+1022879599+1021798957+1020490808+1019160223
3071+1017843896+1016284546+1014197211+1011446156+1008137691+1004595918
3063+1000822583+996066040+989614690+981897618+974176212+967530695+962769958
3053+960639429+961276239+963844449+967225186+970850134+974722719+978904308
3043+983163621+987122106+990597410+993547804+995851393+997592191+999268545
3033+1001091817+1002431489+1002539127+1001463308+999836159+998195521+996757229
3023+995562519+994779908+994810592+995862926+997635385+999799605+1002479507
3013+1005861361+1009681805+1013435848+1016763395+1019421280+1021209396
3004+1022122430+1022396277+1022344485+1022246423+1022337985+1022784752
2996+1023648720+1024876350+1026300035+1027675563+1028763823+1029430059
2987+1029715369+1029711315+1029280764+1028126593+1026239157+1023924734
2979+1021230084+1017799024+1013409568+1008058431+1001372305+992601430+981509633
2969+968913422+956117592+943905802+932041948+919569520+905430664+888961379
2959+870477030+851912931+836578666+827602371+826188261+831131912+839723787
2949+849109944+857297897+863550536+868233690+872254591+876275633+880136056
2939+882927300+883650990+881913268+878115051+873085499+867744637+863225386
2929+860924453+861810228+865552250+870645546+875610095+879949367+883836421
2919+887157746+889309734+889988900+889843100+890180062+892123834+895956229
2910+901023314+906297637+911165453+915632702+919828550+923598530+926676062
2900+929057025+931134784+933559012+936883273+941136155+945737602+949958821
2890+953435104+956164701+958180953+959379437+959560884+958528260+956209014
2880+952699742+948111505+942369027+935200978+926408645+916429781+906852461
2870+900064289+897823815+899940716+904412997+908819787+911597402+912349818
2860+911466350+909742607+908304524+908442426+910978345+915627879+921211416
2850+926642443+931653403+936604603+941854113+947401235+952907678+957918848
2840+962193747+965875799+969251433+972421646+975349045+978066620+980594432
2830+982767318+984390552+985511802+986391986+987246169+988116428+988939997
2820+989645584+990228086+990829460+991697063+992938882+994363196+995694550
2810+996897088+998148273+999538618+1000913796+1002016664+1002699815+1002978345
2800+1002973662+1002920542+1003137984+1003802124+1004761009+1005666425
2792+1006222717+1006331543+1006181758+1006173930+1006595046+1007391076
2783+1008298239+1009100351+1009752258+1010335250+1010902795+1011420645
2775+1011886493+1012329345+1012665469+1012799317+1012844749+1013041922
2766+1013554599+1014426745+1015476004+1016269519+1016545533+1016567200
2758+1016735157+1017043672+1017195763+1017050732+1016752072+1016559162
2749+1016629616+1016887038+1017108744+1017177800+1017152149+1017040527
2741+1016695247+1016102051+1015643192+1015763411+1016378205+1016896823
2732+1016865720+1016315579+1015490263+1014633424+1014056863+1013995984
2724+1014310930+1014670608+1015048109+1015705678+1016687908+1017662939
2715+1018277174+1018450512+1018343084+1018220279+1018323863+1018717440
2707+1019197617+1019426103+1019246823+1018879596+1018690251+1018747844
2698+1018755952+1018476933+1018058403+1017832713+1017944335+1018317852
2690+1018838358+1019330277+1019462657+1019014702+1018265292+1017814191
2681+1017927281+1018313449+1018603722+1018753506+1018882601+1019023649
2673+1019180143+1019390876+1019635647+1019867627+1020129872+1020460614
2664+1020775140+1020999921+1021144463+1021144953+1020910736+1020592994
2656+1020540364+1020937365+1021651759+1022344415+1022629096+1022333512
2647+1021749612+1021445710+1021725009+1022382019+1023006318+1023365437
2639+1023433375+1023238229+1022858701+1022538723+1022669565+1023511587
2630+1024831198+1025959718+1026477638+1026705425+1027118153+1027511800
2622+1027342584+1026702699+1026235662+1026187715+1026224200+1026119847
2614+1025999348+1025947347+1025942804+1026127815+1026643078+1027264302
2605+1027643271+1027785647+1027889441+1027867983+1027467067+1026826342
2597+1026563958+1027113470+1028147492+1028925350+1029099178+1028881805
2588+1028597613+1028426581+1028387161+1028301260+1028018676+1027708553
2580+1027607415+1027665638+1027772157+1027990159+1028362278+1028897951
2571+1029704606+1030656851+1031295618+1031606160+1032307484+1033723969
2563+1035005698+1035133186+1034174091+1032935487+1031914815+1031163378
2554+1030692707+1030485888+1030430602+1030480017+1030598139+1030593316
2546+1030387826+1030331701+1030851368+1031894825+1032933530+1033418110
2537+1033214297+1032683657+1032301473+1032247514+1032488301+1033015727
2529+1033736061+1034364554+1034713678+1034870242+1034859828+1034429836
2520+1033517500+1032674431+1032537228+1032985183+1033332419+1033306069
2512+1033342484+1033904647+1034908824+1035839053+1036198731+1035873860
2503+1035121374+1034215049+1033267837+1032435740+1031986597+1032042443
2495+1032483548+1033095127+1033576422+1033568943+1033042077+1032535480
2486+1032687152+1033596551+1034830402+1035810535+1036028537+1035297578
2478+1034116009+1033359818+1033312499+1033439009+1033377781+1033579707
2469+1034558232+1035956476+1036864967+1036945416+1036837428+1037275947
2461+1038090989+1038480163+1038138728+1037529106+1037031805+1036580705
2452+1036230672+1036286099+1036688413+1036967852+1036912146+1036713225
2444+1036495294+1036215226+1035899581+1035559334+1035011150+1034097487
2435+1033007968+1032218857+1032164759+1032951144+1034246222+1035424717
2427+1036013160+1036099969+1036150503+1036350122+1036478170+1036539327
2418+1036937308+1037732989+1038321013+1038200445+1037593829+1037082199
2410+1036995390+1037251205+1037547698+1037714117+1037833707+1037913667
2401+1037696923+1037096039+1036484670+1036238431+1036318250+1036560156
2393+1037014611+1037763183+1038639453+1039200777+1038816706+1036989100
2384+1033849570+1030098602+1026199387+1021889261+1016724254+1010837164
2376+1004843205+999070883+993135496+986484177+979354430+972615743+966506528
2366+960627407+955579123+952943115+952993090+954255038+955920139+958837963
2356+963738140+970284965+977805424+985286742+991024466+993303592+991240022
2346+985462527+978560147+973604194+971632814+971730947+972761264+974251139
2336+976206723+978438320+980419066+981946335+983339685+984714234+985793059
2326+986659264+987944068+990151552+993282135+997105793+1001283399+1005195404
2316+1008180257+1010074613+1011319717+1012550562+1014177501+1016295310
2308+1018795932+1021418381+1023751885+1025439702+1026533553+1027584909
2299+1029228902+1031565132+1033908072+1035248373+1035166386+1034314300
2291+1033791208+1034057297+1034763583+1035559544+1036480616+1037465432
2282+1038205687+1038640292+1038950974+1039095236+1038987109+1038896106
2274+1039029465+1039167438+1039231391+1039607494+1040498093+1041550707
2265+1042399368+1043014791+1043375237+1043312332+1042863888+1042368335
2257+1041965112+1041386734+1040554218+1039914961+1039854782+1040358513
2248+1041454881+1043127321+1044611255+1044858892+1044057200+1043654816
2240+1044439105+1045420985+1045261765+1044205796+1043657472+1044175392
2231+1044995396+1045426926+1045648213+1046129368+1047027514+1048129334
2223+1049093532+1049801495+1050286214+1050228831+1049080531+1046911839
2214+1044770196+1044075442+1045464390+1048098581+1050570127+1052357264
2206+1053452793+1053204248+1051158500+1048464479+1046891429+1046992218
2197+1047978571+1048631248+1048129684+1046648406+1045016784+1043712409
2189+1042751847+1042352818+1042976978+1044831423+1047397607+1049372272
2180+1049891659+1049862443+1050681539+1051736040+1050946440+1047999190
2172+1045125820+1044150859+1044433443+1044528570+1044627820+1046079812
2163+1049491372+1054219398+1058214019+1058373589+1054156493+1049630532
2155+1048648442+1050952660+1053992869+1055997239+1056795087+1056910903
2146+1056418145+1054740114+1051860383+1048904816+1046755135+1045274975
2138+1044663886+1046003417+1049441537+1053240453+1055537612+1055979207
2129+1055287529+1054196613+1052990230+1051658177+1050467451+1050061363
2121+1050508619+1050868367+1050554890+1050417756+1051384330+1052779707
2112+1053140574+1052209297+1051144591+1051049325+1051891765+1052721904
2104+1052772928+1052267030+1051889389+1051705146+1051243911+1050500022
2095+1050040814+1050099596+1050285166+1050290967+1050330248+1050728159
2087+1051478967+1052310644+1052858409+1052827865+1052450084+1052583233
2078+1053657445+1054779185+1054805465+1054057662+1053821767+1054447744
2070+1055170875+1055584441+1056105017+1056986389+1057710428+1057508083
2061+1056082581+1053825262+1051770638+1051273617+1052918798+1055236226
2053+1055318562+1051809220+1046936162+1044702538+1046973626+1052116756
2044+1057453915+1061745448+1064792717+1065725881+1063266497+1058110575
2036+1053589158+1052567927+1054494224+1056876654+1058568455+1059903863
2027+1061087110+1062344656+1064375376+1066965184+1068161990+1066258199
2019+1061899846+1057596709+1055980604+1058313549+1063137331+1066683438
2010+1066476061+1064078743+1062394351+1061588675+1060044351+1057809679
2002+1056619023+1057469082+1059541319+1061085712+1061032313+1059842915
1993+1058808264+1058752418+1059496517+1060198260+1059995775+1058784570
1985+1057417010+1056596447+1056039596+1055664471+1056913279+1061082218
1976+1066316491+1068860797+1067484641+1064122217+1060805994+1058276505
1968+1057002185+1057365987+1058720756+1059719481+1059615687+1058724670
1959+1057899144+1057548971+1056911881+1054760802+1051282493+1048608113
1951+1048766634+1051520555+1054755700+1056745672+1057356062+1057058870
1942+1055941673+1054287126+1052857920+1051824177+1050402659+1048001357
1934+1045049145+1042414325+1040709314+1040337824+1041442440+1043607008
1925+1046118953+1048484749+1050502469+1052071325+1053092905+1053542468
1917+1053665343+1053822606+1054134406+1054679864+1055710811+1057084871
1908+1057913123+1057575951+1056504395+1055309825+1054011182+1052656064
1900+1051850458+1052065314+1052966186+1053853569+1054476750+1055071834
1891+1055629314+1055650142+1055169057+1055415716+1057286377+1059841727
1883+1061297284+1061262057+1060896997+1061028539+1061338312+1061330204
1874+1061182517+1061443084+1062128611+1062069900+1059658533+1055283964
1866+1051366507+1049386880+1048987152+1049067740+1048853373+1048359428
1857+1048202584+1048960172+1050608569+1052592180+1054388893+1055911618
1849+1057478867+1059507840+1061959256+1063883737+1064285771+1063662100
1840+1063179268+1063212258+1063289073+1062820219+1062001892+1061746637
1832+1062571464+1063907850+1064912586+1065632502+1066225768+1066045090
1823+1064626787+1062595927+1060831366+1059619042+1058740816+1058031385
1815+1057779694+1058322007+1059282290+1059712002+1059314511+1058851040
1806+1059061632+1060001716+1061332930+1062646950+1063587593+1064094609
1798+1064439819+1064889731+1065483975+1065879020+1065311405+1063579205
1789+1061701135+1060534803+1059897363+1059173673+1058328297+1057854761
1781+1057853712+1058091634+1058792328+1060506775+1063376651+1066711396
1772+1069023652+1069444069+1068797123+1068027443+1067344921+1066897036
1764+1066921919+1067276005+1067557541+1067773446+1067988721+1067827824
1755+1067303264+1067265102+1068321979+1069907121+1070710421+1070338231
1747+1069455951+1068473511+1067409714+1066292447+1065091726+1063752474
1738+1062686021+1062495069+1062873199+1062130219+1059401320+1056245925
1730+1053625363+1051463241+1049815963+1048713514+1047900359+1047343508
1721+1047497696+1048762510+1050684544+1051384679+1049480399+1046261119
1713+1043454917+1041760181+1041232616+1041702168+1042881362+1044333354
1704+1045784997+1047331556+1048774672+1049196207+1048198041+1046327659
1696+1043930970+1041931912+1041523867+1042794692+1044912921+1046914984
1687+1048561353+1049983151+1050337657+1048854562+1047081403+1046441308
1679+1047247473+1049538481+1052866377+1056024778+1058397004+1060604837
1670+1062783245+1063851865+1063662450+1063615760+1064600856+1066148255
1662+1066923177+1066549520+1066113028+1066755639+1069051051+1072506295
1653+1073741823+1070747605+1067812447+1066493814+1064681305+1060113757
1645+1054147616+1049164894+1045508353+1043090487+1041903815+1040729304
1636+1036123594+1026320375+1015456574+1006433449+998662278+991455437+985167431
1626+980059458+974546444+965574832+952179166+935888881+914090476+877894044
1616+824762130+771297517+729524957+694446002+659912645+626108639+597939193
1606+580825758+578040175+590162850+614562665+645595068+677404210+706856713
1596+733655454+758597373+781945204+803255395+822187559+838738411+853261619
1587+866773170+880524181+894953939+909233144+921530625+928841190+924735297
1577+900065408+860244238+828967204+817426193+824224500+845007336+869457616
1567+889277722+905243486+919557359+932499268+945572720+961806949+977262692
1557+983712154+985152055+986182093+987692027+989486154+991032015+992204009
1547+993901681+996989139+1001060435+1004495130+1004250288+996916938+986147914
1537+977220895+968356711+955199036+937251758+920140490+906993579+894704555
1527+878646111+857227933+830258159+792884491+743134501+695723817+665906953
1517+654851920+660182369+679690185+709300161+743685691+778105959+811095272
1507+841478004+861211510+870035785+877118423+886692597+899060881+913327435
1497+927853998+940194114+949017690+955112436+959057852+958362120+946125867
1487+916680214+873031680+826424016+793506344+789241930+814033296+852025182
1477+886557980+909222590+914701984+895938546+853442995+802871464+756673592
1468+716459124+682907717+661275661+655742728+662579197+675267459+688450156
1458+695811535+694529177+691962434+693110874+697363616+704198128+714544219
1448+729430040+748191102+769127637+791115597+812762261+831929690+847341469
1438+858827752+866476328+871866256+877722453+885293725+894104509+902615446
1428+909768538+916358558+923804020+932364092+941513097+951534737+962696150
1418+972871139+979817273+984481135+988473800+992186256+995203050+997000462
1408+997268648+995317468+989527532+978623961+962409651+939946268+910438199
1398+876850866+843103684+807091425+763949419+715169288+667797115+628888001
1388+604365799+595919166+597390589+601378081+606244149+613925086+625763569
1378+640613604+655238647+666350784+673344167+679080774+686042005+693191393
1368+697930672+699408106+698912762+697497604+695114126+692369990+691425923
1358+694470256+702611938+715517433+731034193+745868642+757332559+764554847
1349+768558205+771174503+773257853+774198636+773503953+772277650+772855330
1339+776971638+784255433+793055034+802103531+810820796+818855470+825901903
1329+831911518+837178362+842017660+846507835+850628686+854468770+858213937
1319+862034730+866010480+870041726+873735660+876487693+877921303+878186553
1309+877594336+876235723+874392530+873120167+873738176+876427793+879731855
1299+882017062+883389164+885744056+890896693+898901452+907979164+915468100
1289+918696116+915428470+904290681+885792214+863612323+844263726+833766942
1279+833572006+839895658+846783639+849249664+844589645+833162074+818987711
1269+808191987+805263120+810565331+821076513+832568388+841197237+844777243
1259+844271764+843708553+847178824+855425628+865322227+872428559+874220379
1249+871592339+867962918+866903175+870053398+876720233+885052099+893408778
1239+900776656+906278626+908456055+904865146+892646087+870843627+843535424
1230+820091627+810197196+817311147+836966931+861079060+883294946+900989905
1220+914138284+923439869+929138732+930672291+926593866+914726867+893701986
1210+865967774+839097041+822229636+819726497+828120710+839344119+846261456
1200+845088973+834363703+813572410+783122300+745241477+704862407+669291254
1190+645890862+638840445+647253669+665908141+687721225+706068999+716419005
1180+718122758+715547488+716094833+725406133+743796404+767059662+790285877
1170+810674856+827571687+841321230+852419877+860889296+865883621+865610402
1160+857365835+838999608+812904636+788456942+777385135+785094379+807248129
1150+834482244+859155628+878238066+892054778+901712266+907384779+907638986
1140+899193332+877929411+842235452+796527892+750691934+714832465+694200672
1130+688940398+697371305+717749590+746836404+778940571+807989502+829852560
1120+841882484+841347370+825904978+796129073+757599207+720248535+694469836
1111+686185219+694499891+713588340+736730401+759185047+778718446+794729781
1101+807160271+815675192+819169157+816035918+805971782+792400121+782240719
1091+781536180+790903466+805867220+821248874+834428705+845178158+854147045
1081+862011036+869243179+876112848+882764586+889095157+894652484+899058645
1071+902525281+905633219+908655674+911371712+913436401+914447987+913163532
1061+906988337+893766499+875223159+857784784+848537786+850227980+860386334
1051+874316415+887994735+898960303+906102352+909252505+908639808+904445568
1041+896893866+886545189+874029637+859577512+843622093+828269585+817532293
1031+815225769+822224883+835583365+849965315+859907136+862001320+856911310
1021+849661064+846295285+848704206+852600135+850979697+840258761+824290620
1011+812725915+813984439+828672947+849933653+869809396+884524674+894603348
1001+902169727+908901424+915276728+920544481+923233609+921918401+915955336
992+906261292+895673365+887911840+885391647+887863123+893267730+899471792
982+904455773+905330854+899324244+886999365+873258559+863987028+862390634
972+868465461+879845294+892317092+901360137+904605347+902714556+898200827
962+893919987+891912053+892483302+894385696+896572980+899841605+906102002
952+915708328+925919103+932520307+933285304+930160522+927992739+930495248
942+937016772+942995144+943105927+934428432+918194692+899057876+881922424
932+869423717+862418382+861354445+866141462+875797833+889078592+904724028
922+920919256+935463572+946877794+955045617+960837510+965412537+969719098
912+974179707+978609842+982600829+986045379+989037850+991182358+990819395
902+983796307+962554962+919453844+855586945+786670574+735967221+718531502
892+732575651+765038098+802474741+836492066+863318136+882532326+896275718
882+907375623+916766534+922745255+923230464+918512782+911204734+904127337
873+899287759+898117303+901127947+907614803+916728091+928393375+942449336
863+957465721+971190661+981935221+989072937+992231408+990039441+980002074
853+961290218+938998496+923826875+924505134+940238497+961271906+975230154
843+972239221+947279688+901602602+843223064+785225641+741216731+718984419
833+715914994+720270202+718855673+705929560+685510945+664573572+645669156
823+628876608+618426374+621701709+641409914+672543523+707201503+739718608
813+767610293+790529110+809339029+825103356+838190577+848484107+856456785
803+863561579+871372451+880633706+891100925+901914052+912110709+920886336
793+926980524+927173084+915292175+884080912+830405217+760354386+689820442
783+639294132+624804054+649108744+698367094+747146806+770406010+757581524
773+719691474+681177265+661993689+667318406+690934843+720778756+741493025
764+742022896+726044831+709471892+703626949+704645035+701327344+687563333
754+663213911+628484778+584352924+536705995+494604161+464789604+450162498
744+450909742+463982705+483173724+502131435+517265627+527816649+534549045
734+539184810+544096240+550584179+556832764+559476775+558638563+559769599
724+568828055+586716412+609283170+631461523+650661035+666982562+681412880
714+694483955+706374369+717456661+728131537+738361044+747892093+756713571
704+764771241+771567520+776663891+780369987+783526571+786781077+790188723
694+793335382+795948954+798471873+801689055+805749517+810041680+814073695
684+817854997+821244330+823591534+824519875+824650229+824970696+825821244
674+826852191+827279946+826140803+823951422+825370983+834917898+846916719
664+854198976+856074810+854542089+851356499+847374948+843491180+841308229
654+842037371+845215762+849403013+854086516+859938449+867123902+874555594
645+881040284+886293568+890780947+894923745+897994288+896988084+886880754
635+864391090+834058403+809174427+802583847+815419447+836799812+854476319
625+863784893+867014796+867725486+867629730+867059809+866180813+865711750
615+867065750+871465550+878447470+885425406+889050704+886947433+878323827
605+863669008+844354310+823020215+804630084+795062270+796084620+803224362
595+810827366+817589817+825616243+835884681+846877857+856752159+864635092
585+870215554+873537438+875182270+875916374+875838092+873979732+869073824
575+861177262+852581194+846236224+842161224+835078796+817433113+786987197
565+750669848+720544259+706785140+712622815+733501965+760570220+785899007
555+806137433+822390464+836739913+849121966+857887249+862720467+865492909
545+868193291+871522654+875477086+879840052+883978866+887326332+890293851
535+893950601+898716370+903932960+908807765+913312268+917772668+921831103
526+924540780+925736888+926207419+926053161+924087443+919645286+914930051
516+914080970+919020358+927604823+936189149+942840956+947540955+950484919
506+951235168+947511948+933640858+904618418+864582461+825721644+798594747
496+786691263+786260781+789145335+787134185+776444772+759544795+740840767
486+720538667+695399086+666840047+643955828+635713986+644114349+665073878
476+692967380+723898435+754898127+782150345+803347446+819542325+832121132
466+841323466+848019657+853775694+859193581+864273806+869785142+876302263
456+882474313+886740475+889347477+890977840+891244419+889569392+886974552
446+885867211+887404964+889431211+887998579+881441759+872129969+864285688
436+860608948+857862856+844650523+807958329+747055873+681537642+638539129
426+631785905+655622579+692704646+728584594+760905645+793003941+821501124
416+839466504+847203147+847697652+843527945+837646027+831684989+825342605
407+819102408+815352418+816195068+821425148+828178932+831235566+826917962
397+820466263+819526319+823493611+829225605+835998260+842415641+845223870
387+844688826+848053905+861406936+879020117+891188153+896480579+898867692
377+899204864+892205121+876042184
##END=
