##TITLE=NR-iStigOMe
##JCAMP-DX=4.24
##DATA TYPE=INFRARED SPECTRUM
##DATE=10/9/2020
##SAMPLING PROCEDURE=Diamant-ATR
##ORIGIN=Angelika Moesle
##XUNITS=1/CM
##YUNITS=TRANSMITTANCE
##RESOLUTION=4
##FIRSTX=3997.453
##LASTX=373.96442
##DELTAX=-1.4165319
##MAXY=0.88825077
##MINY=0.51501137
##XFACTOR=1
##YFACTOR=8.2724799e-010
##NPOINTS=2559
##FIRSTY=0.88588083
##XYDATA=(X++(Y..Y))
3997+1070876974+1070227572+1069897936+1069778258+1069582061+1069227206
3989+1068997073+1069224828+1069796703+1070191979+1070088728+1069717446
3980+1069487313+1069503092+1069576441+1069516494+1069288810+1069010474
3972+1068867380+1068978556+1069268924+1069523771+1069646907+1069759452
3963+1069934754+1070014083+1069842312+1069530688+1069323611+1069338238
3955+1069484359+1069507847+1069221730+1068849655+1068938423+1069647700
3946+1070431983+1070738059+1070545464+1070104220+1069611602+1069225981
3938+1069031730+1068905567+1068705191+1068644308+1069173311+1070188520
3929+1070785757+1070368577+1069439038+1068946853+1069093838+1069208833
3921+1068979997+1068954706+1069646691+1070666944+1071070145+1070477880
3912+1069408560+1068607345+1068267693+1068040874+1067836896+1068125895
3904+1069094054+1070009976+1070324698+1070459939+1070616435+1070243279
3895+1069074168+1067721541+1067229068+1067867950+1068388524+1067938129
3887+1067524264+1068351561+1069491852+1069346308+1068735453+1069207752
3878+1069875455+1069164089+1067652660+1066732055+1066512369+1066508406
3870+1067174741+1068444436+1068953914+1068506112+1068530034+1069754481
3861+1070842173+1070369226+1068226912+1064958357+1061646284+1061023325
3853+1065816205+1071809324+1073741823+1072377091+1069822930+1067472242
3844+1066198512+1066188497+1066775358+1067329724+1068041667+1069032810
3836+1069613331+1069526293+1069477586+1069981732+1070599719+1070717956
3827+1070343143+1069387881+1067302704+1064549824+1063454134+1065303269
3819+1067349826+1067904553+1068729977+1070420527+1070989735+1069546827
3810+1067044471+1064967364+1064846966+1066632335+1067931356+1067722045
3802+1067777669+1069087137+1069861766+1069457699+1069221010+1069523555
3793+1069419152+1068706056+1068052403+1067583850+1066854687+1066107150
3785+1066216092+1067036257+1067384123+1067018893+1066963485+1067631188
3776+1068143260+1067846263+1066897486+1065873558+1065564385+1066231944
3768+1067012984+1067260842+1067325833+1067354582+1067055495+1066758570
3759+1067273524+1068374114+1068646973+1067375621+1065214645+1063970889
3751+1065752944+1069163296+1069909536+1067659360+1065998640+1067949369
3742+1070923160+1070930941+1068223093+1065036173+1063665894+1065330361
3734+1068529313+1070359499+1070011921+1068562385+1067154926+1066539965
3725+1066974509+1067910461+1068501717+1068512525+1068220643+1067829547
3717+1067253277+1066275967+1065046909+1064631891+1066327052+1069219785
3708+1070817388+1070351357+1068568509+1066613169+1065785655+1066630678
3700+1067904264+1068175611+1067613536+1067092530+1066899935+1066711448
3691+1066375255+1066392547+1067243694+1068229290+1068385354+1067661666
3683+1066572893+1065681252+1065095832+1064444052+1063993801+1065172567
3674+1067598693+1068313878+1067225681+1066987118+1068499844+1069326493
3666+1068329658+1066961828+1066548539+1066829181+1066650132+1065791059
3657+1065512796+1066743151+1068071136+1067628378+1065716990+1064495857
3649+1066105853+1069230304+1070754270+1070300056+1069037854+1067895114
3640+1067141164+1066556032+1065944313+1065445499+1065238999+1065057933
3632+1064482312+1064012679+1065187122+1067837040+1069230232+1068606120
3623+1067199959+1066225315+1066535065+1068196650+1069694534+1069516205
3615+1068166316+1066951596+1066272581+1065822114+1065885303+1067092530
3606+1068860751+1069735243+1069265105+1068213654+1067486076+1067237570
3598+1067074661+1066973788+1067310558+1067903400+1067826737+1066670018
3589+1065301180+1065204774+1066653230+1068015584+1068274754+1067880199
3581+1067367335+1066801945+1066159676+1065640543+1065474608+1065578579
3572+1065496656+1064807913+1063715393+1063253037+1064396066+1066271716
3564+1067043390+1066490898+1065715909+1065506383+1065583911+1065349815
3555+1064835437+1064455869+1064324158+1064231572+1064048488+1063830964
3547+1063681313+1063589951+1063348794+1062839749+1062321481+1062196183
3538+1062647370+1063535768+1064447439+1064879821+1064628505+1063973266
3530+1063418900+1063322639+1063683402+1064203111+1064576772+1064697818
3521+1064556597+1064128250+1063506371+1062977656+1062798751+1062926859
3513+1063019374+1062739164+1062122113+1061496272+1060975050+1060461321
3504+1060223550+1060802342+1062089402+1063152813+1063273716+1062580651
3496+1061747012+1061371118+1061514645+1061781021+1061849974+1061802996
3488+1061896519+1062137893+1062228101+1061899329+1061221539+1060556357
3479+1060184787+1060051275+1059934047+1059791961+1059841892+1060215192
3471+1060664147+1060814807+1060623582+1060380551+1060378245+1060738792
3462+1061372055+1061927502+1061978875+1061407360+1060546991+1059933758
3454+1059894995+1060299493+1060696282+1060762641+1060587556+1060530347
3445+1060853066+1061494975+1062123050+1062386327+1062220248+1061844354
3437+1061392590+1060743836+1059843117+1058974750+1058510665+1058560669
3428+1059040245+1059825609+1060625527+1061024549+1060966188+1060886642
3420+1061039896+1061037447+1060430771+1059422840+1058658659+1058481412
3411+1058622633+1058601234+1058325348+1058182901+1058482637+1058973309
3403+1059142414+1058851686+1058398120+1058071365+1057951976+1058054794
3394+1058320160+1058473846+1058255674+1057855570+1057750231+1058060702
3386+1058460877+1058710104+1058838212+1058827909+1058576016+1058123099
3377+1057618809+1057209843+1057055652+1057178140+1057326999+1057343859
3369+1057485153+1058010049+1058670331+1059002202+1058973885+1058966464
3360+1059166408+1059316635+1059163093+1058858891+1058708159+1058701314
3352+1058598424+1058376360+1058294221+1058481052+1058685246+1058602675
3343+1058304165+1058088081+1058064088+1058173102+1058426797+1058779274
3335+1058955872+1058727829+1058178146+1057499995+1056834165+1056448472
3326+1056672193+1057370951+1057826750+1057518585+1056764779+1056213584
3318+1055988422+1055786029+1055509782+1055292763+1055094693+1054724347
3309+1054190804+1053789692+1053832923+1054345210+1055075094+1055782786
3301+1056347672+1056606914+1056441916+1056088070+1056003265+1056390255
3292+1057048303+1057587034+1057685312+1057318569+1056773137+1056299830
3284+1055900447+1055571819+1055466047+1055605251+1055721470+1055586878
3275+1055306380+1055122937+1055075455+1054989785+1054769955+1054617278
3267+1054850797+1055436290+1055892809+1055887189+1055676798+1055725361
3258+1056145927+1056714199+1057102558+1057000749+1056336648+1055435785
3250+1054758499+1054561005+1054816501+1055232888+1055411360+1055235265
3241+1054994973+1054992811+1055224097+1055484420+1055607917+1055598262
3233+1055571387+1055496885+1055147867+1054518495+1054084527+1054276041
3224+1054829614+1055054992+1054729246+1054362935+1054448605+1054759436
3216+1054681548+1054051239+1053312277+1052892432+1052760793+1052681104
3207+1052603504+1052630596+1052800277+1053072129+1053365739+1053498675
3199+1053287779+1052832412+1052502055+1052530948+1052787380+1053001230
3190+1053055268+1053024214+1053054476+1053257446+1053623684+1054003037
3182+1054220921+1054208240+1053998642+1053722684+1053603078+1053728448
3173+1053822619+1053513157+1052838969+1052228547+1052015418+1052223575
3165+1052728442+1053347222+1053832707+1054049222+1054163640+1054438662
3156+1054793084+1054842872+1054459412+1053980268+1053758998+1053799995
3148+1053901228+1053885520+1053682118+1053376979+1053160248+1053167453
3139+1053428785+1053885088+1054358324+1054644585+1054693725+1054608920
3131+1054513812+1054516261+1054660725+1054803531+1054672902+1054183598
3122+1053617776+1053376475+1053536646+1053774417+1053777155+1053598466
3114+1053493487+1053540177+1053585497+1053511284+1053441898+1053645372
3105+1054231945+1054980851+1055470947+1055391329+1054803387+1054124300
3097+1053749847+1053691557+1053720954+1053798482+1054081069+1054532905
3088+1054825003+1054701578+1054273159+1053861887+1053625702+1053427416
3080+1053112694+1052810365+1052766341+1052904464+1052801358+1052148209
3071+1050985943+1049411541+1047395317+1045097227+1043055858+1041717353
3063+1040917147+1040138051+1039235099+1038670862+1039030184+1040467976
3054+1042654242+1045106162+1047438620+1049360168+1050621289+1051130479
3046+1051113907+1051001938+1051045241+1051123201+1051009432+1050669204
3037+1050170461+1049495697+1048649161+1047802554+1047152215+1046714428
3029+1046314397+1045674650+1044578599+1043077762+1041441755+1039808919
3020+1038053163+1036025771+1033713775+1031159830+1028462430+1025852212
3012+1023600739+1021839003+1020446459+1019025887+1017048212+1014194891
3003+1010617955+1006842661+1003481880+1001059141+999925263+1000063675
2995+1000858621+1001262831+1000425662+998042335+994046419+988323639+980855261
2985+971752967+961013081+948599577+934806139+920181945+905133654+889909557
2975+874839002+860218050+846006279+831879458+817564581+802991399+788172809
2965+773075091+757691255+742246391+727248537+713267836+700795971+690428016
2955+682975418+679084625+678751313+681345319+685983649+691718750+697557678
2945+702638766+706464280+708803872+709358454+707765102+704029724+698684639
2935+692443591+686075443+680662269+677441197+677166752+679921289+685479215
2925+693456422+703186503+713794246+724425766+734404786+743332571+751046573
2915+757454493+762488603+766185145+768726337+770496288+772076238+773998146
2905+776587396+780178382+785190877+791662418+798860386+805642759+811269278
2895+815843338+819941063+823808872+827070221+829308220+830663729+831610489
2885+832348442+832602857+831795373+829230908+824250261+816331704+805127517
2876+790651245+773612741+755465433+738031582+723097997+712251907+706853936
2866+707924408+715756935+729380403+746443909+763904203+779097967+790484877
2856+797795533+801718029+803388909+804025990+804751695+806417675+809475118
2846+814029652+819927013+826804855+834318264+842397136+851110135+860299684
2836+869532824+878327458+886260713+893002233+898478524+902914677+906515029
2826+909171144+910610810+910750662+909840649+908394283+907036756+906287994
2816+906450831+907772044+910627886+915361540+921905566+929641904+937698367
2806+945410928+952498296+958801741+964049917+968108158+971331752+974316279
2796+977260961+979835513+981721683+983013138+983991673+984807010+985570758
2786+986490427+987631798+988734333+989527839+990093805+990695293+991406732
2776+992158952+993013197+994098152+995315898+996370663+997106600+997629263
2766+998108407+998643967+999267431+999876917+1000253243+1000322484+1000302382
2757+1000433804+1000698306+1000935645+1001065266+1001053881+1000861431
2748+1000596641+1000559967+1000938455+1001574023+1002176808+1002634624
2740+1002975285+1003163340+1003102888+1002798470+1002416235+1002156057
2731+1002080114+1002088904+1002053239+1001912666+1001677705+1001428046
2723+1001300370+1001403981+1001746875+1002261108+1002851716+1003393905
2714+1003755461+1003895025+1003950145+1004147638+1004554226+1004999434
2706+1005284038+1005366754+1005319632+1005262711+1005354217+1005663895
2697+1006070411+1006418204+1006703601+1006963636+1007106442+1007041092
2689+1006878183+1006829836+1006960250+1007161706+1007316617+1007379302
2680+1007359488+1007301847+1007244349+1007198092+1007225976+1007449409
2672+1007858879+1008226703+1008345732+1008249471+1008094704+1007949015
2663+1007810892+1007699788+1007610588+1007490262+1007381320+1007435935
2655+1007639841+1007718666+1007512094+1007234118+1007157095+1007257103
2646+1007329154+1007267622+1007146431+1007158464+1007446743+1007917673
2638+1008347389+1008671910+1008967827+1009205814+1009283485+1009259996
2629+1009333489+1009594389+1009934401+1010197750+1010315842+1010283996
2621+1010115971+1009912281+1009861196+1010042694+1010291921+1010357560
2612+1010164822+1009872508+1009663846+1009505837+1009256466+1009020352
2604+1009129223+1009666512+1010306908+1010728843+1010928426+1011082617
2595+1011304608+1011526023+1011570551+1011404616+1011207915+1011072746
2587+1010857239+1010482426+1010134776+1010049539+1010270018+1010642669
2578+1010940891+1011054229+1011123758+1011381848+1011841105+1012259654
2570+1012434163+1012425949+1012469901+1012688362+1012938885+1012991123
2561+1012844858+1012765961+1012934346+1013156986+1013129174+1012956898
2553+1013135298+1013872244+1014709124+1015036455+1014772890+1014260746
2544+1013740605+1013277096+1013009856+1013109648+1013605004+1014451323
2536+1015522372+1016390667+1016505878+1015847253+1015067005+1014738089
2527+1014716041+1014482089+1013950996+1013623737+1013880025+1014408885
2519+1014617979+1014443037+1014388854+1014791335+1015382087+1015637943
2510+1015318898+1014620501+1013964109+1013663438+1013693483+1013762221
2502+1013663654+1013540589+1013719494+1014240284+1014722670+1014867350
2493+1014893216+1015135166+1015445133+1015452626+1015213054+1015097195
2485+1015203904+1015310972+1015287123+1015216368+1015172705+1015135310
2476+1015152531+1015366885+1015714462+1015802149+1015332372+1014502768
2468+1013823897+1013710343+1014248786+1015109372+1015772536+1016012252
2459+1015964626+1015732979+1015309820+1014795370+1014331861+1013978736
2451+1013845584+1014033135+1014375093+1014595283+1014654077+1014629651
2442+1014458312+1014101440+1013748891+1013605940+1013669130+1013834705
2434+1014002225+1014002585+1013704795+1013317301+1013309664+1013834416
2425+1014444190+1014611206+1014370409+1014158505+1014134728+1014054895
2417+1013800912+1013570923+1013481579+1013407510+1013265280+1013116781
2408+1013026356+1013030751+1013105613+1013069443+1012761782+1012325077
2400+1012072464+1012117928+1012300507+1012426742+1012455346+1012437405
2391+1012373640+1012243010+1012086730+1011868197+1011375219+1010515642
2383+1009587544+1009016534+1008934179+1009135203+1009322609+1009349052
2374+1009369587+1009798799+1010982897+1012794494+1014576045+1015597594
2366+1015631963+1015002159+1014167800+1013437916+1012904733+1012418744
2357+1011765523+1011005450+1010491721+1010395748+1010352012+1009878777
2349+1009014660+1008313021+1008301564+1008866378+1009352871+1009431408
2340+1009328374+1009407414+1009894844+1010662988+1011262098+1011388765
2332+1011159280+1010783242+1010199407+1009227285+1008021716+1007170208
2323+1007173234+1007849944+1008528239+1008793894+1008684736+1008354306
2315+1007918177+1007492279+1007232677+1007324111+1007781639+1008275770
2306+1008438102+1008289388+1008078276+1007877108+1007663402+1007599132
2298+1007885898+1008422107+1008780420+1008539191+1007699212+1006814057
2289+1006532046+1006917163+1007392560+1007476572+1007416409+1007846053
2281+1008802756+1009408495+1008866954+1007530323+1006499839+1006376703
2272+1006871482+1007385643+1007508419+1007175324+1006736241+1006709077
2264+1007291327+1008209698+1008933170+1008922650+1008011124+1006733575
2255+1005932792+1005904331+1006230149+1006450556+1006589615+1007024304
2247+1007989869+1009132249+1009600513+1008960694+1008004279+1008057741
2238+1009266265+1010251068+1009915523+1008886048+1008558933+1009412602
2230+1010866750+1012092854+1012492093+1012037735+1011438913+1011381992
2221+1011639361+1011533445+1011071233+1010894634+1011211085+1011486755
2213+1011249345+1010568240+1009613554+1008412092+1007385283+1007431756
2204+1008975752+1011317361+1013337548+1014611350+1015423157+1015806112
2196+1015289645+1013944367+1012793341+1012439567+1012255547+1011729930
2187+1011424430+1011738432+1011911644+1011063667+1009447187+1008169566
2179+1008101621+1009200986+1010709965+1011930305+1012658244+1012935283
2170+1012746435+1012057405+1011262890+1011429546+1013274430+1015873120
2162+1017533840+1017934304+1018277918+1019601220+1021777543+1023412252
2153+1022527385+1018600566+1013760780+1010911710+1010980231+1012449726
2145+1013131047+1012138607+1010321174+1009002340+1008746556+1009412602
2136+1010628475+1011715807+1011758174+1010416427+1008544235+1007493432
2128+1007692583+1008327503+1008551224+1008309634+1007781063+1006999662
2119+1006234905+1005704460+1004930624+1003412423+1001696583+1000829584
2111+1001090916+1001968218+1002913176+1003557823+1003631460+1003170113
2102+1002629653+1002513289+1002936089+1003666189+1004447302+1005056643
2094+1005191380+1004633195+1003499461+1002204547+1001281925+1001180981
2085+1001949484+1003044815+1003629586+1003235392+1002251669+1001625396
2077+1001877216+1002604867+1003129620+1003216946+1002940124+1002425458
2068+1002011809+1002190497+1003174796+1004657404+1005885238+1006048651
2060+1004982718+1003395490+1002070964+1001128023+1000427031+1000249280
2051+1001012956+1002421495+1003319404+1002759202+1001084792+999478615+998781586
2041+999231117+1000856027+1003343685+1005784365+1007337512+1007976395
2033+1007939577+1007110910+1005751870+1004862031+1004850431+1004978179
2024+1004849999+1005075160+1005768154+1005879257+1004735580+1003035232
2016+1001745866+1000962592+1000347126+1000000629+1000539576+1002421711
2007+1005144330+1007481544+1008789427+1009330535+1009054217+1007279367
1999+1004040714+1000759766+999000335+999125129+1000306561+1001354841+1001641824
1989+1001405350+1001111667+1000993214+1001274071+1002202170+1003679518
1980+1005188137+1006055208+1005929478+1005434050+1005748844+1006986260
1972+1007986194+1008134765+1008103854+1008204871+1007375556+1005026886
1963+1002671371+1002280562+1003866637+1005637596+1006201401+1005583845
1955+1004447950+1003447872+1003192016+1004007786+1005540903+1006718372
1946+1006368921+1004223509+1001360822+999443309+999296972+1000461688+1001931255
1936+1002753005+1002470995+1001464648+1000571063+1000326159+1000660695
1928+1001072255+1000962520+1000050993+998665511+997564488+997237085+997521546
1918+997915380+997992332+997641656+997087506+996706352+996619818+996418578
1908+995677021+994657201+993916438+993517919+993180862+992862321+992700421
1898+992686875+992833140+993284544+993951599+994511945+994956432+995559289
1888+996248608+996626951+996579109+996264171+995733366+994924946+993942592
1878+993139720+992783568+992644148+992220844+991518412+991178112+991671234
1868+992606609+993217680+993302053+993017736+992497235+991945607+991541469
1858+991267456+991121479+991204122+991385981+991323008+990963830+990576696
1849+990270476+990023699+990094814+990710856+991350604+991401616+991026011
1839+990582316+990145538+989736861+989503990+989547149+989818063+990107783
1829+990082493+989651408+989123052+988814599+988680727+988417090+987873892
1819+987209503+986677473+986317070+985998097+985742241+985730857+985989523
1809+986285800+986387537+986221890+985879284+985634524+985789219+986303741
1799+986746642+986771789+986401587+985920281+985754562+986102212+986417078
1789+986078147+985213454+984329307+983795620+983714418+984073163+984729266
1779+985228152+985069639+984226922+983244496+982976176+983813993+984946502
1769+985513982+985551160+985211653+984573851+984034183+983987638+984104434
1759+983843030+983443143+983309487+983188296+982738189+982208104+981991517
1749+981889636+981452786+980831196+980411278+980280360+980384403+980686588
1740+980862250+980452564+979726571+979795813+981368414+982974086+983121216
1730+982350046+981428793+980642276+980147569+979965206+979772972+979309896
1720+978889546+979195261+980273588+980991223+980753956+980017660+979295485
1710+978854385+978760213+978869516+978742921+978037534+977180551+977150506
1700+978198570+979008720+979006558+978873190+978509977+977497579+976234800
1690+975346474+974817831+974207481+973689717+974074041+975006606+975182557
1680+974593894+973817465+973290911+973191119+973207115+972907235+972488543
1670+972445528+972571907+972113730+971103204+970213438+969971632+970198739
1660+970194488+969596242+968477207+967232009+966974424+968884516+970687754
1650+970490693+969870255+970303142+971428734+971620536+970875089+970016664
1640+969206515+968290377+967684278+968394204+970033092+970698922+970199892
1630+969480599+969128699+969027971+968836457+968766423+969208604+969685082
1621+969429515+968671747+968316892+968748698+969142317+968958801+968587230
1611+968407677+968428356+968463301+968403066+968279137+968156145+968046698
1601+967939053+967877521+967965136+968256945+968626570+968792722+968599839
1591+968215731+967951806+967959011+968171276+968473316+968760587+968819309
1581+968392402+967587296+967132073+967863543+969127474+969320212+968566551
1571+968049724+968426627+969056647+969137921+968764910+968102610+967090356
1561+966125727+966617192+968919028+970003983+969514248+968838835+968442983
1551+968312137+968372084+968374245+968049508+967439158+966802653+966533684
1541+967374311+969216386+969882864+968888262+967614244+967266090+968006781
1531+968689327+968620230+968254423+968163494+968276759+968207301+968117237
1521+968416395+968817724+968893162+968808573+968673764+968315955+967731760
1511+967036605+966266444+965812518+966814542+968883147+969697763+969204425
1502+968304715+967539598+967268035+967607327+968009375+967748620+966779452
1492+965522294+964489360+963841471+962967700+961217203+958358767+954140211
1482+948193133+940210163+929736796+916174212+899525796+880640751+861152056
1472+844622021+833955412+827704637+822984240+817846520+811395657+804050055
1462+796814621+789901546+782676127+774915868+769126152+767935281+770749766
1452+776521109+784529082+793813811+802589783+808572742+811368061+813300488
1442+816985429+823134252+831197416+840935423+851139388+858721968+863222895
1432+867737079+875328377+886106955+897071498+906008578+912980231+918348300
1422+922166609+925166267+928483816+931915496+934117036+934987998+935400710
1412+935983104+936863792+937823882+938593682+939049914+939118795+938635040
1402+937381340+935080080+931401983+926346114+920580319+915162749+910819039
1392+907042160+902061440+893331221+878161667+856814686+834970549+818817633
1383+810259905+807938399+809265880+811900883+814481200+816153448+816247908
1373+814962505+813469521+813166832+815502605+821670233+832139781+846656114
1363+863191336+877437547+886503816+891176298+893280352+893705602+892707469
1353+890764522+888777984+887517295+886956301+886281104+884803323+882936895
1343+882155062+883944899+888447051+893712303+897169272+898030795+897167255
1333+895391108+892524242+887727830+880602347+872086914+864408362+860089149
1323+860548983+865204605+871776731+877646641+881585205+884529094+888349565
1313+893811878+899901834+905102888+908767655+910984254+911840012+911299264
1303+909479093+906697608+903176441+898732723+893158081+887376290+883814701
1293+884667073+889735408+896589256+902775977+907385991+910719464+913277012
1283+915297702+916709772+917103607+915832614+912345815+906560134+899034187
1273+890925126+883819385+879328401+878446271+881161108+886670183+893770016
1264+901102936+907497383+912352300+915604931+917404423+918091364+918363647
1254+918943159+919908148+920655036+920664403+920123655+919704602+919903177
1244+920701582+921711675+922486159+922797206+922755056+922609511+922395518
1234+921912267+921071279+920091736+919298374+918826580+918538085+918186472
1224+917662800+916992935+916025209+914304830+911517292+908057441+904935295
1214+902921738+901781375+900393659+897591135+892872324+886549496+879548807
1204+873109904+868384392+865963670+865622721+866630581+868405143+870769448
1194+873567361+876234067+877793122+877195237+873822064+867981407+861069629
1184+855216723+852556069+854347491+860314887+868741769+877450300+884941590
1174+890756741+894971767+897664484+898926109+899025181+898275626+896874797
1164+894944171+892549316+889661050+886257759+882448528+878439354+874485588
1154+870932141+868223933+866805378+866983562+868852944+872256524+876718903
1145+881514738+886004641+889830732+892628500+893789614+892863173+890186307
1135+887002702+884900305+884932079+887038656+890236383+893285828+895179420
1125+895268548+893217739+888822728+881768648+871687531+858854471+845179846
1115+834253562+829418243+830982414+835201330+836073661+828196173+808550406
1105+777089813+737059028+694841184+658234729+633401742+622559830+624008863
1095+634003373+648790261+665468938+681596996+694726982+702967394+706158132
1085+706324428+706781452+710432313+718349572+729574727+742207844+754845212
1075+767207270+779668184+792407866+805011802+816651037+826470751+833854828
1065+838454106+840139756+839237596+836972002+835418566+836554606+841059496
1055+847900735+855085517+860967964+865037085+867664739+869390522+870587662
1045+871540618+872461007+873347315+873997293+874258985+874227715+874130589
1035+874030653+873721047+872901459+871373026+869119824+866428980+863927777
1026+862095213+860376996+856775130+848473618+833496515+813109839+793313196
1016+782603427+786243552+802220374+823105143+841433805+853202157+857702652
1006+855913679+849717015+842043434+836451932+835317406+838109122+841865394
996+843679152+842928085+841473001+841890973+845251825+850274695+854442960
986+855797748+853708248+848242765+839145370+825593161+807035374+784472089
976+761005706+740567730+725354657+714974525+709002086+709369622+718343448
966+734759929+754460240+774188650+793038030+810377061+824657929+834782782
956+841223990+845216664+847471307+847924656+846344058+842882044+838241913
946+833810156+831739461+834153842+841499156+851812711+862052342+870098647
936+875462826+878574091+879837518+879206921+876338470+871257022+865051063
926+859592929+856059224+853778283+851081675+847447242+844334175+843690537
916+846134459+850884397+856842282+863086645+868658333+872671974+874804849
907+875439048+875292279+874918619+874347032+873113867+870800214+867565524
897+864035494+860800155+858364231+857513012+859069617+862893618+867511918
887+871224023+873453159+874812703+876155098+877871731+879901716+882054694
877+884224243+886326496+888127501+889308573+889693546+889066551+886651594
867+881301105+872783366+862824521+854500889+850455761+851517371+856504720
857+862977559+868476906+871710948+872989074+873557706+874400855+875611973
847+876817614+877882106+878954236+880092005+881224153+882325392+883337431
837+884064865+884325044+884047644+883262713+882314945+882016939+883100813
827+885346521+887492726+888154737+886824878+883987841+880297568+875802261
817+870285981+864386242+859822558+858085102+859092241+861394438+863510741
807+864918128+866032768+867563579+869862317+872742152+875812637+878849761
798+881777655+884457547+886683513+888358427+889550523+890369102+890789596
788+890540586+889152221+886270008+882073932+877420759+873577088+871722548
778+872420513+875311445+879337047+883409771+886947943+889896083+892396638
768+894438080+895764624+896224458+896168906+896236347+896695964+897258544
758+897580832+897679254+897756061+897848072+897862554+897884097+898141466
748+898593591+898855283+898668236+898119274+897301919+896163502+894793006
738+893500759+892544344+892039045+892138188+893027307+894570799+896053912
728+896635297+896255368+895763903+895866145+896300689+896356817+895822049
718+894995544+894024863+892809422+891542465+890858910+891240496+892466816
708+893768359+894451769+894445573+894306729+894603799+895353281+896159251
698+896667072+896722552+896300905+895340599+893559553+890756308+887438399
688+884597759+882744157+881831189+881991216+883383328+885435793+887231034
679+888585174+890002575+891666682+893072411+893741339+893898989+894177685
669+894744227+894897625+894415960+893925720+893690975+893576053+893452196
659+893228187+892725122+891847172+890659615+889235513+887823659+887005872
649+887141401+887867250+888593460+889076423+889091842+888121161+885893321
639+882919314+880191724+878599525+878704072+880599897+883660150+886694681
629+888748731+889695779+889822662+889025626+886678253+882104481+874878414
619+864889307+852926559+841767980+835746978+837744108+846577145+857980699
609+868060736+875316200+879910651+882496803+883879548+884757786+885446096
599+886018836+886603679+887368004+888238101+888832888+888923889+888757594
589+888565216+888224843+887861919+888125700+889348562+890990477+892334602
579+893241228+893852299+893956846+893269112+892185166+891408953+890952073
569+890482584+890323494+890781743+890913093+889522567+887049535+885272019
560+885405531+887183984+889462332+891266219+892321776+892740253+892653935
550+892365512+892206998+892020024+891404198+890493176+889765093+889199559
540+888425219+887764577+888314980+890352242+892278689+892228830+890321332
530+888291203+887443875+887915093+889174629+890446558+891205623+891580652
520+892031480+892693131+893164205+893047049+892479930+891745218+890619482
510+888773085+886764427+885821702+886453307+887995430+889546632+890794280
500+891938605+892870234+892838603+891505142+889893201+889369529+890065837
490+891142218+892076728+892928092+893795090+894614534+895447957+896666351
480+898343932+899652103+899771420+899311514+899595470+900561828+900749739
470+899789073+899068123+899546619+900603041+901163820+900982322+900244584
460+898899162+897334703+896909814+898363602+900734680+902921017+904401248
450+904839683+904290793+903255698+902294888+902099339+903346555+905351178
441+905840049+903589585+899915668+897001824+895694590+895089355+894037976
431+892672524+892447362+894330867+897199894+899065818+899908391+901750609
421+905384033+908529452+908887405+908012336+907289585+906002309+904406868
411+904578783+907042088+909056582+908282963+905747606+903453480+901827128
401+900609454+899537612+897965300+896371299+896419070+897964219+899686687
391+900919637+901371329+901434878+903407799+908690271+912448993+908816578
381+900827915+896040726+898027841+904362628+909654323+912575228
##END=
