##TITLE=X9668
##JCAMP-DX=5.0
##DATA TYPE=LINK
##BLOCKS=1


$$ === CHEMSPECTRA SPECTRUM ORIG ===
##TITLE=X9668
##JCAMP-DX=5.00
##DATA TYPE=INFRARED SPECTRUM
##DATA CLASS=XYDATA
##ORIGIN=Default
##OWNER=
##XUNITS=1/CM
##YUNITS=TRANSMITTANCE
##XFACTOR=1
##YFACTOR=1.0209172e-009
##FIRSTX=3996.5625
##LASTX=399.65625
##MAXX=3996.5625
##MAXY=1.0962014954600556
##MINX=399.65625
##MINY=0.35133187560581797
##NPOINTS=1765
##XYDATA= (X++(Y..Y))
1765A002925180A003298718A003407777A003273497A003050589A003115161A003548015
1758A004032948A004421548A004461482A004303147A004437895A004549641A003918984
1751A002570560A001730189A002639453A004305482A004931702A005166871A005682280
1744A005715674A005657058A006148530A006514244A006583486A006624705A005651686
1737A004179139A003843552A004455060A005499540A006638717A006977691A006601819
1730A006377043A006166979A006536779A008062806A008572959A006841423A005145036
1723A004526522A005022781A008291668A013664227A016674127A015524441A011847101
1716A007834877A007063865A009976965A011243417A009930141A010779035A012057750
1709A012260340A012342194A010194851A009099345A011155142A014038116A016367848
1702A015629998A014397524A015001559A013381886A010698817A012103406A019021491
1695A027680570A024766770A014135849A008477445A008491457A011789887A016370182
1688A020931913A022294700A019008297A015450761A012933384A011040360A010583919
1681A011333679A014742453A019985869A020540745A018778382A015951340A009958749
1674A006460414A008759670A013069184A014111445A015250389A016053161A013356780
1667A010972518A008249633A005173643A003989861A004059570A004578248A005365958
1660A006430404A008563618A008982928A006124942A004488222A006465552A010020634
1653A011176160A010440879A009455367A009221365A011222517A012600948A012724255
1646A016779568A025410972A028860850A025025993A023989219A022364760A015947370
1639A013399051A017917811A024825621A025116020A017940229A011165301A008601334
1632A008719152A009574002A009598056A007814443A006120623A007432497A012456158
1625A016573007A013940498A008728844A006645489A007713555A007371312A004655198
1618A003067520A004048478A008597247A014934418A016028640A009924536A004108146
1611A002492093A005351479A011734773A019434496A020991932A017831053A017223165
1604A013030184A005474552A001372532A000522352A001161651A003925990A006783975
1597A007482007A011687832A020587685A022013642A012759285A004917340A002463718
1590A002456478A001698545A000941312A002185463A006548106A012867645A012171831
1583A004451674A000416212A002369488A006440563A006985164A006109996A006722556
1576A006436594A004514144A001412817I97936201I96441468I96924649I97185506
1569I96910637I96571663I95493088I95190545I97342908I98418798I95511420I92189869
1561I90603825I89993953I89045573I87894252I87356307I88197378I90978414I92674102
1553I90089702I86689218I84807403I83754632I83534644I83925113I83480581I82309176
1545I82046801I81965882I80544945I78509933I76764094I75765329I75680089I75930846
1537I76377012I76986184I76643649I75000564I73157867I71696121I70416940I69327155
1529I68495483I67882691I67646938I67119619I66290108I66662185I67492339I66340084
1521I63735833I62061338I61676299I61398978I60787587I59939334I59017576I58650228
1513I58485878I57330879I55619194I54541961I53982473I53078698I51575616I50117257
1505I49568511I49860837I49808467I48891497I48015745I47443938I46480495I45153148
1497I44082804I43551223I43138569I42448477I41467694I40421580I39561008I38522776
1489I37247506I36381797I36031847I35672438I35279401I35134085I34664507I33459006
1481I32370681I31437538I30035636I28715528I27807841I26850878I25593241I24154323
1473I22816700I21754005I20680976I19471096I18553426I17806819I17129688I16713472
1465I16029569I14898682I13958534I13192777I12084776I10791058I09724568I09027294
1457I08569160I07746596I06401091I05301673I04754095I04359831I04029440I03762919
1449I03524832I03595301I03729232I03473162I03196834I03282716I03604408I03942390
1441I04225024I04640597I05302257I06084770I07037237I08096020I08790491I08766145
1433I08546565I09358854I11121041I12603980I13533210I14132107I14608750I15238765
1425I15712372I15869715I16196604I16652170I16989801I17664013I18582209I19124357
1417I19540456I20137952I20476985I20285662I20241466I20938797I21693345I21776424
1409I21533900I21419935I21585335I21932425I22046973I22079960I22408308I22753179
1401I22750610I22572190I22705305I23141312I23506967I23969364I24477417I24157359
1393I23397499I23657480I24655253I25018981I24791811I24933975I25269855I25450610
1385I26002333I26709765I26958887I27262832I28282323I29498625I30240269I30904323
1377I31927317I33071398I34039512I34693407I35281853I36187030I37165186I38023422
1369I39302545I40819229I41701461I42287164I43180664I44014496I44570948I45186134
1361I46203932I47627846I48786640I49340874I49930546I50930830I52105621I53154129
1353I54066020I55275374I56738813I57610594I58149473I58834661I59188523I59739429
1345I60765226I61759787I63024197I64462064I64900699I64508712I65225019I66932851
1337I67957480I68259614I68392086I68641967I68976387I68933767I69004820I69814189
1329I70533590I70733436I71328305I72367180I72958837I73133637I73311648I73590079
1321I73635618I73294834I73335761I73498767I73134046I73065854I73358122I73286310
1313I73096681I73175031I73527959I73888710I74222722I74949887I76034301I77085962
1305I77899418I78245398I78179600I78253222I78424986I78317618I78037903I77656426
1297I77240795I76921671I76889852I76981280I76753877I76330363I75823537I75273040
1289I74878776I74369731I73763011I73496140I73032050I72057047I71332567I70779793
1281I69439660I67329391I65384522I63838296I62407026I60883394I59033573I56637226
1273I53376395I49220896I44410686I39121614I33344399I27190027I20565319I12452124
1265I02744712H92422056H80937628H68322896H56530320H45158280H31970048H16514087
1257G99368802G80928164G62802154G47495772G35245353G24952063G16711710G10697633
1249G05486445F98027204F86128020F70883932F55555364F42276405F30431926F18929048
1241F10316793F10859583F24517218F49356738F79960395G09748844G33896287G51892569
1233G66091126G78564394G89181128G96818789H01428978H03968073H04905945H04454407
1225H03988858H04344179H04700552H04189755H02681828H01186628H01826277H06377557
1217H14207475H22089354H26520131H25444825H18078296H04351536G85362619G62978530
1209G38659090G14142255F92122480F76760750F73022284F82787671G02515371G26289102
1201G51339503G78632236H07681201H35016087H58057747H76543399H91198047I03170736
1193I13209357I21448134I28219502I34090715I39256071I43913259I48630172I53238026
1185I56966800I59639009I61663279I63361186I64569606I65254386I65976413I67307555
1177I69219496I71095239I72597035I74022058I75667478I77338879I78608018I79645141
1169I80744266I81673497I82219499I82432364I82683997I83212251I83906313I84807403
1161I85805760I86702646I87482298I88002027I88500505I89085040I89161172I88871940
1153I88753305I88745015I88686514I88353029I87857120I87427768I87019200I87166676
1145I88237546I89346130I89759135I89934986I90316929I90709500I90747450I90168986
1137I89143773I88138293I87185360I86225769I85889949I86486160I87748994I89230530
1129I90192924I90694904I91322877I91909163I91962058I91728525I91605452I91407883
1121I91167810I91122621I91285510I91469885I91456808I91180187I90990675I91271849
1113I91560147I91520563I91417458I91295320I91229229I91428550I91688006I91483431
1105I90914776I90810153I91434622I92093071I92548461I93079284I93487032I93783621
1097I94038989I94078106I94286535I94873990I95436222I95667888I95324827I94780693
1089I94929454I95495423I95676412I95692175I96089066I96890553I97637160I98028330
1081I98187366I97888910I96944265I96467040I97231395I97763152I97234549I96981048
1073I97520160I98225898I98497032I97732326I96810101I96995059I97369765I97115446
1065I96791535I96863230I97588819I98564290I98930587I98676736I98678370I99555522
1057A000568125A000463502I99439224I98688179I98837174I99237450I99122318
1050I99277618I99963974A000011381I99521544I99356319I99480559I99926141
1043A000602688A001172627A001389112A000906399A000499116A001282038A002832467
1036A003676342A003115276A002136538A001627434A001455553A001428347A001285658
1029A001163986A001426829A001717578A001888175A002038921A002431724A003214529
1022A003146454A001664683A000276792I99725185I99694242A000423100A001506347
1015A002014983A002042774A002060406A002074184A002345783A002758088A002293238
1008A001244789A000633632A000523052A000763008A000989536A001085403A001480425
1001A001919468A002054684A002144477A001853612A001147289A001042316A001216765
994A000828632A000817889A001715360A002490458A002457179A002146695A002097537
987A002136771A001931728A001398922A001011022A001014874A001106303A001005300
980A001138882A001866573A002278409A001994900A001459056A000350471I98591262
973I96855757I94822379I91991834I89530621I88284136I87560415I86853976I85968416
965I84908055I84041995I82827738I81619434I81903645I83653046I85880841I88318581
957I90508661I90892824I89115048I87737083I87848946I88286938I89063672I89508203
949I88637122I87654645I88257629I89837252I90708683I90385706I90102079I90938946
941I91671893I91371100I91480162I92811186I94289455I95438558I96611247I97512804
933I97899185I98491661I99918901A001124286A001249694A001716643A003447479
926A004868065A004853352A004482384A003732624A002404868A001473651A001156045
919A002187215A004120406A005154494A004972921A004452374A004396442A004415008
912A003662213A002664324A002626374A003215112A003499557A003367494A003362123
905A004486353A006082089A006182159A005883703A007275329A008636014A007773341
898A006276623A006359411A007089437A007600526A007522292A005698626A004316925
891A005009585A005266707A005677726A008541666A011060093A010912034A010796668
884A011053905A009359385A007777077A008366048A009034423A009260250A009932943
877A009109152A006133583A004628459A007808253A012620448A013169837A010075983
870A008681436A011021794A012360877A010903860A010311735A009137528A008051945
863A009663562A009711436A007010268A005399586A006725825A009256746A010737000
856A010533709A008897454A006921760A005734591A005665465A007236914A008334756
849A007047284A005327542A004444551A003909758A003406377A003105352A003532369
842A004521734A005157530A005126118A005078127A005408812A005523127A005261919
835A005181350A005605214A006710178A007949424A008502083A007546579A005521842
828A005053840A006626807A008182141A009199063A009587313A009110555A008599348
821A007985623A006686008A005149238A004442566A005193844A007031521A008658316
814A009423606A009991209A009350978A007916964A008178405A009301702A009785583
807A008469972A004700971A003039962A005511216A006341662A004962529A006295656
800A009208639A011417984A012483365A010216103A004541934A000598017A001050139
793A001056094I99054126I99171359A001940253A006006424A009236662A009290492
786A007373296A005578241A005235647A006634046A008972186A010751828A010679317
779A008473825A005600892A005485061A009079727A012457910A012094882A011490263
772A013555518A014150679A011209205A008140923A007345857A008297741A008985614
765A008035132A007588148A009043881A009289558A007093991A005718478A006964964
758A008114884A006336758A004084675A003862118A004516947A004948634A005107437
751A004141658A002756102A003307241A004451090A004413375A004603588A005038661
744A005190224A006044723A006929583A006330920A005096110A005027685A006132533
737A006935305A007039344A006961461A006968817A007775092A009235611A009059176
730A007424208A006441381A005797529A005376584A005711238A006683672A008079854
723A010616497A014277137A014714663A010489688A007160198A006465201A006159740
716A005698394A005540291A005477938A005191859A005620160A008111381A011557754
709A011487811A008137069A006595280A007016808A007175026A007796343A010536278
702A011999366A010505567A008765392A006107078A003382206A002406735A001840299
695A000960462A001312864A001954848A000531344I97956401I96521336I96490393
688I95821552I92832205I89134432I87364013I85452540I79577066I74316135
681I73870261I76267134I79013140I80472784I79657168I79385568I81747995
674I81967749I75125563I66140529I58754909I53502736I47380650I37865145
667I25703002I09334975H89785694H65388662H30927904G90847625G52795352
660G20282090F97833955F89511164F94986654G11036374G27662514G29374024
653G24574439G20818925G15506617G05803292F96598970F88433348F66664329
646F31983874F11129723F18690669F50789000F94761761G37101654G71236807
639H10244642H48770287H73134274H90620927I02724220I15733098I31244640
632I49085505I68794640I74552588I71580697I73337220I80020780I85622669
625I89004004I92301382I90576503I87361677I89454140I92360817I91808510
618I93308847A002058537A015561222A014780636A009094090A009200114A002521401
611I90866668I86365189I90218379A000185247A006866528A001586799I96901997
604I98363800A001837497A004964047A006684723A005409629A006439396A009887521
597A007258749A002360380A001500858A002507389A002413158A002007626A002297676
590A002488472A002426703A002756219A002978894A002425886A001474353A000762893
583A000670063A001363541A002919109A006091663A012358774A017942098A016127190
576A015162113A018660915A018669322A016152063A016964525A023789782A039412720
569A044770800A031615730A022393718A018700733A017532364A017805832A021871536
562A031426217A043536223A043354885A029414090A022759782A022297969A019155656
555A017128000A019812353A024094660A029013230A031223042A028216180A024293865
548A019236459A015482638A017402169A026350246A034017274A023450575A011405724
541A008586155A010728593A010093030A004817620A002435927A004219658A002093568
534I92951074I83344782I74808191I63891892I47921923I22456825H82144938
527H33799551H04817377G98435193G94884546G85523465G85123422H03274245
520H29719542H36763210H23303788H09803205H03081346H05960583H15532312
513H27632160H41289210H56429083H74833874H93351929I06319821I17224094
506I25893040I30429257I33990879I37756552I41859388I45632359I43525593
499I37367893I31612163I25558211I19029718I13986733I11484419I12552252
492I18898705I28583990I35613413I34863594I24050867I06929578H85921645
485H61589419H40998928H28539905H21705658H16844829H13630238H16168574
478H25870615H37842486H45776093H46099129H40848883H31660499H25680810
471H34307779H54026605H71656006H82600796H89742549H95517545I01810636
464I08533896I13904996I15817929I14519890I15138930I20360451I27101868
457I32096162I35600277I40112089I47117867I55334049I61748928I64222283
450I63241617I60145778I56339003I53332665I50973450I48235384I44889313
443I41810872I40270834I39544135I38056701I36657017I37739854I42276830
436I47992450I51682341I52095287I49144997I43657306I37418395I31203479
429I23484957I12588216H99327998H83734194H60765921H25733589G82426399
422G40697430G07563085F84225654F70624009F71309314F93501963G36402162
415G87561630H32960056H65699320H85238734H94633211H98585886I01479135
408I06056162I12919367I21068642I28186457I29891370I23907653I16575220
401I14454034I14092115I11375359I09198475I10410164I12512785I12143393
394I11295899I14656332I22848753I32680755I41140688I46698207I49430201
387I50754337I51373551I49961723I45060727I38090271I33099014I32327477
380I34151142I36273788I38438412I42210681I48449417I55239935I60165044
373I62313963I60846495I54245957I41950058I26610397I14071389I09827614
366I13617341I18830572I18671477I09648552H90991604H67448779H51622259
359H53931207H69844427H85303131H90846054H85576658H73364246H59906400
352H51135517H49767009H52067491H49680310H36367079H12527842G85176959
345G64629263G55874027G54051063G51129731G42777106G28226264G08421847
338F86889982F70217019F65933777F77692724F98956143G15690408G17648180
331G04497138F85727042F75249845F79392032F90639541F97925383F98278661
324F97079641G02428789G15616670G29105810G35915011G35815934G33404056
317G31514126G27612537G17208961G03431699F99656919G16059976G49701439
310G88166833H17220585H30630032H37515773H50332978H65896948H72043438
303H65945990H52958948H37052967H22595363H17198691H25554644H44095351
296H64622146H81573189H92164351H95115458H94607931H96623210I00592291
289I01516909H96940116H90044391H88324123H95919690I08567291I20090837
282I27054695I26608412I18993695I10660045I09450282I17074632I27562514
275I32734409I27286652I11479106H93446743H83238869H82656319H84486989
268H79803821H67499690H58115722H65081215H88967742I16794333I39436827
261I56922545I69359091I75792068I77017770I72638021I61657208I46378908
254I28679972I08345609H89099046H75352260H66312113H64541577H74168712
247H87725051H94341936H91202601H80216359H65047236H48723580H31839911
240H14577100G96120991G73293539G46921979G21774312F94635302F56413309
233F07108098E61046962E36689572E39514221E59099291E81513272E96381545
226E99199129E94899015E93671912E99578972F07479358F09067271E97479737
219E69626990E26894118D74338498D18702772C69991701C44133565C54538104
212D02371090D75131754E51748935F14555663F56083501F74049832F72528010
205F69740260F84866004G16469535G46371482G59867686G60711736G62117608
198G63758183G59548563G55020286G55742722G58837628G61622809G62148785
191G54135543G30689227F89104115F30642340E60744186D90050090D33872888
184D08485352D21280284D63984811E21861876E85884030F50691208G07552927
177G46904756G67137824G80092288H00442940H28802981H55495299H74262008
170H85658862H92216605H95943978H98872315I01112604I01519186I01023744
163I01487659I03163847I04859535I05293149I04326962I04632949I08085278
156I11310378I12617700I15605647I21035831I24856442I24068091I17695715
149I07162761H97725723H93693180H93314096H93564211H93896471H93105843
142H89998735H84486230H76399426H66921811H57125714H42923129H17233429
135G80233168G44923982G28084217G44142928G74228666H08531205H45109179
128H73758101H90146737H94530690H88436803H79878961H80337388H91251818
121I05160502I16749787I25249304I31715268I37001012I39774633I39965605
114I38834251I34058837I24678256I16225445I13527956I14816244I16543927
107I18303720I20653828I23234550I26136090I29746462I34415327I38283462
100I40334005I42099111I42991501I41361144I36061214I27710691I20213967
93I17991369I21511831I28186749I35508439I41131405I43220131I41658724
86I39804992I41180214I45263376I49857917I54201060I58439347I61920984
79I64069903I66511439I67856068I63911100I57552970I54778005I56064718
72I57756903I58883820I61309126I62055499I59400280I59855028I66544484
65I75137707I82342572I87597313I91559913I96062443A001509732A007110338
58A012338690A015386072A016998973A019390708A020581262A018911379A015881747
51A011458269A006324263A006614780A013582024A020417089A022930261A022402592
44A024811024A029635831A029224111A027869616A031921075A036813722A038378749
37A035412753A027671696A020777314A020694993A022505347A016789375A010807760
30A018331866A031594946A034227571A029718736A024229877A017018823A011444256
23A016153464A031585721A047352632A057143998A060869212A059613735A058310617
16A058978290A059546711A061460636A065841261A070898901A073741823A060943125
9A031837003A004273955I89634193I90204600I94380417I95305443I96088132
2I93472204I77488807
##END=


$$ === CHEMSPECTRA PEAK TABLE EDIT ===
##TITLE=X9668
##JCAMP-DX=5.00
##DATA TYPE=INFRAREDPEAKTABLE
##DATA CLASS=PEAKTABLE
##$CSTHRESHOLD=0.93
##MAXX=3996.5625
##MAXY=1.0962014954600556
##MINX=399.65625
##MINY=0.35133187560581797
##$CSSOLVENTNAME=- - -
##$CSSOLVENTVALUE=0
##$CSSOLVENTX=0
##NPOINTS=41
##PEAKTABLE= (XY..XY)
411.890625, 1.0103345693418195
534.234375, 0.9799325075916816
546.46875, 0.9760629149193496
572.9765625, 0.9594630809786624
587.25, 0.9371931780636468
621.9140625, 0.9326364029612432
650.4609375, 0.8982835652030292
668.8125, 0.7433137001838324
695.3203125, 0.9119997256088511
772.8046875, 0.41702972180485437
815.625, 0.6837493509664719
833.9765625, 0.35133187560581797
854.3671875, 0.6060898661176863
868.640625, 0.5479156161363555
905.34375, 0.8826253660744243
940.0078125, 0.8760651001802183
964.4765625, 0.9284734354386504
980.7890625, 0.9069053763456155
1007.296875, 0.8342921994593852
1035.84375, 0.7142917827061068
1058.2734375, 0.7116605952667252
1068.46875, 0.689374181057834
1082.7421875, 0.6798632470002643
1113.328125, 0.8675417554806548
1131.6796875, 0.8694358121159548
1145.953125, 0.9288586601675608
1174.5, 0.9518291573019043
1201.0078125, 0.9303576575785628
1251.984375, 0.6846515855210548
1292.765625, 0.9562492591559923
1360.0546875, 0.842951740638932
1376.3671875, 0.8306491044142935
1404.9140625, 0.9305501208891067
1449.7734375, 0.8198795591305512
1462.0078125, 0.8015460056426583
1712.8125, 0.6239128456419356
1739.3203125, 0.7039338069196208
2854.6875, 0.6871000257188847
2885.2734375, 0.8179452089352016
2928.09375, 0.6230829114225396
3344.0625, 0.9220891828161447
##END=


$$ === CHEMSPECTRA PEAK TABLE AUTO ===
##TITLE=X9668
##JCAMP-DX=5.00
##DATA TYPE=INFRAREDPEAKTABLE
##DATA CLASS=PEAKTABLE
##$CSTHRESHOLD=0.93
##MAXX=3996.5625
##MAXY=1.0962014954600556
##MINX=399.65625
##MINY=0.35133187560581797
##NPOINTS=93
##PEAKTABLE= (XY..XY)
3603.0234375, 1.0172842334744496
3590.7890625, 1.016007144667874
3572.4375, 1.0080090363447805
3556.125, 1.0041074348554768
3535.734375, 0.9960885845576307
3507.1875, 0.9865021914470575
3466.40625, 0.9694308254582892
3352.21875, 0.9224240416159104
3344.0625, 0.9220891828161447
3319.59375, 0.927550815209418
3278.8125, 0.9394903407926152
3268.6171875, 0.9406934600643819
3252.3046875, 0.9418698170126679
3238.03125, 0.9427123891660828
3229.875, 0.9441358662690492
3129.9609375, 0.9846835336306463
3113.6484375, 0.9892011483910924
3089.1796875, 0.9936534367017448
3081.0234375, 0.9934196670812888
3074.90625, 0.9934511388958132
3054.515625, 0.99864037832912
3038.203125, 0.9973236524122544
2928.09375, 0.6230829114225396
2895.46875, 0.8208060537405576
2885.2734375, 0.8179452089352016
2854.6875, 0.6871000257188847
2736.421875, 1.00766487801024
2707.875, 1.0065120062412227
2681.3671875, 1.0118541310879812
2671.171875, 1.01171942514711
2658.9375, 1.0119629690288388
2648.7421875, 1.0115351271323316
2620.1953125, 1.0155887197116196
2595.7265625, 1.017310340369088
2587.5703125, 1.0178350999772257
2577.375, 1.0176605772446372
2569.21875, 1.017641622895902
2359.1953125, 1.0021521640248647
2342.8828125, 1.0083977771125276
2330.6484375, 1.008313614740394
2320.453125, 1.0108122422068588
2314.3359375, 1.01210780757292
1786.21875, 0.9942409000233892
1776.0234375, 0.9998715718029696
1739.3203125, 0.7039338069196208
1712.8125, 0.6239128456419356
1680.1875, 0.9919034447552884
1665.9140625, 1.0080145186701444
1659.796875, 1.012554366965372
1641.4453125, 1.0069971869313508
1631.25, 1.0177543954516484
1462.0078125, 0.8015460056426583
1449.7734375, 0.8198795591305512
1404.9140625, 0.9305501208891067
1376.3671875, 0.8306491044142935
1360.0546875, 0.842951740638932
1337.625, 0.933649085443108
1292.765625, 0.9562492591559923
1251.984375, 0.6846515855210548
1209.1640625, 0.92821636134127
1201.0078125, 0.9303576575785628
1174.5, 0.9518291573019043
1145.953125, 0.9288586601675608
1131.6796875, 0.8694358121159548
1113.328125, 0.8675417554806548
1082.7421875, 0.6798632470002643
1068.46875, 0.689374181057834
1058.2734375, 0.7116605952667252
1035.84375, 0.7142917827061068
1007.296875, 0.8342921994593852
993.0234375, 0.9133206240143131
980.7890625, 0.9069053763456155
964.4765625, 0.9284734354386504
948.1640625, 0.9011190177557867
940.0078125, 0.8760651001802183
905.34375, 0.8826253660744243
868.640625, 0.5479156151154384
854.3671875, 0.6060898661176863
833.9765625, 0.35133187560581797
815.625, 0.6837493509664719
797.2734375, 0.7708131963263192
772.8046875, 0.41702972180485437
732.0234375, 0.9198706378579967
721.828125, 0.9232429499295464
695.3203125, 0.9119997256088511
668.8125, 0.7433137001838324
650.4609375, 0.8982835652030292
621.9140625, 0.9326364029612432
587.25, 0.9371931780636468
572.9765625, 0.9594630809786624
548.5078125, 0.974749287486186
536.2734375, 0.9794682475368159
411.890625, 1.0103345693418195
##END=

##END=

