##TITLE=X7977
##JCAMP-DX=4.24
##DATA TYPE=INFRARED SPECTRUM
##DATE=30/10/2018
##SAMPLING PROCEDURE=Diamant-ATR
##ORIGIN=ComPlat
##XUNITS=1/CM
##YUNITS=TRANSMITTANCE
##RESOLUTION=4
##FIRSTX=3997.453
##LASTX=373.96442
##DELTAX=-1.4165319
##MAXY=0.92424774
##MINY=0.50139952
##XFACTOR=1
##YFACTOR=8.6077279e-010
##NPOINTS=2559
##FIRSTY=0.8696624
##XYDATA=(X++(Y..Y))
3997+1010327484+1010847794+1010857766+1010082216+1009156265+1008751317
3989+1008885031+1009308121+1009986380+1010853057+1011538103+1011749925
3980+1011664822+1011613650+1011602640+1011391926+1010862890+1010170643
3972+1009640568+1009533861+1009821645+1010260177+1010687630+1011035657
3963+1011120483+1010768439+1010165311+1009762579+1009724286+1009638837
3955+1008969302+1007850295+1007155416+1007557940+1008716625+1009586695
3946+1009503254+1008799997+1008453354+1009146779+1010432806+1011291104
3938+1011319010+1010692615+1009653240+1008677502+1008549813+1009408042
3929+1010222507+1010108460+1009349114+1008811561+1008892509+1009125243
3921+1008884407+1008130047+1007321675+1006945187+1007199318+1008023340
3912+1009241714+1010543322+1011356680+1011031364+1009405549+1007201465
3904+1005691220+1005528770+1006288186+1007549493+1009184725+1010702656
3895+1011497802+1011499048+1011225182+1011214657+1011235638+1010706603
3887+1009653933+1008541573+1007593740+1006748876+1006324055+1006876149
3878+1008122430+1009159035+1009487951+1008925539+1007633764+1006587465
3870+1007036383+1008790441+1010271256+1010747596+1010623854+1010282820
3861+1009677407+1008845976+1008041343+1007331785+1006517458+1005580774
3853+1005365351+1006586565+1008382308+1010023150+1011275108+1011788010
3844+1011138348+1009365179+1007293076+1005998601+1006119019+1007574629
3836+1009576724+1011234184+1012005579+1011752141+1010898413+1010230817
3827+1010242450+1010673919+1010777926+1010223754+1009451320+1008975881
3819+1008598354+1008228583+1008532709+1009819776+1011196515+1011674516
3810+1010985247+1009536215+1008483822+1008758519+1009452982+1009163190
3802+1008084345+1007632726+1008479113+1010166626+1012206391+1013908723
3793+1014560184+1014200800+1013412094+1012690833+1012215047+1011936403
3785+1011754149+1011593707+1011421216+1011313817+1011454316+1011810722
3776+1012017351+1011856978+1011515736+1011349409+1011506111+1011650834
3768+1011426479+1011277878+1011889316+1012921836+1013324360+1012716592
3759+1011674863+1010918079+1010502121+1009948503+1008816754+1007112623
3751+1005596977+1005072512+1005119391+1005186767+1005394919+1005686304
3742+1005603625+1004940737+1003591073+1001487395+999204509+998098243+998985486
3733+1001180776+1003539832+1005282049+1006141593+1006405072+1006514895
3724+1006546748+1006414282+1006341574+1006680600+1007546238+1008674940
3716+1009445781+1009263042+1008233500+1007529688+1008239732+1009746514
3707+1010773702+1010784989+1010045031+1009283538+1009112156+1009432693
3699+1009786261+1010042400+1010360860+1010875216+1011522315+1012141300
3690+1012770050+1013506129+1013925895+1013581053+1012627681+1011402035
3682+1010117393+1009005310+1008354748+1008391172+1009235967+1010323467
3673+1010491665+1009667989+1009143801+1010427543+1013083870+1015262126
3665+1015877303+1014962570+1013376155+1012019567+1011178719+1010985662
3656+1011640240+1012428669+1012000040+1010022111+1007676835+1006865555
3648+1007838108+1009210900+1010495750+1011687258+1012526513+1012799756
3639+1012602545+1012064438+1011105734+1009650540+1007814841+1005755826
3631+1003737181+1002754380+1003866670+1005945143+1007358652+1007897590
3622+1008043213+1008312370+1008982320+1009825454+1010306710+1010308510
3614+1010231579+1010387104+1010593456+1010830898+1011658036+1012992466
3605+1013586731+1012765341+1011273239+1010222438+1009877526+1009765626
3597+1009589396+1009465169+1009574647+1009788961+1009694718+1009136946
3588+1008714825+1009394193+1011085445+1012695957+1013523510+1013671695
3580+1013718574+1013921602+1013834768+1013217168+1012725317+1012908056
3571+1013218968+1012825861+1011870620+1011376830+1011701522+1012136315
3563+1012395708+1012839434+1013696416+1014711278+1015362393+1015300419
3554+1014727828+1014349262+1014540519+1014731844+1014276416+1013455580
3546+1013048209+1013252968+1013808317+1014697360+1015797532+1016490541
3537+1016294161+1015463492+1014549797+1013821196+1013387027+1013313419
3529+1013438407+1013477115+1013434045+1013684367+1014596261+1016015102
3520+1017202870+1017529154+1017141657+1016675911+1016349834+1015759032
3512+1014686488+1013718020+1013638942+1014318240+1014818955+1014613988
3503+1014123661+1013987316+1014201700+1014308269+1014040012+1013548369
3495+1013224231+1013334054+1013790520+1014320595+1014808429+1015395493
3486+1016190362+1016919309+1017076220+1016493311+1015514664+1014523346
3478+1013737063+1013490272+1014029141+1014953914+1015536754+1015590904
3469+1015415228+1015095106+1014478821+1013691915+1013156162+1013094880
3461+1013347419+1013725430+1014313393+1015224318+1016183784+1016685329
3452+1016601888+1016330169+1016215983+1016122640+1015728702+1015020321
3444+1014276485+1013806724+1013863505+1014450153+1015120727+1015314406
3435+1014932033+1014327450+1013832553+1013570805+1013575236+1013819396
3427+1014183766+1014460332+1014402305+1013942584+1013383495+1013117454
3418+1013228662+1013599611+1014143119+1014681502+1014911605+1014736276
3410+1014417677+1014297882+1014504026+1014940550+1015432955+1015811520
3401+1015911095+1015625596+1014992969+1014156414+1013264047+1012460522
3393+1011897002+1011677632+1011821317+1012236167+1012668259+1012853975
3384+1012846912+1013066005+1013822512+1014792364+1015180555+1014636147
3376+1013774871+1013421788+1013659300+1013986347+1014051922+1013920425
3367+1013940437+1014368443+1014884461+1014891662+1014563577+1014812446
3359+1015858814+1016706102+1016482370+1015516603+1014627075+1014083429
3350+1013767808+1013726330+1014043751+1014574518+1015108609+1015505870
3342+1015603922+1015330194+1014823525+1014216173+1013571635+1013138159
3333+1013257815+1013951793+1014875251+1015612162+1015939762+1015996751
3325+1016170211+1016596279+1016882678+1016528488+1015565144+1014633238
3316+1014379523+1014894502+1015820452+1016743980+1017277101+1017134594
3308+1016484101+1015945302+1016023411+1016725837+1017626306+1018155480
3299+1018016158+1017387894+1016609920+1015869478+1015316276+1015127166
3291+1015299242+1015651147+1016037883+1016346718+1016375109+1016006446
3282+1015543470+1015565975+1016254829+1017036888+1017198992+1016743287
3274+1016342148+1016541160+1017269969+1018024329+1018256440+1017686342
3265+1016595725+1015839910+1016161971+1017318787+1018268419+1018349021
3257+1017838405+1017264360+1016720852+1016078669+1015480595+1015372573
3248+1016050763+1017203354+1018034300+1018055905+1017713694+1017886531
3240+1018696080+1019237095+1018794339+1017855439+1017343715+1017382700
3231+1017485945+1017428056+1017315117+1017280702+1017508104+1018067192
3223+1018572684+1018551841+1018181793+1018136507+1018679530+1019403007
3214+1019906907+1020289072+1020809245+1021394369+1021725224+1021687278
3206+1021548233+1021639983+1021905955+1021913503+1021438063+1020859517
3197+1020794011+1021420959+1022258553+1022589893+1022179405+1021480372
3189+1020937072+1020424794+1019805393+1019490741+1019807124+1020343084
3180+1020560446+1020577411+1020822955+1021269589+1021483073+1021254840
3172+1020849961+1020679825+1020925508+1021449835+1021953111+1022233625
3163+1022274964+1021955050+1020846499+1018583763+1015209153+1010989055
3155+1006387484+1002333783+999761728+998646806+998023250+996873013+994602592
3145+991158805+987314502+984491363+983895436+985921491+990149552+995454588
3135+1000389231+1003997891+1006282992+1007854380+1009323701+1010955402
3126+1012551026+1013672526+1014132039+1014192283+1014242070+1014423147
3118+1014625414+1014750540+1014834604+1014883215+1014746593+1014301968
3109+1013673703+1013191893+1013117039+1013363137+1013567273+1013543868
3101+1013456203+1013306771+1012694433+1011437835+1009916304+1008349971
3092+1006293448+1003392893+1000295472+998356737+998474869+1000289379+1002423871
3082+1003503755+1003060722+1001652822+1000242499+999463418+999418824+999961016
3072+1000827693+1001522433+1001487810+1000585126+999219882+998062166+997716354
3063+998317890+999300137+999928609+1000051035+999925147+999567148+998873654
3053+998130650+997799795+997938701+998194010+998280774+998259308+998292754
3043+998245667+997777013+996808269+995450226+993502834+990753719+987886055
3033+986323738+986903253+989117448+991784923+994129437+996111243+997950127
3023+999592146+1000805050+1001549993+1001866376+1001637034+1000965076
3014+1000462977+1000626050+1001173921+1001422858+1001023519+1000022368
3006+998450356+996172595+993206394+990109182+987788626+986771479+986904569
2996+987854825+989448372+991405665+993282149+994844397+996149259+997275676
2986+998249337+999081806+999705223+1000013366+999997578+999764498+999587021
2976+999886023+1000769181+1001648875+1001785151+1001100936+1000027354+998722630
2966+996886654+994255949+990981744+987537127+984492610+982428193+981773339
2956+982480751+983995496+985714931+987337215+988735559+989845010+990797828
2946+991853684+993022478+993934788+994220841+993921978+993426734+993122261
2936+993232431+993754542+994239191+993879599+992245267+989817243+987532210
2927+985944619+984928649+984098880+983471308+983547616+984575773+986016772
2917+987103096+987697084+988303467+989415965+991007434+992578546+993703162
2907+994477603+995304602+996391965+997645862+998840970+999746771+1000312091
2897+1000797087+1001538013+1002585975+1003713638+1004711119+1005577173
2888+1006456660+1007448671+1008457301+1009223087+1009540716+1009474795
2880+1009284993+1009091659+1008745709+1008122153+1007382819+1006847135
2871+1006738143+1007052033+1007510230+1007677597+1007310388+1006573893
2863+1005845014+1005368398+1005146189+1005048968+1004957495+1004862144
2854+1004874400+1005079436+1005346031+1005409530+1005213149+1005025909
2846+1005150828+1005623013+1006200867+1006584695+1006738212+1006971016
2837+1007514108+1008143550+1008518860+1008699799+1008957323+1009292679
2829+1009533030+1009710091+1010025366+1010556963+1011204062+1011822910
2820+1012295649+1012540154+1012553173+1012459345+1012470701+1012742975
2812+1013242373+1013800423+1014313809+1014812515+1015305404+1015699065
2803+1015903201+1015861584+1015497491+1014861818+1014295459+1014187851
2795+1014588990+1015177716+1015517434+1015368556+1014956199+1014852193
2786+1015372711+1016207673+1016767246+1016709149+1016054848+1015044210
2778+1014009129+1013252206+1012910202+1012907987+1013095711+1013453156
2769+1014078166+1014986390+1016072852+1017227590+1018295494+1019019387
2761+1019260569+1019198802+1019148876+1019250321+1019399891+1019407369
2752+1019199633+1018904855+1018708405+1018644976+1018615478+1018592835
2744+1018663534+1018828062+1018934907+1018957551+1019168473+1019806639
2735+1020694713+1021403440+1021689563+1021585002+1021221255+1020783139
2727+1020482267+1020332697+1020046229+1019358898+1018399709+1017569802
2718+1017124830+1017036403+1017162569+1017375499+1017592930+1017852392
2710+1018315783+1019089463+1020049760+1020899887+1021386129+1021441525
2701+1021138230+1020573187+1019860166+1019196240+1018790531+1018669905
2693+1018659241+1018633828+1018676345+1018881104+1019159194+1019421357
2684+1019787527+1020375352+1020986513+1021271528+1021164890+1020931809
2676+1020781339+1020664799+1020499579+1020350839+1020300083+1020339414
2667+1020429018+1020473819+1020317879+1019986539+1019744941+1019709072
2659+1019661016+1019419210+1019131011+1019089533+1019446978+1020086599
2650+1020679271+1020986929+1021124312+1021369302+1021800286+1022276695
2642+1022649444+1022868537+1022950039+1022909738+1022743549+1022496896
2633+1022324821+1022412694+1022802615+1023341345+1023871419+1024432931
2625+1025046377+1025373770+1025035436+1024269996+1023739991+1023685080
2616+1023811660+1023932355+1024094736+1024183370+1024006517+1023716656
2608+1023635777+1023760904+1023872043+1023977988+1024213423+1024399624
2599+1024148055+1023470973+1022957032+1023149535+1023905904+1024603968
2591+1024865092+1024786983+1024573153+1024295479+1024023067+1023919060
2582+1024164120+1024774519+1025457903+1025834737+1025872060+1025795406
2574+1025633856+1025356112+1025242965+1025475353+1025721867+1025884594
2565+1026691027+1028621384+1030759477+1031645404+1030934391+1029465210
2557+1028126002+1027336880+1027199081+1027507293+1027851928+1027977193
2548+1027798470+1027189595+1026252841+1025606158+1025817564+1026712839
2540+1027650700+1028212420+1028380825+1028396405+1028585099+1029018091
2531+1029404274+1029546227+1029618796+1029792602+1029985313+1030118818
2523+1030143608+1029821270+1029069610+1028440515+1028592439+1029341883
2514+1029829510+1029616511+1029143010+1029096062+1029647187+1030361454
2506+1030747636+1030817990+1030968529+1031310048+1031470906+1031204103
2497+1030818267+1030779558+1031191985+1031812840+1032292157+1032347623
2489+1032016699+1031710703+1031759729+1032063647+1032390901+1032653550
2480+1032657704+1032101178+1031151130+1030479241+1030419482+1030610253
2472+1030726170+1031031127+1031861035+1032924576+1033514133+1033378619
2463+1033126566+1033509770+1034397290+1034916562+1034666447+1034140804
2455+1033748459+1033268450+1032637762+1032358010+1032606255+1032729581
2446+1032107895+1030914102+1029730351+1028932365+1028605250+1028616052
2438+1028628378+1028364552+1027993189+1028038960+1028743810+1029691850
2429+1030252808+1030211330+1029779030+1029263636+1028923087+1028884378
2421+1029085260+1029467218+1030078932+1030816536+1031330960+1031400691
2412+1031187276+1031060972+1031291767+1031833060+1032398657+1032848891
2404+1033276067+1033598681+1033479718+1032856162+1032154566+1031802799
2395+1031816925+1031972866+1032165299+1032469218+1032849584+1032833380
2387+1031572766+1028469459+1023799889+1018484604+1013117316+1007502613
2378+1001302717+994719686+988155351+981534442+974412472+966608366+958487392
2368+950599498+943096678+935931985+929920506+926711738+926962545+929426993
2359+932577732+936213191+940954430+947257017+955022139+963047416+969164010
2349+971512886+969483162+964188720+958492793+955156129+954572389+955377922
2339+956404071+957547730+959235589+961295920+962902762+963826012+964817469
2329+966294822+967661590+968437001+969138943+970764065+973912451+978423449
2319+983451365+987845477+990843876+992563035+993768737+995242489+997409043
2309+1000387499+1004093380+1008143203+1011843129+1014596677+1016362506
2300+1017605532+1018905478+1020635023+1022649513+1024197219+1024640114
2292+1024394777+1024591088+1025709195+1027170968+1028356104+1029311900
2283+1030256270+1031072536+1031583014+1031767415+1031460519+1030345043
2275+1028529564+1026769967+1025844431+1025879539+1026432949+1027074024
2266+1027706720+1028418425+1029209901+1029868426+1030080110+1029810121
2258+1029445959+1029250687+1028991293+1028546253+1028291083+1028393635
2249+1028620968+1029217311+1030698610+1032442628+1033009956+1032338621
2241+1032090791+1033202459+1034469513+1034369730+1033176215+1032261274
2232+1032330935+1033371695+1035221865+1037132418+1037892457+1037285935
2224+1036386436+1036056204+1036135698+1036067353+1035490538+1034442022
2215+1033456936+1033245183+1034128271+1035808375+1037631470+1039162142
2207+1040412993+1041241585+1041021384+1039549848+1037683127+1036419882
2198+1035836835+1035237099+1034106597+1032848129+1032339036+1032658189
2190+1032933371+1032508896+1031506152+1030563582+1030784890+1033051850
2181+1036558373+1039215669+1040025911+1039682037+1038718625+1036667711
2173+1033538576+1030803794+1029950967+1030736972+1031757651+1032279001
2164+1032661097+1033694863+1036240120+1040183652+1043250951+1043127832
2156+1040720027+1038702283+1038523283+1039912971+1041767920+1043229969
2147+1044249678+1044841174+1044318578+1042196272+1039017281+1035541087
2139+1032349285+1030779697+1032492069+1037182067+1042140807+1044898163
2130+1045189548+1044132723+1042778419+1041657958+1040897988+1040507721
2122+1040591923+1041010235+1041086890+1040421995+1039765963+1040134141
2113+1041238122+1041775260+1041229467+1040496364+1040536873+1041075603
2105+1041121444+1040547121+1040312171+1040875968+1041395587+1041107248
2096+1040592685+1040886355+1041995322+1043015516+1043242018+1042683276
2088+1041819369+1041209870+1041145957+1041381114+1041373774+1041157382
2079+1041641962+1043419079+1045625240+1046836206+1046814740+1046433612
2071+1046245680+1046118199+1045992657+1046146382+1046746394+1047611825
2062+1048435638+1048930813+1048684922+1047394255+1045635696+1044682601
2054+1044674084+1043789196+1040630008+1036777119+1035479182+1037923132
2045+1042184085+1045909839+1048610276+1050900155+1052338523+1051220554
2037+1047119281+1042524704+1040512014+1041432841+1043392904+1045039008
2028+1046147975+1046707825+1047310814+1049165278+1052015700+1053283170
2020+1050945026+1046289513+1042504900+1041615233+1043662061+1047143102
2011+1049375161+1048629803+1046546829+1046048538+1047017560+1046898042
2003+1045020035+1043334738+1043412985+1044768050+1045827022+1045555579
1994+1044309576+1043487493+1044150450+1045762762+1046626461+1045479063
1986+1042377765+1038396425+1034814148+1032637346+1032738029+1035716209
1977+1040666847+1044684956+1045579954+1044278138+1042763808+1041302313
1969+1039360184+1037583345+1036946978+1037074113+1037133180+1037246673
1960+1037875561+1038819792+1039499437+1039453319+1038369212+1036642021
1952+1035962654+1038055668+1042413149+1046307655+1047652126+1046964795
1943+1046037528+1045819336+1046205587+1046903443+1047636130+1048021897
1935+1047880982+1047425693+1046978575+1046777278+1046953092+1047284224
1926+1047182710+1046443168+1045717545+1045612499+1045717822+1045511124
1918+1045526566+1046405776+1047328057+1046913276+1045164827+1043553830
1909+1043307940+1044084251+1044821923+1045242036+1045701272+1046200532
1901+1046358066+1046085100+1045696009+1045422005+1045087480+1044220180
1892+1042474985+1039948009+1037189476+1035046328+1034262954+1035009005
1884+1036669650+1038234045+1039322861+1040479330+1042159988+1044041042
1875+1045545470+1046547660+1047302436+1047927653+1048178876+1047883198
1867+1047561068+1047931531+1048970906+1050002664+1050404773+1050165876
1858+1049775954+1049661630+1049917631+1050420907+1050890184+1050910611
1850+1050247585+1049204679+1048449349+1048430445+1049061687+1049869367
1841+1050478935+1050803627+1050822185+1050462108+1049629431+1048307257
1833+1046617667+1044875658+1043743563+1043904213+1045193564+1046745563
1824+1047818730+1048175552+1048002092+1047648109+1047512388+1047802250
1816+1048225201+1048289669+1047876689+1047241777+1046677564+1046396497
1807+1046543228+1047027323+1047475273+1047613002+1047625397+1047880082
1799+1048322076+1048514232+1048102845+1046926363+1045112754+1043384594
1790+1042519372+1042343973+1042337949+1042419451+1042732371+1043261130
1782+1043869659+1044478119+1045033261+1045446310+1045576353+1045251661
1773+1044449313+1043581044+1043258429+1043579936+1044132100+1044341567
1765+1043821880+1042731679+1041752963+1041461093+1041656157+1041873658
1756+1041980711+1041914859+1041423077+1040189053+1038160506+1035980796
1748+1034473529+1033478956+1032210448+1030332302+1028200094+1026346738
1740+1025084878+1024412850+1024139607+1024307043+1025323844+1027081779
1731+1028868175+1030534983+1032104779+1033300441+1034012700+1034522970
1723+1034958386+1034996194+1034448808+1034010692+1035029017+1037413416
1714+1039740688+1041599099+1043213073+1044425839+1044888953+1044828155
1706+1045060474+1045838586+1046555208+1046845554+1046974281+1047175509
1697+1047474095+1048132205+1049003728+1049375438+1048937738+1047962207
1689+1046833159+1045663187+1044746792+1045385720+1048221116+1051413541
1680+1053723433+1055127108+1055790965+1056012551+1056145433+1056141278
1672+1055896772+1056105478+1057607621+1059601822+1060771933+1061072320
1663+1061337184+1062166745+1063100520+1063344541+1062627850+1061055701
1655+1058918715+1057154478+1056472064+1055770538+1054584916+1053929300
1646+1055104950+1057189447+1058397504+1058497148+1058048368+1057600419
1638+1057683514+1059090998+1061938858+1064752787+1066612721+1067721619
1629+1068524244+1069297370+1070055469+1070847153+1071892899+1073067926
1621+1073741823+1073395388+1071894007+1069647821+1067163916+1063869907
1612+1058442514+1049284588+1034354704+1011654366+980805079+944805519+910961987
1602+888996344+884922562+896454292+916134695+937128478+955239293+968103376
1592+974399039+973731097+966875653+956024814+944356877+934447846+926328395
1582+917656504+906728940+894370834+882849698+875375199+874389213+877310819
1572+880559264+883987263+889033183+895803177+903210784+910822665+917948720
1562+923469525+928016046+935927761+950013127+961803905+967526769+969816302
1553+969943783+968640652+967381007+967363142+968423360+970012336+972153061
1543+975067950+979598891+986934899+994227142+998099420+999025994+998939645
1533+999785964+1001899890+1004298485+1006790493+1009800941+1012958605
1524+1015300696+1016980730+1019140497+1021831862+1024150894+1026240585
1516+1028619999+1030843403+1032065794+1031832298+1030023675+1027331271
1507+1026903334+1031365168+1036255770+1037647466+1033876910+1021363693
1499+995757260+961564108+937842399+936926212+951718921+971373287+989581323
1489+1003396009+1012700042+1018902362+1023058546+1025934935+1028297800
1480+1030475571+1032044605+1032338967+1031051209+1028248497+1024068077
1472+1018257963+1009719854+996849677+978375323+955480821+935150895+925663707
1462+926125990+929518951+929653287+923949674+918815466+921572198+928611212
1452+933495305+930416927+913188091+878261144+831609410+787151650+756456781
1442+743995845+747159118+760061425+779239175+802021845+821787905+834542719
1432+842552831+848681543+853726909+857526686+860719666+864651910+869885831
1422+875531487+880787151+886322429+893120745+900650639+908025008+915152656
1412+922119030+928741670+934534957+939088887+942598942+945626286+948318828
1402+950510933+952472796+954759560+957444277+960121101+962793077+965814743
1392+968892013+971234242+972512307+973178241+974133344+975842184+977971622
1383+980092266+982101562+984002213+985575055+986439378+986311481+984624522
1373+979564130+968629296+951591232+933171166+920625889+916676403+918142122
1363+921343550+925634140+931793527+939642920+948383919+957292491+965510478
1353+971872132+975157000+974196288+967881306+956051058+941210154+928681496
1343+923645686+927983432+939595764+953604545+965403633+973432372+978505366
1333+981905598+984622168+987291236+990118599+992685184+993959716+992890497
1323+989402393+984988892+982204115+983102645+987651797+993925163+1000006788
1313+1005183928+1009538777+1013120986+1015682238+1016854496+1016288760
1305+1013492903+1007596303+997886283+985369673+973727427+967673015+969556839
1295+977692909+988250840+998259862+1006551734+1012863115+1017030241+1018745105
1285+1017460394+1012882366+1006193319+1000415890+998639189+1001665287
1276+1007664856+1013996387+1019112868+1022947130+1025991924+1028335885
1268+1029563954+1029291680+1027456259+1023961923+1018282546+1009941648
1259+999585913+989059004+979941103+972215797+964578088+955940542+946437081
1249+936861536+927641151+919312441+914054907+915368494+925055386+940918561
1239+958116236+972282827+980815604+981817517+972848909+951291053+916793705
1230+874522510+835774735+813380047+814355785+835877426+868006578+900382105
1220+927033037+946559161+959547056+965945963+963564680+949307031+924428229
1210+898859535+886087479+890439697+900847296+900093490+881123684+853756892
1200+835616093+837226744+855647225+880399792+902886022+920138470+932848205
1190+942545069+950292186+956436201+960822904+963128225+962972631+960141390
1180+955372867+950966776+949837105+953399232+960536920+968713360+975575104
1170+979218734+977854459+970788855+960372947+951999642+950654964+956938854
1160+966750942+974794846+978428088+979040080+980351867+984953646+992112039
1150+998979184+1003455837+1005325050+1005103949+1002580574+996344601+984592808
1140+967305668+948476015+935333496+933602774+942995718+957967150+972590831
1130+983975069+991953120+997377467+1001151208+1004014163+1006523828+1008976989
1120+1011337706+1013379341+1014927878+1015947379+1016560479+1017019992
1112+1017470850+1017842906+1018184494+1018850012+1020043874+1021319376
1103+1021517557+1018663050+1009836048+992553825+968102822+943386609+927491650
1094+925290543+934790542+950309705+966883963+981833790+994040387+1003007126
1084+1008576265+1011121453+1011562546+1010848348+1009324463+1006388592
1075+1000736704+991870441+982190889+976776445+979627836+990004413+1003141739
1065+1014466080+1022540036+1028319197+1032970001+1037005837+1040574820
1057+1043500304+1044932785+1043114052+1034855349+1014350717+973726180+909114655
1047+829490498+757049107+714152002+708974932+733928033+774504652+817286601
1037+852972825+876812944+887812454+887744662+881448515+876544825+879669044
1027+891837487+908530847+924434184+937025856+945829868+950543548+951519424
1017+950980694+952046106+956408988+963381941+971028860+977834308+983096274
1007+986205674+986786644+985904802+985888253+987575627+987169849+976780599
997+951603558+919040929+897164128+899233599+921184147+947550688+966911800
987+978180259+985308183+991118989+996079252+999772184+1002125354+1003588857
977+1004679820+1005537772+1005822094+1005098686+1003522036+1001975299
969+1001404854+1002256920+1004488010+1007712773+1011340476+1014788210
960+1017648949+1019831429+1021621564+1023374375+1025126979+1026698298
952+1027997205+1029009228+1029692473+1030068823+1030200597+1029748978
943+1027578339+1022447039+1014842013+1007859435+1005262175+1008324073
935+1014932102+1021717469+1026684449+1029883245+1032130469+1033580885
926+1033627903+1031863666+1028804192+1025673534+1023455392+1021754792
918+1018368964+1010776610+999291551+988665621+985040688+990518423+1001505122
908+1012550403+1020646864+1025793813+1029046967+1030829554+1030629919
899+1028108967+1024489920+1022271640+1023231175+1027017520+1031793313
891+1035960022+1039156325+1041803027+1044130299+1045993488+1047331796
882+1048251930+1048758253+1048797100+1048417565+1047643054+1046461172
874+1045149385+1044311099+1044392255+1045294524+1046480007+1047323694
866+1047447782+1046867297+1045849665+1044645624+1042670743+1036513155
857+1019433752+987211742+947195458+917641616+913140797+931859103+959867316
847+985195382+1004170312+1017588013+1026615411+1032502525+1036764447+1040450039
837+1043896457+1047013820+1049344555+1050232351+1049434643+1047354301
829+1044199268+1039132782+1030947479+1019574667+1006340397+993048099+981749518
819+975122170+975653560+983660625+996340861+1009288940+1019345326+1026209909
809+1031461904+1036321692+1040533342+1043022787+1042990726+1040159970
800+1034194885+1023946758+1006951765+979389216+936747212+875813593+798555208
790+716082428+647742033+612566980+618350225+657629183+713859925+771794798
781+823365802+866559070+901826912+930235365+953070316+971581509+986928112
771+1000099300+1011434235+1020636269+1027674036+1033256955+1038240346
762+1042953056+1047276192+1051232534+1055178558+1059142032+1062367834
754+1063944969+1063513223+1060818258+1053780768+1036630803+1003683378+960360898
744+927406409+924933098+951886841+988045250+1015067754+1028638557+1032448029
734+1029395202+1019920271+1003627081+979972609+948341818+908468872+860506805
724+804186390+739612812+671777147+613893793+582499266+586360119+617815789
714+653077884+666584566+652210169+627646919+615304601+623462690+646677107
704+676415280+706466375+732270365+749147779+752058306+738992165+716039912
694+696757809+693370111+708305881+734563707+762786443+787118274+806107607
684+820729418+832228049+840617558+843792395+837693666+819369229+792590331
674+769023385+759088179+763294428+778248964+805114072+839847617+867257549
664+881938358+888388507+890108842+887500849+880775726+873347206+871097420
654+877385327+889898059+903358623+914385000+922885786+929968354+936134320
645+941315061+945635495+949575218+953310875+956366679+958322310+959522889
635+960768754+962549956+964784024+967139548+969355058+971265126+972838938
625+973971794+973448090+968857529+959730487+950702951+948756252+956050019
615+967632438+977253823+982679970+984845069+985145456+984843754+985193513
605+986803055+989202550+991328595+992307796+991451021+986777988+973828664
595+948461889+913525040+882132176+869809454+880944200+906256270+932980464
585+953648516+967149450+975421518+980381989+982957783+983319452+980585155
575+972314403+956898415+938266735+925899488+927284121+940695729+957967566
565+972811378+983211568+989040793+991388977+992262371+991816706+986849934
555+974801563+959373942+949375237+950507609+960003868+970914467+979506310
545+985995376+990981467+994494222+996750241+997846397+997939879+998183554
535+1000028461+1003597790+1007756190+1011339784+1013788859+1015203475
527+1016126102+1016996241+1017793880+1018153680+1017539334+1015827031
518+1014242209+1014701999+1017466210+1020829534+1023366066+1024959682
510+1025826220+1025972743+1025968242+1026943912+1028802738+1029337729
501+1026648372+1022065358+1018311490+1015124397+1007774471+989069253+954539221
492+909661833+871520995+857412016+871270188+902409613+935115303+959909348
482+976474396+987999548+996299660+1001295516+1002099456+996549567+979553466
472+946905250+904983053+871005185+861067417+877908061+909088827+938914527
462+959628488+972316688+981775832+991041572+999266622+1004929727+1008528347
452+1010793298+1011301422+1009869702+1007892812+1007245574+1008405436
443+1010355390+1011762527+1011711286+1010172443+1008370952+1008224221
435+1010559941+1013862328+1015524774+1014553398+1013047862+1013964811
426+1017205224+1019315342+1017454854+1012073301+1005387163+1001360052
418+1004612306+1012417451+1017707739+1017738345+1014647157+1012003571
409+1010196125+1006601729+1000771881+996266976+996129247+998965751+1000059691
399+994647670+982800180+971573753+962869732+948652522+925215135+899994746
390+883388982+879139108+885548056+901610105+924820366+947295033+963102189
380+972886925+979836057+986829507+994839619+1000953720
##END=
