##TITLE=X8530
##JCAMP-DX=5.0
##DATA TYPE=LINK
##BLOCKS=1


$$ === CHEMSPECTRA SPECTRUM ORIG ===
##TITLE=X8530
##JCAMP-DX=5.00
##DATA TYPE=INFRARED SPECTRUM
##DATA CLASS=XYDATA
##ORIGIN=ComPlat
##OWNER=
##XUNITS=1/CM
##YUNITS=TRANSMITTANCE
##XFACTOR=1
##YFACTOR=8.6790231e-010
##FIRSTX=3997.453
##LASTX=373.96442
##MAXX=3997.453
##MAXY=0.9319030085253112
##MINX=373.96442
##MINY=0.46436563367226846
##NPOINTS=2559
##XYDATA= (X++(Y..Y))
2559I79373616I78872276I78649214I78825370I79190318I79362009I79183931I78946103
2551I79018832I79349991I79520446I79229119I78603888I78034627I77788558I77878731
2543I78237085I78798723I79424574I79944662I80264215I80303017I79963892I79262840
2535I78397995I77707932I77547984I77971238I78572708I78924058I79066700I79252539
2527I79392433I79231867I78925500I78872413I79025013I79023983I78907919I79057840
2519I79495105I79807172I79765416I79521065I79342230I79377599I79553617I79683348
2511I79750101I79822555I79762738I79407061I78959152I78787186I78899609I79017665
2503I78980167I78899197I79004204I79397927I80017803I80740007I81387422I81719611
2495I81572986I81032020I80404315I79956887I79764317I79856825I80147877I80292578
2487I80026731I79529031I79354112I79853803I80543523I80729087I80367299I79885669
2479I79653748I79678265I79827500I79959634I79834436I79364894I78798723I78439682
2471I78282343I78186677I78455958I79485009I80912317I82030853I82405966I81936904
2463I80884022I79716175I78839242I78378010I78228844I78481643I79480065I80647843
2455I81004481I80578273I79787530I78930033I78194506I77759233I77737463I78080434
2447I78574631I78921929I79064296I79296217I79811017I80417432I80785608I80842747
2439I80725928I80440645I79827569I78962311I78427801I78714869I79262978I79470656
2431I79737396I80536106I81475603I81945626I81813080I81348345I81029960I81023092
2423I80846662I80198835I79523056I79334058I79361460I79250341I79257758I79700791
2415I80481302I81281728I81790760I81748180I81120201I80212776I79512480I79319498
2407I79498470I79750513I80004754I80328084I80558150I80435082I80035659I79826470
2399I80274242I81276852I82128512I82344637I82078790I81720092I81514268I81580335
2391I81981818I82542976I82820841I82466126I81437418I80040741I78926805I78447923
2383I78197528I78083593I78621811I79888828I80905106I81029616I80323895I78892192
2375I77254872I76638086I77604230I79134209I80312975I81037171I81307207I81117110
2367I80745364I80623600I80826883I81073707I81208862I81329390I81435976I81317234
2359I80892332I80475808I80551489I81113608I81551078I81374236I80623943I79835466
2351I79647567I80176583I80943221I81598671I82132220I82543319I82781421I82749143
2343I82348346I81877842I82029823I82712950I83067870I82761299I82013753I81148221
2335I80409329I79858885I79487070I79578066I80286466I80856757I80814864I80866441
2327I81969663I83648533I84724696I84915480I84682460I84479658I84239839I83674836
2319I83022476I82939171I83308995I83198014I82240592I81174043I81300477I82710272
2311I84054343I84671403I84707664I84433232I84004141I83430004I82752576I82217860
2303I82089572I82276716I82314557I81885259I81471825I82018973I83124736I83640841
2295I83309064I82650249I82439341I83027352I83729022I83635347I82874409I82220676
2287I82097882I82281867I82512414I82839796I83317923I83838630I84240182I84343953
2279I84126110I83879698I83844330I83842270I83618590I83300136I83228094I83506578
2271I83904903I83993358I83609456I83287431I83515506I84127072I84690839I84980585
2263I85046652I84953390I84697844I84413316I84364899I84639812I85027698I85272942
2255I85423413I85729573I86014169I85760272I84858959I83920286I83670303I84081470
2247I84599361I85039647I85629237I86221916I86243206I85583841I84868986I84721125
2239I85101800I85616463I86033124I86267655I86377812I86588650I86932308I87053110
2231I86728201I86222741I85895977I85827438I85950643I86228578I86550466I86734656
2223I86770918I86910881I87402812I88145756I88724907I88887876I88837124I88932241
2215I89247742I89508233I89379739I88816796I88118423I87622921I87396356I87408924
2207I87863495I88919330I90167803I90793379I90437016I89629790I89187513I89359273
2199I89746472I89942750I89893990I89650668I89232702I88751553I88304949I87915071
2191I87806356I88321980I89310581I90093563I90248499I89997691I89805877I89936294
2183I90315870I90644557I90754302I90855532I91239846I91854434I92386884I92673266
2175I92841112I93052224I93250150I93303374I93301383I93476852I93856153I94242803
2167I94499516I94593946I94435235I93890354I93079557I92530968I92749154I93593533
2159I94425414I94887677I95104626I95168564I94964182I94431251I93533373I92138000
2151I90312024I88496145I87012660I85706841I84425541I83588784I83818301I85046721
2143I86411258I87060253I86816862I86170890I85867819I86356523I87515236I88959575
2135I90352406I91236275I91150155I90334688I89785686I90199532I91330431I92557614
2127I93559538I94319858I94863777I95113623I94928539I94358385I93819411I93803684
2119I94376516I95102497I95512428I95596763I95793865I96460165I97423219I98159433
2111I98327005I97979913I97423632I97040965I97083819I97430843I97672378I97564899
2103I97266911I97065963I97059576I97167398I97309903I97473491I97636255I97705961
2095I97604045I97424730I97430843I97783978I98343762I98848604I99224952I99572937
2087I99923325A000186563A000318559A000361894A000296789A000007385I99503436
2080I99090895I99125577I99580148A000055322A000265266A000272821A000176193
2073I99882806I99352622I98817150I98588525I98776012I99214719I99602536I99749711
2065I99712694I99575821I99243563I98736936I98510509I98992001I99909796A000581660
2057A000777663A000793871A000826011A000782745A000612221A000383322A000151400
2050A000024486A000130591A000334218A000306747A000018648I99804377I99880402
2043A000170012A000566963A001004021A001334562A001450420A001381468A001153805
2036A000826698A000686666A000966043A001384078A001407359A000888782A000073315
2029I99169599I98285386I97640512I97525273I98040005I98909588I99546153I99454813
2021I98719423I97972427I97786519I98165134I98639415I98752663I98407425I97842353
2013I97394032I97255374I97352345I97440457I97396916I97376519I97608853I98105248
2005I98629800I98891115I98748542I98311140I97859728I97655827I97803482I98198167
1997I98582413I98734875I98638316I98436132I98297199I98321579I98435720I98428715
1989I98250705I98134229I98243288I98427753I98483793I98380847I98116511I97664343
1981I97206545I97096868I97389637I97661871I97553293I97259357I97210459I97433315
1973I97608097I97617231I97614896I97631859I97500618I97163141I96760490I96386545
1965I95964458I95466140I95122620I95226253I95751080I96343691I96709119I96877240
1957I97070565I97393208I97648479I97474796I96718047I95654795I94816940I94591131
1949I94893720I95183192I94955598I94248709I93494569I92972695I92660423I92486122
1941I92420261I92375415I92257017I92065889I91874350I91779782I91830466I91880394
1933I91640849I90988970I90096448I89229131I88595794I88328779I88357486I88334686
1925I87921664I87173569I86483575I86161344I86209692I86525879I87112722I87959710
1917I88856354I89454115I89486531I88960948I88183115I87484125I86884852I86193896
1909I85355148I84444289I83434193I82282485I81173151I80414273I80105915I80046991
1901I79965334I79733756I79293401I78498263I77225615I75597909I73944450I72603332
1893I71794801I71551548I71740959I72206037I72844730I73596259I74486790I75609791
1885I76946170I78296903I79399232I79953934I79668994I78510350I76801743I74925702
1877I73095606I71442559I70086538I69120394I68700917I69042789I70112290I71470578
1869I72680112I73791026I75148558I76773723I78271560I79406512I80428489I81655330
1861I82986902I84007506I84404182I84185928I83601352I82880521I82040125I80946174
1853I79481713I77545305I75046504I72114766I69196831I66758878I64979603I63770893
1845I62942103I62304715I61741635I61213442I60609225I59533405I57302031I53221469
1837I46745807I37153668I23419638I05212490H84353186H64650603H49179259H37220109
1829H24902192H10384836G98088895G95859513H07417523H28868682H52650316H73370618
1821H89596238I01905845I10858880I16596816I19230704I18874478I15414135I08662737
1813H98881325H87068524H74718192H63162036H52890753H43450663H34125263H24796155
1805H16339447H10478373H09096873H13068514H21423100H31861543H42204868H51362079
1797H59239980H66175020H72444719H78002310H82549805H85895252H88121956H89376129
1789H89757628H89571240H89528592H90561901H93364802H97921774I03396335I08652985
1781I13035725I16603753I19688366I22427123I24746128I26529661I27506862I27007994
1773I24088274I17956408I08263177H95419333H81211846H68860484H61521969H60185658
1765H63131956H67494092H71206204H73709194H75453032H77169743H79490946H82799720
1757H87061931H91739637H96083712H99659019I02581487I05293322I08193607I11382402
1749I14637471I17692072I20545863I23353296I26038829I28262168I29809591I30804372
1741I31443889I31686799I31409002I30875521I30847226I32012052I34371233I37344589
1733I40404753I43403520I46314587I48946552I51055338I52596099I53737918I54707563
1725I55680437I56711274I57705301I58511565I59064137I59412809I59700015I60147649
1717I60926443I61956524I62943545I63686902I64246891I64778037I65326901I65853994
1709I66333907I66768836I67201430I67710805I68313031I68911274I69405608I69752220
1701I69891427I69780514I69511576I69268530I69199441I69389607I69840194I70410348
1693I70905713I71256376I71546672I71872406I72232752I72559585I72822548I73053851
1685I73310770I73702708I74351153I75124109I75523944I75085307I73848302I72324298
1677I71062914I70276772I69795898I69369416I68968207I68669188I68315504I67534650
1669I66190785I64739578I63993131I64438362I65857840I67661564I69380953I70762934
1661I71723309I72394143I73006120I73642547I74270527I74911417I75570507I76103988
1653I76355207I76367706I76355276I76513644I76915197I77497506I78086546I78507191
1645I78728536I78827087I78832512I78782584I78868911I79249517I79731765I79941228
1637I79803394I79609726I79621264I79816374I80026250I80142588I80145816I80057773
1629I79975428I80062855I80375196I80739457I80930653I80936079I80949677I81142590
1621I81501700I81857651I82041978I82028244I81902428I81712194I81448269I81200003
1613I81148702I81316548I81514336I81643517I81828395I82134349I82430415I82645441
1605I82858957I83055647I83089161I82961491I82870426I82959568I83193069I83424372
1597I83476910I83282692I83027352I83021721I83360846I83816722I84082569I84040745
1589I83807519I83595514I83569761I83826680I84421008I85279878I86136483I86716045
1581I86979214I87054827I86999748I86806904I86602660I86634801I86990820I87463797
1573I87821671I88098919I88434267I88767967I89002360I89297533I89793241I90205095
1565I90194725I89993571I90099882I90439282I90440656I89966169I89549782I89544906
1557I89616948I89395191I89137104I89274869I89619352I89569904I89035531
1550I88607813I88688439I88918918I88710141I87955865I86960191I86027767
1543I85409883I85351852I85929285I86970286I88204406I89390040I90328644
1536I90888840I91061356I91001607I90937326I90941446I90920775I90915624
1529I91111078I91415247I91434957I91065202I90656438I90432346I90237167
1522I90023788I90067329I90470530I90901133I91060257I91113481I91468265
1515I92313880I93471152I94566407I95316219I95707745I95893172I95956080
1508I95913637I95876483I95970708I96124544I96180584I96160393I96165612
1501I96109229I95823053I95309145I94627117I93747919I92808765I92233323
1494I92274528I92692015I93119802I93473624I93795511I94019466I94087937
1487I94071180I94054079I94061908I94116300I94223436I94326176I94367519
1480I94364154I94371503I94425826I94528292I94637213I94687621I94638380
1473I94476372I94233119I94042816I94045151I94155171I94134294I93970156
1466I93889255I93912056I93785141I93501713I93485779I94011706I94752590
1459I95160117I95086564I94797435I94532962I94279751I93898458I93315599
1452I92601293I91929704I91438116I91131612I90953533I90881697I90928535
1445I91092604I91334414I91616675I92005523I92638859I93467306I94120627
1438I94199811I93684393I92988491I92648474I92895641I93491205I94059299
1431I94522317I94995498I95380226I95447186I95294929I95326109I95702182
1424I96100507I96064451I95420470I94333593I93066096I91710900I90126597
1417I88105306I85571480I82643862I79599561I76740346I74163528I71719944
1410I69286180I66860313I64311516I61440213I58500439I56323732I55661483
1403I56440414I57804882I59078765I60569667I63188857I67287139I71919724
1396I75386729I76384120I74615696I71068202I67799124I66299294I66199712
1389I66443102I66634092I66952545I67509445I67983864I67897812I67259806
1382I66705173I66821168I67592888I68704900I70067926I71817396I73923984
1375I76058730I77972886I79824135I81914035I84152070I85973513I86989035
1368I87605133I88639404I90370537I92342519I94065548I95455015I96499517
1361I96995845I96924146I96746754I96968717I97598688I98309767I98926964
1354I99519163A000172415A000841464A001315058A001346855A000942075A000405710
1347I99999144I99771344I99805476A000316843A001345962A002592101A003651301
1340A004299266A004568615A004673141A004857264A005267607A005910352A006589839
1333A006910353A006619988A005995991A005580359A005529265A005556255A005499116
1326A005569166A006012955A006791199A007645949A008268091A008297347A007480438
1319A006110750A004980332A004480641A004208475A003833020A003644777A003921750
1312A004568066A005534896A006790580A008001900A008949569A009908227A011088161
1305A012200860A012901843A013160274A012977868A012244539A011190283A010578099
1298A010913516A011648700A011822040A011320768A010770531A010482158A010386011
1291A010624456A011355794A012258892A012782689A012674249A012155534A011843330
1284A012332445A013625352A015232936A016790935A018124704A018824726A018325172
1277A016419806A013433469A010060483A007250028A005877936A006047568A006905545
1270A007696838A008829454A011159653A014183831A015917229A015180673A013173116
1263A012022232A012544381A013933710A014988790A015263428A015242756A015630848
1256A016493359A017336708A018048267A019146476A020750900A021940586A021763332
1249A020432790A018896149A017660999A016693895A016037071A015854185A016086037
1242A016447963A016587034A016173875A015155194A013950536A013176344A013139671
1235A013724658A014719303A016059253A017674048A019226484A020177382A020177725
1228A019455452A018770746A018728028A019074846A019010840A018254709A017364728
1221A016916544A016871012A016947517A017215906A017983230A019245370A020605993
1214A021763195A022658944A023080551A022703790A021763263A021048202A020889832
1207A020760584A020220098A019624739A019531340A019987010A020729335A021539515
1200A022184732A022471869A022419538A022091675A021524337A021113719A021551190
1193A022940519A024470223A025274152A025190504A024526813A023564720A022639646
1186A022423933A023672131A026427234A029463361A031079598A030757298A029289265
1179A027537598A026228827A026426135A028639584A031803931A034321892A035583620
1172A035608481A034460070A032914295A032306506A033122935A034622627A035646391
1165A035412959A034297649A033652913A033966010A034068956A033137288A032079805
1158A031898498A032346064A032930297A033690960A034448738A034532249A033757507
1151A032797819A032324843A032385485A032774881A033617682A035080151A036543789
1144A036744874A035347578A033855028A034006048A035899807A038289069A040000148
1137A040809091A041184958A041274650A040418664A038312694A036262008A035940052
1130A037251639A038607866A038903245A038567622A038728462A039550660A040060172
1123A039911555A040092381A041448745A043592557A045668103A047128307A047446073
1116A046248627A044121024A042436934A042041837A042563986A043207555A043765896
1109A044493526A045277127A045607874A045410703A045157217A045188190A045495450
1102A046104475A047030098A047750998A047486661A046195609A044546476A042635684
1095A039363859A033643641A026018470A018570279A013663880A012546579A014627070
1088A018512590A023084809A027543230A031438777A034712182A037397852A039467561
1081A040944796A041977144A042836083A043778327A044796390A045623668A046083940
1074A046332000A046620236A046925092A047000568A046812050A046691386A046946176
1067A047553827A048153787A048251033A047571614A046254877A044631635A042934703
1060A041313796A039964505A039188939A039375809A040679155A042678127A044816238
1053A046811295A048451225A049609526A050402261A050982442A051408374A051861709
1046A052635214A053802581A055110116A056196169A056806292A056781981A055849008
1039A053794408A051322322A049835266A050092735A051979696A054742970A057321505
1032A059073996A060008548A060372123A060496290A060745106A061120630A061288544
1025A061051541A060545875A060161560A060350215A061304340A062718049A064051132
1018A064950865A065274744A065020778A064391906A063716059A063221999A062927925
1011A062661391A062225981A061564624A060694903A059596350A058252348A056577462
1004A054227895A050704370A046079614A041579025A038316746A036327045A035354309
997A035291882A035799883A036211256A036037642A035145188A033494682A031044092
990A027645970A022889492A016887906A011206903A007273652A005255039A004894212
983A005628503A006662361A007575006A008442117A009256485A009687981A009398303
976A008277843A006323991A003259569I98644909I92770512I86552457I80012309
969I72579364I64335347I55638888I46300371I36508519I27226386I17547714
962I03083925H79928417H52716520H27442198H02565722G76671662G50758579
955G24256112F95778574F66827784F39628661F12620460E82649959E53972571
948E37662479E35043666E40179513E49576165E61683691E75474174E90895624
941F07302482F22103816F34420978F46540419F59460219F70659324F79927928
934F89428591F98896083G07242084G14946371G22538852G29471351G35130446
927G39776904G43809529G46812486G48654738G50243366G52553100G56379559
920G62341518G69946497G77501070G84194436G89958744G93540026G93788842
913G91601902G88710889G87571749G90786367G98085942H06768803H14757274
906H21593625H28616089H37570153H45459319H49407952H51066632H52260576
899H54168070H56914725H59810065H62275077H63844064H63854709H60808281
892H53237982H44773101H41836967H45014088H52516534H63115268H74781168
885H85076900H93420361I00708811I07198963I12437551I16548056I19875853
878I21674701I20232147I14495173I03673583H87069349H65684737H42659920
871H20812084H00458721G80344903G60192900G42120152G29580959G25116975
864G29003250G39259425G52737841G66752346G79987097G92133048H03159500
857H12991528H21483192H28483131H33970947H38141613H41375391H44364063
850H48232757H53310230H58238674H62416070H66679450H71716678H76875395
843H81299546H85014336H87988586H89937424H91112688H93029248H97298808
836I01634710I03999866I04720971I04371063I03765610I03907839I05225607
829I07220390I09105359I10365988I11070404I12453827I16113470I20587000
822I23689263I25732188I27830741I30514762I33222135I35366152I37026822
815I38463332I39792157I41097907I42711946I45029097I47796285I50481270
808I53128000I55820538I58234866I60107611I61378816I61844100I60867106
801I57444467I52437868I48697050I46879796I46515467I46981781I46320356
794I39507561I20710206H89494459H49178504H04309010G67354366G57543216
787G76244562H04888641H30713063H51612955H68835005H82924024H93862639
780I02195386I08562401I12492218I11020682H99391043H77606802H51530474
773H27588205H11855890H07475829H09382500H10043581H07422605H02680686
766G97983339G96388941G98025919H00699433H03361341H05707954H07714824
759H09697794H12153054H15522744H19914961H24689844H28538347H29963800
752H27179030H19134725H08161291G96975989G84869322G70536019G55922584
745G45951624G44467795G52375571G67222438G84416467H01509955H18805558
738H35008377H47387691H56419704H64428160H72850736H81867915H90853090
731H99144150I06708131I13896656I20616737I26444983I31469094I36119810
724I40428927I44091661I46820803I47752402I45004374I35160465I11948298
717H70064042H18571713G82078302G74131792G84222937G91049879G80328008
710G56624872G38929983G43733985G70894374H04492926H30972867H49073154
703H62268965H72525964H80609414H87276752H93123472H98178350I02103222
696I04852143I06757372I08049798I08648727I08411862I07368182I05789649
689I04076097I02496396I01343658I01286725I03064764I06945065I12554095
682I18752509I24083535I27946049I30844205I33626915I36861106I40591691
675I44449809I48079852I51387939I54355115I56877884I58856390I60290428
668I61332940I62217564I63012497I63665268I64347846I65416592I67001993
661I68900148I70768566I72339201I73618236I74867670I76294222I77834159
654I79268334I80460905I81436320I82231802I82823039I83312017I83975434
647I84960875I86108119I87164572I88072203I88941650I89652522I89293275
640I85274453I72415432I45477831I07237010H73473702H63367242H81724312
633I14521201I43172835I57727140I55543908I34230239H91075877H29782425
626G65252447G17068549F96111244F99114955G15403620G36201390G57816137
619G79315439G99900174H18474948H34404022H47900362H59647370H70156206
612H79466566H87414449H94067502H99758120I04791296I09325055I13406716
605I16960322I19892129I22253851I24145688I25501915I26096380I25761513
598I24690019I23616946I23562072I25299044I29037802I34409966I40651028
591I46953555I52740526I57657296I61477229I64001441I64934070I64049308
584I61646998I58619318I55878776I53720062I51564507I48092489I41693540
577I31077225I15824547H96720207H75553987H54196640H33506418H12966598
570G91258588G67234663G40855334G14054055F91006300F76623069F73484477
563F79944685F91589228G04604213G17701885G31268963G45488605G59597336
556G72444269G83299923G92301306H00366900H08558173H17345629H26440069
549H35202663H43136811H50162984H56557332H62595179H68319174H73714139
542H78907881H84024293H88979041H93570763H97707228I01448596I04843628
535I07760051I09900978I11034006I11200066I10579503I09019650I05627984
528H98635050H85282450H62136076H27202792G83552859G40661597G10204796
521F98964622G05259663G21569550G39938224G55875747G69424830G83530676
514H00660905H20433331H40381365H58346977H73663730H86708178H98106583
507I08122595I16145130I20736578I20952360I18283447I16694817I19413452
500I25445806I29854436I27022416I13023500H86294195H48430202H04589967
493G61406142G23511383F92379696F68405837F52940605F47601405F52331031
486F64998855F82642305G02641365G23100627G42764133G60748700G76256374
479G88327124G95655062G96943918G92193003G83892946G76540146G74520983
472G80099452G92847011H10332161H29105960H45310496H54744611H52874957
465H36061053H04592920G65263985G29677037G07986539G03177936G11041277
458G24940407G40126743G54652752G68147513G80617824G92030033H02351794
451H11548905H19513751H26219479H31900002H36803104H40785665H43343322
444H43842738H41408974H34718561H22618555H05847711G88388658G76241815
437G73781198G81006122G94287365H09346719H23437593H35531350H45520783
430H53607600H60063207H65130997H69074480H72274401H75084857H77606389
423H79750269H81458121H82766137H83737362H84241037H83728915H81724792
416H78956092H77467594H78877389H82678025H86801166H89703168H91389798
409H92630030H93922800H95339050H96842039H98504908I00450449I02543165
402I04339060I05580116I06533005I07684782I09274990I11088604I12585961
395I13336391I13234544I12177472I09220117I00833871H80714833H46405134
388H08753971G88727165G98774494H30551398H64968645H90135350I05870275
381I16136751I22864250I24376304I15320186H90467058H53170954H18516909
374H02966656H10266643H30369061H51086548H66998796H78343840H86609970
367H92816556H97579490I01298538I04341189I06991971I09265856I10982842
360I11934700I11998913I11112572I08865540I04046085H94017436H73524591
353H36380743G84155359G34176252G11615072G28302817G72311311H20667657
346H58224802H82678368H97849526I07645911I14471823I19427532I22831903
339I24470322I23398554I18503830I10126581I00805576H93842242H91080478
332H92130888H95183223H97704481H96081720H84561276H55031336H01623821
325G30870775F66403293F36151561F50900083F97443090G52378799G98963493
318H32073342H53632804H67379608H76615728H83680155H89701039H94719243
311H98389806I00664721I01916696I02586912I02872126I03044299I04038393
304I07063258I12361182I18846252I25008542I29804989I32954296I34909383
297I36473975I38142956I39761940I40860080I41291781I41423572I41565664
290I41355857I39700405I34404541I21225556H95784281H60712065H30294204
283H21669650H38773301H68953609H96393855I14502384I25316282I32857118
276I39413886I45271251I49802470I52514855I53177035I51104511I43118856
269I22657121H86989478H48401359H29828370H41585954H67489560H80945381
262H71925249H53743717H46170466H56633975H77669915H98220655I13181251
255I23008539I29230784I32653492I33589143I31606104I24920429I09730454
248H80206214H32253137G71843211G19148559F97302578G13719668G55820805
241H03806297H44333570H74178393H95681404I11645777I23688576I32835760
234I40114457I46325918I51672947I55973275I59095729I61088863I62032824
227I61310071I56328127I43217544I21704369H99597142H88760924H94464590
220I10907641I27686107I37512504I37438882I26974137I08375944H87334578
213H70463809H60791867H56487968H55276581H59124535H70477064H84527968
206H97121210I08908119I20759035I32057928I41767573I49380451I55129925
199I59718489I63532173I66513428I68804893I70847956I73050898I75706144
192I78785057I81691797I83711165I84822011I85772016I87202894I88915210
185I90249048I91006414I91657263I92759112I94284352I95396502I95232228
178I93975307I92245754I89440311I84055236I75757171I66097796I57047447
171I49345495I42671152I37421301I35649374I39311833I47806863I58296263
164I68236182I76645709I83383853I88428429I91883828I94021458I95139170
157I95528773I95663586I96185185I97094258I96949007I93090614I81078994
150I53547958I05318801H45807303H01986296G98166912H32650501H81534695
143I22418675I49050460I66091341I78401841I87824006I94670521I99072765
136A001565590A003051204A004556734A006974085A010276609A013189873A014599325
129A014874031A015030545A015402292A015857138A016498853A017200179A015948272
122A008277637I91343067I70282060I57213782I60566371I76826054I95444713
115A009571780A018800002A024745067A028494951A031125954A033607311A036144983
108A038425667A040151168A041079883A041010314A040137708A039207001A038412824
101A035947194A029232745A018399136A007711123A002821206A006363137A016261644
94A028166333A039094028A048169857A054919263A058878199A060775735A062412507
87A064973322A067804175A069286492A068858499A067024077A063049551A054037523
80A036068615A005086163I58962152I02452992H49065461H14699860H07347610
73H22118932H47580054H74891669H99711282I20428975I37387444I51486696
66I62513423I68811692I67878308I58128418I41778287I26058677I20137511
59I27170277I41921821I58874658I75876050I91768313A004878553A013210133
52A016006441A015458676A014711199A012982813A004352147I83273009I51794230
45I22586796I11340716I21688848I43418148I64656204I79836771I89405491
38I96128733A001891324A007164800A012580161A019193794A026160974A030231235
31A030807088A029959618A028783324A028122243A029078153A031495916A033490080
24A033438092A032214274A032916699A038065732A047080920A054989039A053276449
17A039968214A025544052A018302783A018197296A022140161A027694387A033914571
10A041259610A050421559A058816527A060910136A056152216A050990408A052557060
3A062385723A072674244A073741823
##END=


$$ === CHEMSPECTRA PEAK TABLE EDIT ===
##TITLE=X8530
##JCAMP-DX=5.00
##DATA TYPE=INFRAREDPEAKTABLE
##DATA CLASS=PEAKTABLE
##$CSTHRESHOLD=0.93
##MAXX=3997.453
##MAXY=0.9319030085253112
##MINX=373.96442
##MINY=0.46436563367226846
##$CSSOLVENTNAME=- - -
##$CSSOLVENTVALUE=0
##$CSSOLVENTX=0
##NPOINTS=47
##PEAKTABLE= (XY..XY)
392.3793345973713, 0.8836957852341538
434.8752913604376, 0.790954712613454
457.5398016340887, 0.7985894713145504
477.37124812353386, 0.7006988556919791
511.3680135340396, 0.8745948114643941
539.6986513761035, 0.833677772299217
579.3615443549647, 0.6927309066903667
610.525245981235, 0.812052253044654
670.0195854495696, 0.7422965203388021
687.0179681548084, 0.7713576589773344
718.1816697810787, 0.6051905182151552
740.8461800547302, 0.7343933020951765
749.3453714073494, 0.7202099592265347
773.4264135731037, 0.7131289872918916
830.0876892572319, 0.5521174093020059
844.2530081782638, 0.7733708052521042
868.3340503440186, 0.6176123648196163
902.3308157544952, 0.6968966155953754
920.7457303518372, 0.6845381284632511
991.5723249569974, 0.6715664891787674
1024.1525584753713, 0.6102897549954321
1042.5674730727128, 0.6722085502891707
1063.8154514542607, 0.5620547553587456
1110.5610038936666, 0.6066330100420768
1171.4718752541044, 0.5845187333374419
1216.800895801407, 0.8015616565850886
1256.463788780297, 0.6041565566845737
1272.045639593432, 0.749318423710129
1344.2887660906958, 0.7822288305998347
1376.8689996090693, 0.6413190391739607
1383.9516590695853, 0.6718707705212396
1426.4476158326815, 0.6461253190011065
1456.194785566849, 0.6911878015523537
1464.6939769194682, 0.700810137258265
1488.7750190852225, 0.657473507091229
1551.1024223377635, 0.7843802606175592
1597.8479747771694, 0.6293306976227123
1633.2612720797497, 0.7306322483026938
1663.0084418139168, 0.6835353402478402
1714.0035899296322, 0.46436563367226846
1915.1511186083048, 0.8805971778415317
2364.1917284050173, 0.8318847451441141
2833.063784691165, 0.8078844577024921
2874.1432095621576, 0.74655711960707
2903.890379296325, 0.7720239198078476
2926.5548895699767, 0.7022170450904767
2959.13512308835, 0.690728309768175
##END=


$$ === CHEMSPECTRA PEAK TABLE AUTO ===
##TITLE=X8530
##JCAMP-DX=5.00
##DATA TYPE=INFRAREDPEAKTABLE
##DATA CLASS=PEAKTABLE
##$CSTHRESHOLD=0.93
##MAXX=3997.453
##MAXY=0.9319030085253112
##MINX=373.96442
##MINY=0.46436563367226846
##NPOINTS=153
##PEAKTABLE= (XY..XY)
3994.6199362157936, 0.8493719135102844
3987.5372767552776, 0.849629584159198
3977.6215535105553, 0.848624948179769
3960.6231708053165, 0.8484161534494431
3947.8743837763877, 0.849565628437974
3943.624788100078, 0.8495964441773929
3935.125596747459, 0.8499733836975514
3922.3768097185302, 0.8494916597277997
3916.7106821501175, 0.8495888743334451
3901.128831336982, 0.8503397139798723
3892.6296399843627, 0.8499836961127988
3884.1304486317435, 0.8502437508893579
3871.381661602815, 0.8489704765795238
3855.799810789679, 0.8490070734162297
3841.6344918686473, 0.8485806027112396
3821.8030453792026, 0.8491797486561203
3800.555066997654, 0.849966291199874
3797.722003213448, 0.8498936330221878
3783.556684292416, 0.8499536545422404
3772.2244291555903, 0.8503936567121457
3762.308705910868, 0.8518585004951591
3746.7268550977324, 0.8488810097377999
3735.394599960907, 0.8476264508733787
3724.0623448240813, 0.8510854876805161
3712.7300896872557, 0.8509572186623166
3702.8143664425334, 0.8502383863851798
3690.065579413604, 0.8521740472096151
3677.3167923846754, 0.8500990906681317
3671.6506648162626, 0.8512514861479359
3656.0688140031275, 0.8530951771003851
3650.4026864347147, 0.8515632184317393
3634.820835621579, 0.8523578081657114
3629.1547080531664, 0.8518216641174158
3620.655516700547, 0.8526613734887777
3612.156325347928, 0.8523650204339075
3592.3248788584833, 0.8533459340394972
3585.2422193979673, 0.8533974327588656
3572.493432369038, 0.8543325697250167
3558.328113448006, 0.8537297282520999
3545.5793264190775, 0.8546417390932988
3528.5809437138387, 0.8556019107015818
3512.9990929007035, 0.8582140241333565
3501.666837763878, 0.8569635782579824
3490.3345826270524, 0.8585181275558551
3476.1692637060205, 0.8573194182050824
3467.670072353401, 0.8590548070998759
3447.838625863956, 0.8620885648318948
3435.0898388350274, 0.8614199198737361
3412.425328561376, 0.853658977723691
3402.5096053166535, 0.8556369574647619
3391.177350179828, 0.8590372832843347
3375.595499366693, 0.86252451303011
3358.597116661454, 0.8653341566881292
3348.6813934167317, 0.8653503092180206
3338.7656701720093, 0.8656672272181263
3292.0201177326035, 0.8666095773203758
3242.441501508991, 0.8657544887200807
3232.525778264269, 0.8659812247269589
3222.6100550195465, 0.865520242754514
3216.9439274511337, 0.865625384779859
3205.6116723143077, 0.8658677968382604
3195.6959490695854, 0.8664244450786297
3188.6132896090694, 0.866283003039169
3177.281034472244, 0.8653826750309651
3170.198375011728, 0.8654812609222603
3164.532247443315, 0.8658322727288098
3153.1999923064895, 0.8636692206312522
3134.7850777091476, 0.8632079401004127
3114.953631219703, 0.8607679638090965
3103.6213760828773, 0.8577728303335795
3095.1221847302577, 0.8558917084903047
3052.626227967162, 0.8432118327932759
3025.7121220172007, 0.8407377635634183
2959.13512308835, 0.690728309768175
2926.5548895699767, 0.7022170450904767
2903.890379296325, 0.7720239198078476
2874.1432095621576, 0.74655711960707
2833.063784691165, 0.8078844577024921
2776.4025090070363, 0.8411704336946088
2733.9065522439405, 0.8366518652190327
2711.2420419702894, 0.8473809994210876
2698.4932549413606, 0.849487665641369
2689.994063588741, 0.8502055440938671
2680.0783403440187, 0.8505229377044387
2657.413830070367, 0.8515412249193016
2640.415447365129, 0.8530355131560841
2630.4997241204064, 0.8531668224360756
2620.584000875684, 0.853642467618048
2606.418681954652, 0.8562747276661447
2588.0037673573106, 0.8592177071560491
2579.504576004691, 0.8588283097661329
2575.2549803283814, 0.8584743774683102
2568.1723208678654, 0.8580150045867481
2556.8400657310394, 0.8551891485135782
2544.0912787021107, 0.8600367943006231
2539.841683025801, 0.8600179590846915
2528.5094278889756, 0.8592439325601503
2507.2614495074276, 0.8643235000703757
2501.595321939015, 0.8645699062152079
2490.2630668021893, 0.8611615930906762
2477.51427977326, 0.8627418314290225
2469.015088420641, 0.8630109462377957
2456.266301391712, 0.862732056245305
2449.183641931196, 0.8625987802986791
2443.517514362783, 0.8622486025462495
2422.269535981235, 0.8599885137630201
2405.2711532759968, 0.861521903602575
2393.938898139171, 0.863818768010386
2361.3586646207973, 0.8294208086737258
2341.527218131352, 0.8385669619661348
2330.1949629945266, 0.8390056527356496
2297.614729476153, 0.8650788102816017
1714.0035899296322, 0.46436563367226846
1663.0084418139168, 0.6835353402478402
1633.2612720797497, 0.7306322483026938
1597.8479747771694, 0.6293306976227123
1551.1024223377635, 0.7843802606175592
1501.5238061141513, 0.8214829602600288
1488.7750190852225, 0.657473507091229
1464.6939769194682, 0.700810137258265
1456.194785566849, 0.6911878015523537
1426.4476158326815, 0.6461253190011065
1383.9516590695853, 0.6718707705212396
1376.8689996090693, 0.6413190391739607
1344.2887660906958, 0.7822288305998347
1272.045639593432, 0.749318423710129
1256.463788780297, 0.6041565566845737
1216.800895801407, 0.8015616557171863
1171.4718752541044, 0.5845187333374419
1110.5610038936666, 0.6066330100420768
1083.6468979437059, 0.7956015492393272
1063.8154514542607, 0.5620547553587456
1042.5674730727128, 0.6722085502891707
1024.1525584753713, 0.6102897549954321
991.5723249569974, 0.6715664891787674
960.4086233307271, 0.7615561517827422
920.7457303518372, 0.6845381284632511
902.3308157544952, 0.6968966155953754
868.3340503440186, 0.6176123648196163
844.2530081782638, 0.7733708052521042
830.0876892572319, 0.5521174093020059
773.4264135731037, 0.7131289872918916
749.3453714073494, 0.7202099592265347
740.8461800547302, 0.7343933020951765
718.1816697810787, 0.6051905182151552
687.0179681548084, 0.7713576589773344
670.0195854495696, 0.7422965203388021
610.525245981235, 0.812052253044654
579.3615443549647, 0.6927309066903667
541.115183268178, 0.8307680525616364
477.37124812353386, 0.7006988556919791
457.5398016340887, 0.7985894713145504
434.8752913604376, 0.790954712613454
##END=

##END=

