##TITLE= PQQ IV keton
##JCAMP-DX= 4.24
##DATA TYPE= INFRARED SPECTRUM
##ORIGIN= JASCO
##OWNER= 
##DATE= 18/10/05
##TIME= 11:23:10
##SPECTROMETER/DATA SYSTEM= 
##RESOLUTION= 
##DELTAX=   0.48211674
##XUNITS= 1/CM
##YUNITS= TRANSMITTANCE
##XFACTOR= 1.00000
##YFACTOR= 0.0001
##FIRSTX=   649.8934
##LASTX=  4000.1226
##NPOINTS=     6950
##FIRSTY=      0.95678
##MAXY=      1.04420
##MINY=      0.51720
##XYDATA= (X++(Y..Y))
649.8934 9568 9249 9017 8920 8977 9188 9523 9914 10255 10442 10425 10245 10020
656.1609 9874 9875 10007 10189 10326 10356 10266 10077 9826 9558 9329 9198
661.9463 9209 9362 9605 9850 10019 10084 10077 10052 10047 10061 10047 9890
667.7317 9399 8616 8118 8146 8413 8718 9001 9246 9442 9574 9632 9618 9550 9463
674.4813 9398 9386 9438 9536 9632 9671 9616 9470 9288 9144 9090 9133 9234 9326
681.2310 9356 9313 9233 9164 9140 9165 9218 9272 9305 9312 9298 9280 9271 9279
687.9806 9295 9300 9274 9216 9147 9102 9104 9145 9187 9181 9102 8978 8859 8784
694.7302 8783 8859 8987 9116 9199 9207 9143 9036 8925 8839 8783 8745 8703 8642
701.4799 8565 8491 8441 8433 8466 8527 8599 8666 8718 8749 8753 8725 8668 8592
708.2295 8515 8453 8412 8382 8350 8307 8259 8224 8225 8270 8348 8432 8492 8514
714.9791 8497 8469 8407 8333 8245 8145 8046 7965 7914 7895 7893 7886 7854 7792
721.7288 7709 7620 7541 7483 7450 7442 7452 7468 7480 7480 7469 7456 7451 7458
728.4784 7471 7480 7480 7477 7487 7524 7585 7644 7661 7605 7476 7307 7154 7068
735.2280 7078 7189 7388 7652 7952 8254 8515 8697 8780 8768 8692 8592 8502 8436
741.9777 8393 8360 8330 8302 8282 8275 8281 8293 8295 8274 8226 8162 8103 8072
748.7273 8081 8123 8174 8200 8174 8089 7959 7816 7691 7612 7585 7604 7647 7686
755.4769 7700 7682 7644 7610 7600 7615 7636 7633 7582 7485 7366 7259 7191 7171
762.2266 7196 7255 7334 7421 7503 7572 7633 7704 7814 7981 8200 8441 8658 8811
768.9762 8889 8910 8909 8913 8933 8964 8988 8987 8949 8877 8790 8716 8688 8724
775.7258 8823 8959 9093 9191 9241 9254 9251 9252 9263 9284 9309 9340 9379 9428
782.4755 9482 9530 9565 9582 9584 9570 9539 9486 9410 9325 9252 9218 9237 9302
789.2251 9390 9467 9506 9505 9477 9445 9427 9431 9456 9491 9524 9540 9525 9469
795.9747 9377 9269 9177 9126 9128 9170 9226 9267 9283 9280 9278 9296 9341 9405
802.7244 9471 9521 9542 9529 9483 9415 9338 9265 9206 9160 9123 9092 9066 9051
809.4740 9049 9060 9082 9110 9146 9193 9254 9323 9390 9444 9481 9506 9524 9541
816.2236 9560 9577 9587 9585 9571 9551 9535 9538 9568 9626 9694 9755 9796 9815
822.9733 9827 9841 9858 9865 9844 9787 9703 9610 9520 9431 9328 9201 9060 8930
829.7229 8838 8796 8792 8795 8774 8719 8647 8584 8548 8533 8515 8467 8379 8266
836.4725 8156 8069 8005 7941 7851 7718 7544 7342 7130 6922 6724 6545 6399 6303
843.2222 6273 6319 6439 6619 6840 7080 7329 7582 7838 8098 8355 8597 8813 8997
849.9718 9152 9282 9392 9485 9564 9636 9708 9784 9857 9915 9944 9938 9906 9862
856.7214 9818 9781 9753 9735 9728 9733 9742 9743 9721 9667 9587 9502 9435 9400
863.4711 9395 9403 9403 9378 9322 9245 9163 9088 9028 8978 8934 8889 8835 8768
870.2207 8678 8559 8405 8223 8026 7836 7673 7549 7468 7425 7415 7433 7473 7529
876.9703 7593 7660 7727 7803 7897 8014 8155 8316 8488 8660 8822 8962 9072 9148
883.7200 9197 9234 9277 9339 9418 9500 9566 9607 9627 9644 9674 9724 9788 9845
890.4696 9880 9883 9862 9837 9825 9838 9872 9912 9936 9931 9893 9830 9758 9694
897.2192 9649 9628 9631 9654 9688 9723 9747 9752 9734 9699 9654 9608 9559 9507
903.9689 9448 9384 9321 9266 9223 9194 9181 9189 9223 9288 9379 9480 9571 9630
910.7185 9651 9637 9601 9556 9510 9471 9444 9437 9452 9486 9527 9555 9559 9537
917.4681 9504 9479 9473 9486 9504 9512 9503 9482 9459 9447 9447 9455 9462 9459
924.2178 9444 9419 9389 9361 9344 9342 9355 9373 9386 9383 9356 9307 9243 9171
930.9674 9102 9043 8998 8967 8944 8917 8877 8818 8747 8670 8593 8512 8420 8308
937.7170 8178 8037 7895 7760 7637 7528 7437 7375 7350 7373 7446 7568 7734 7935
944.4667 8162 8404 8647 8883 9104 9304 9476 9613 9710 9766 9788 9786 9770 9750
951.2163 9735 9730 9736 9749 9762 9769 9769 9771 9781 9802 9824 9829 9804 9752
957.9659 9686 9630 9598 9593 9602 9612 9612 9603 9588 9573 9559 9546 9535 9527
964.7156 9523 9517 9503 9474 9432 9389 9355 9342 9347 9361 9371 9366 9345 9313
971.4652 9277 9242 9208 9175 9139 9097 9043 8979 8912 8855 8823 8821 8838 8853
978.2148 8841 8787 8696 8587 8484 8404 8351 8319 8301 8292 8292 8300 8316 8335
984.9645 8353 8367 8377 8388 8406 8434 8471 8513 8559 8608 8662 8721 8785 8846
991.7141 8898 8938 8967 8992 9018 9050 9085 9122 9160 9196 9227 9250 9260 9254
998.4637 9237 9215 9196 9182 9173 9164 9152 9132 9104 9071 9033 8995 8960 8932
1005.2134 8911 8893 8870 8835 8784 8718 8647 8579 8519 8468 8422 8372 8314
1011.4809 8244 8162 8070 7974 7881 7797 7726 7665 7609 7549 7480 7403 7318
1017.7484 7230 7140 7049 6961 6884 6826 6794 6791 6811 6851 6903 6966 7042
1024.0160 7133 7246 7381 7537 7709 7886 8060 8223 8373 8512 8641 8758 8864
1030.2834 8956 9036 9108 9172 9227 9268 9290 9291 9277 9256 9240 9238 9255
1036.5510 9288 9331 9376 9414 9444 9468 9488 9503 9508 9497 9467 9425 9382
1042.8185 9352 9340 9345 9362 9387 9415 9446 9476 9499 9509 9504 9488 9465
1049.0861 9440 9410 9376 9336 9297 9270 9264 9286 9330 9388 9445 9490 9518
1055.3535 9529 9529 9522 9512 9498 9481 9458 9432 9407 9389 9379 9378 9380
1061.6211 9379 9370 9351 9327 9303 9286 9277 9272 9263 9242 9210 9176 9152
1067.8885 9149 9168 9202 9238 9261 9261 9235 9186 9121 9051 8989 8945 8918
1074.1561 8901 8882 8848 8798 8737 8674 8616 8565 8518 8470 8419 8365 8307
1080.4236 8244 8175 8101 8027 7957 7894 7842 7804 7783 7781 7801 7842 7899
1086.6912 7969 8050 8142 8246 8356 8466 8568 8658 8737 8810 8883 8954 9018
1092.9586 9068 9098 9109 9105 9093 9082 9074 9074 9081 9094 9108 9118 9116
1099.2262 9098 9065 9024 8984 8954 8936 8926 8915 8892 8853 8802 8747 8699
1105.4937 8662 8636 8618 8603 8594 8594 8605 8627 8655 8683 8707 8726 8745
1111.7612 8767 8796 8831 8871 8915 8963 9010 9053 9082 9090 9073 9034 8986
1118.0287 8940 8907 8891 8887 8889 8894 8901 8912 8927 8944 8955 8955 8942
1124.2963 8920 8895 8872 8853 8833 8810 8785 8762 8747 8741 8738 8732 8715
1130.5637 8684 8646 8609 8580 8560 8548 8537 8525 8511 8497 8483 8470 8455
1136.8313 8437 8416 8390 8361 8328 8293 8261 8236 8220 8206 8185 8146 8084
1143.0988 8004 7916 7834 7765 7706 7651 7589 7517 7436 7354 7277 7210 7151
1149.3663 7093 7030 6956 6871 6777 6682 6590 6505 6427 6357 6297 6249 6215
1155.6338 6198 6196 6211 6243 6294 6370 6474 6610 6774 6963 7163 7363 7552
1161.9014 7720 7864 7987 8090 8177 8249 8307 8353 8390 8420 8446 8466 8473
1168.1688 8464 8439 8401 8358 8316 8278 8241 8203 8161 8116 8071 8030 7995
1174.4364 7965 7936 7905 7868 7825 7779 7737 7701 7675 7652 7629 7597 7554
1180.7039 7502 7446 7392 7345 7308 7282 7263 7248 7233 7213 7185 7148 7106
1186.9714 7069 7043 7034 7042 7063 7092 7120 7143 7157 7161 7156 7143 7126
1193.2389 7105 7079 7044 6995 6926 6840 6741 6639 6542 6453 6373 6298 6223
1199.5065 6141 6050 5952 5849 5747 5651 5565 5490 5425 5367 5314 5267 5227
1205.7739 5197 5178 5172 5177 5193 5218 5251 5293 5342 5397 5459 5528 5603
1212.0415 5684 5772 5869 5977 6098 6231 6368 6501 6619 6715 6789 6841 6878
1218.3090 6900 6908 6899 6871 6826 6766 6694 6613 6524 6428 6325 6215 6099
1224.5765 5976 5853 5734 5627 5539 5473 5426 5393 5370 5355 5349 5357 5381
1230.8440 5424 5487 5570 5671 5790 5926 6078 6243 6421 6609 6802 6999 7195
1237.1116 7390 7580 7761 7929 8081 8217 8340 8456 8567 8670 8763 8838 8898
1243.3790 8945 8986 9028 9069 9105 9130 9142 9139 9128 9112 9093 9073 9049
1249.6466 9024 9001 8983 8973 8967 8962 8948 8922 8884 8840 8796 8757 8723
1255.9141 8692 8658 8620 8578 8536 8498 8465 8437 8409 8380 8348 8317 8290
1262.1816 8273 8263 8257 8248 8231 8205 8173 8138 8102 8064 8020 7967 7904
1268.4491 7837 7770 7705 7644 7581 7514 7439 7357 7267 7172 7072 6968 6865
1274.7167 6766 6674 6589 6509 6431 6356 6284 6221 6167 6126 6098 6083 6080
1280.9841 6090 6110 6140 6175 6217 6266 6327 6401 6490 6589 6694 6800 6904
1287.2517 7006 7106 7207 7308 7409 7510 7611 7713 7818 7929 8046 8169 8295
1293.5192 8418 8533 8638 8736 8832 8930 9031 9132 9229 9317 9396 9464 9525
1299.7867 9581 9633 9681 9725 9760 9787 9805 9817 9828 9843 9862 9883 9902
1306.0542 9915 9922 9924 9926 9927 9927 9926 9922 9917 9911 9905 9900 9893
1312.3218 9887 9881 9877 9875 9872 9867 9858 9847 9835 9827 9823 9824 9826
1318.5892 9827 9825 9820 9814 9808 9805 9802 9800 9796 9790 9782 9773 9764
1324.8568 9756 9748 9740 9728 9713 9695 9675 9656 9639 9626 9615 9603 9588
1331.1243 9570 9548 9524 9500 9479 9461 9445 9427 9404 9373 9334 9291 9248
1337.3918 9210 9178 9147 9111 9067 9015 8957 8900 8846 8795 8747 8701 8657
1343.6593 8614 8574 8538 8507 8483 8466 8456 8449 8444 8440 8435 8430 8425
1349.9269 8416 8399 8370 8329 8276 8214 8147 8075 7998 7916 7829 7739 7647
1356.1943 7555 7461 7366 7272 7184 7104 7036 6981 6937 6905 6884 6874 6876
1362.4619 6892 6924 6968 7022 7081 7141 7202 7263 7323 7381 7438 7492 7541
1368.7294 7584 7617 7642 7662 7683 7710 7744 7786 7833 7884 7939 7996 8051
1374.9969 8097 8132 8153 8162 8162 8153 8140 8122 8099 8072 8038 7998 7953
1381.2644 7905 7856 7804 7752 7699 7647 7599 7556 7520 7492 7474 7464 7461
1387.5320 7461 7461 7464 7471 7488 7521 7569 7630 7697 7765 7833 7901 7975
1393.7994 8056 8137 8210 8265 8301 8327 8348 8368 8387 8403 8414 8420 8419
1400.0670 8414 8404 8390 8373 8356 8340 8326 8316 8309 8301 8288 8266 8233
1406.3345 8193 8149 8107 8068 8036 8009 7986 7962 7934 7901 7863 7823 7783
1412.6021 7746 7712 7682 7655 7633 7614 7599 7586 7573 7559 7544 7532 7529
1418.8695 7542 7571 7609 7646 7677 7704 7730 7760 7798 7847 7907 7971 8035
1425.1371 8094 8151 8206 8259 8310 8356 8397 8432 8466 8498 8527 8552 8569
1431.4045 8581 8590 8599 8607 8616 8621 8622 8619 8612 8601 8589 8579 8575
1437.6721 8579 8592 8612 8639 8672 8705 8732 8748 8750 8744 8734 8724 8713
1443.9396 8696 8668 8630 8583 8534 8485 8438 8388 8331 8267 8200 8135 8075
1450.2072 8015 7953 7888 7822 7760 7707 7668 7641 7624 7613 7608 7610 7628
1456.4746 7668 7728 7791 7834 7849 7843 7824 7797 7766 7733 7696 7657 7614
1462.7422 7570 7530 7502 7496 7522 7577 7647 7720 7793 7872 7957 8046 8130
1469.0096 8198 8247 8281 8306 8332 8365 8407 8441 8451 8432 8396 8359 8326
1475.2772 8302 8283 8266 8244 8215 8178 8139 8098 8059 8020 7982 7942 7902
1481.5447 7862 7825 7793 7765 7738 7709 7677 7642 7605 7567 7529 7488 7448
1487.8123 7410 7375 7343 7307 7263 7210 7155 7105 7060 7017 6972 6926 6883
1494.0797 6844 6814 6790 6768 6743 6714 6687 6666 6655 6652 6654 6657 6654
1500.3473 6646 6634 6621 6607 6591 6573 6551 6523 6493 6460 6427 6396 6370
1506.6147 6346 6321 6291 6258 6220 6176 6127 6078 6032 5997 5977 5974 5987
1512.8823 6007 6028 6047 6062 6075 6090 6105 6115 6107 6075 6023 5961 5896
1519.1498 5828 5760 5694 5640 5609 5596 5584 5562 5531 5502 5484 5485 5507
1525.4174 5546 5588 5627 5663 5705 5756 5817 5880 5940 5992 6040 6084 6129
1531.6848 6179 6246 6342 6476 6631 6772 6878 6954 7015 7068 7117 7162 7202
1537.9524 7248 7322 7448 7620 7776 7873 7928 7975 8033 8099 8163 8222 8283
1544.2198 8356 8451 8561 8669 8759 8829 8886 8939 8993 9051 9114 9177 9235
1550.4874 9282 9318 9344 9364 9382 9399 9419 9441 9466 9492 9520 9549 9583
1556.7549 9623 9670 9718 9734 9672 9549 9458 9435 9453 9485 9517 9544 9563
1563.0225 9573 9576 9571 9562 9551 9544 9539 9538 9540 9541 9542 9535 9514
1569.2899 9470 9413 9361 9326 9305 9292 9279 9263 9243 9220 9192 9159 9113
1575.5575 9047 8961 8877 8814 8769 8730 8683 8624 8552 8470 8383 8295 8205
1581.8250 8113 8020 7928 7841 7762 7698 7652 7631 7641 7683 7758 7862 7988
1588.0925 8127 8270 8411 8544 8665 8771 8860 8932 8991 9041 9086 9129 9167
1594.3600 9196 9212 9214 9206 9194 9185 9179 9176 9175 9173 9167 9160 9149
1600.6276 9135 9120 9104 9091 9079 9069 9058 9045 9027 9005 8976 8941 8903
1606.8950 8864 8828 8797 8773 8754 8737 8717 8693 8665 8635 8605 8574 8540
1613.1626 8502 8460 8418 8380 8345 8312 8273 8220 8154 8087 8027 7970 7913
1619.4301 7851 7787 7722 7659 7598 7536 7469 7391 7303 7212 7126 7050 6979
1625.6976 6912 6844 6773 6695 6610 6520 6431 6348 6274 6208 6151 6101 6058
1631.9651 6021 5988 5961 5941 5936 5959 6028 6140 6258 6342 6392 6426 6459
1638.2327 6500 6550 6612 6685 6766 6854 6945 7037 7129 7217 7301 7383 7466
1644.5002 7558 7666 7794 7938 8076 8186 8268 8334 8396 8453 8501 8537 8562
1650.7677 8580 8596 8617 8652 8704 8745 8747 8730 8712 8693 8671 8645 8614
1657.0353 8579 8541 8500 8454 8401 8338 8269 8194 8115 8029 7930 7811 7676
1663.3027 7538 7410 7291 7177 7064 6954 6852 6764 6693 6642 6612 6606 6623
1669.5703 6651 6678 6699 6715 6730 6743 6753 6759 6765 6779 6812 6874 6957
1675.8378 7037 7101 7152 7202 7260 7332 7425 7544 7690 7851 8010 8148 8259
1682.1053 8347 8424 8514 8649 8839 9016 9115 9155 9173 9187 9203 9222 9245
1688.3728 9268 9289 9303 9310 9313 9317 9324 9337 9353 9371 9388 9404 9423
1694.6404 9448 9484 9528 9565 9583 9590 9593 9597 9604 9619 9650 9700 9748
1700.9078 9774 9788 9801 9815 9832 9851 9872 9895 9917 9938 9957 9971 9979
1707.1754 9981 9977 9972 9967 9968 9975 9988 10003 10015 10020 10019 10013
1712.9608 10006 10003 10006 10016 10030 10044 10058 10073 10093 10118 10139
1718.2640 10147 10139 10121 10101 10081 10062 10046 10037 10035 10040 10047
1723.5674 10053 10053 10049 10046 10047 10055 10069 10083 10092 10090 10076
1728.8706 10054 10028 10007 9996 9994 9998 10004 10009 10017 10026 10035 10038
1734.6560 10035 10036 10040 10047 10052 10051 10044 10029 10008 9988 9974 9972
1740.4414 9981 9996 10012 10027 10041 10054 10064 10070 10072 10072 10072
1745.7448 10073 10075 10076 10076 10073 10069 10064 10060 10060 10065 10075
1751.0480 10086 10094 10095 10091 10084 10079 10077 10079 10086 10096 10107
1756.3513 10118 10126 10132 10134 10133 10131 10127 10121 10111 10097 10083
1761.6545 10071 10066 10068 10074 10081 10087 10091 10093 10093 10089 10083
1766.9579 10074 10066 10060 10060 10064 10070 10074 10076 10073 10065 10053
1772.2611 10042 10036 10038 10043 10050 10053 10052 10047 10037 10026 10018
1777.5645 10015 10016 10021 10026 10031 10031 10027 10021 10015 10011 10011
1782.8677 10012 10013 10016 10018 10018 10014 10005 9990 9972 9956 9946 9944
1788.6531 9949 9957 9964 9965 9962 9955 9948 9945 9943 9941 9939 9937 9939
1794.9207 9942 9945 9948 9949 9948 9946 9946 9948 9954 9960 9965 9966 9963
1801.1881 9957 9949 9942 9935 9930 9926 9925 9926 9927 9930 9933 9938 9945
1807.4557 9952 9960 9967 9971 9972 9966 9954 9938 9921 9908 9902 9902 9907
1813.7231 9915 9923 9931 9940 9950 9961 9971 9976 9974 9967 9957 9947 9942
1819.9907 9940 9944 9951 9959 9966 9969 9966 9958 9946 9934 9923 9915 9910
1826.2582 9908 9907 9908 9910 9913 9917 9920 9925 9934 9946 9957 9965 9965
1832.5258 9958 9947 9936 9928 9923 9921 9917 9912 9904 9897 9891 9888 9888
1838.7932 9892 9899 9907 9913 9913 9904 9888 9867 9846 9832 9832 9847 9872
1845.0608 9894 9907 9909 9904 9897 9892 9893 9899 9905 9906 9904 9899 9897
1851.3282 9899 9906 9912 9915 9912 9904 9894 9888 9888 9894 9904 9914 9922
1857.5958 9924 9919 9909 9898 9887 9881 9881 9886 9895 9906 9916 9923 9926
1863.8633 9925 9922 9918 9915 9913 9911 9910 9907 9905 9904 9906 9910 9914
1870.1309 9917 9917 9915 9911 9907 9903 9901 9901 9904 9908 9912 9913 9909
1876.3983 9900 9887 9875 9868 9869 9876 9886 9898 9911 9923 9934 9942 9944
1882.6659 9938 9926 9913 9903 9900 9903 9911 9920 9925 9927 9927 9924 9919
1888.9333 9914 9910 9909 9910 9912 9913 9911 9906 9900 9895 9894 9897 9902
1895.2009 9907 9908 9902 9890 9876 9862 9853 9852 9856 9865 9875 9884 9891
1901.4684 9898 9905 9913 9921 9929 9936 9941 9942 9937 9924 9902 9875 9852
1907.7360 9839 9842 9860 9886 9910 9926 9931 9929 9926 9925 9927 9929 9928
1914.0034 9924 9918 9913 9912 9915 9922 9931 9940 9945 9944 9936 9925 9913
1920.2710 9903 9896 9895 9897 9900 9904 9906 9906 9905 9904 9904 9905 9908
1926.5385 9911 9912 9908 9900 9890 9880 9873 9870 9870 9872 9873 9874 9873
1932.8060 9871 9869 9868 9869 9872 9876 9880 9884 9886 9885 9882 9878 9874
1939.0735 9876 9885 9899 9913 9920 9916 9903 9886 9874 9872 9876 9881 9884
1945.3411 9885 9884 9886 9888 9890 9890 9888 9888 9891 9896 9898 9895 9885
1951.6085 9873 9865 9866 9874 9884 9889 9887 9880 9875 9875 9881 9891 9899
1957.8761 9901 9895 9885 9875 9869 9870 9879 9892 9905 9913 9911 9901 9886
1964.1436 9873 9867 9869 9878 9890 9904 9918 9931 9940 9941 9930 9908 9883
1970.4111 9863 9854 9856 9866 9877 9885 9892 9900 9913 9930 9950 9968 9983
1976.6786 9993 9996 9990 9975 9951 9926 9904 9891 9891 9899 9911 9922 9927
1982.9462 9926 9922 9918 9915 9915 9919 9924 9931 9939 9945 9945 9936 9918
1989.2136 9894 9870 9853 9848 9856 9875 9896 9915 9926 9932 9933 9931 9925
1995.4812 9913 9894 9872 9852 9841 9842 9855 9874 9892 9903 9906 9905 9903
2001.7487 9906 9911 9917 9919 9913 9901 9888 9879 9877 9882 9891 9900 9907
2008.0162 9913 9916 9916 9912 9903 9894 9888 9891 9904 9921 9936 9943 9942
2014.2837 9936 9930 9926 9921 9914 9903 9892 9885 9886 9895 9908 9919 9926
2020.5513 9928 9927 9926 9926 9928 9930 9929 9922 9910 9895 9878 9865 9858
2026.8187 9858 9863 9871 9881 9891 9901 9910 9919 9927 9933 9939 9943 9946
2033.0863 9949 9952 9955 9954 9948 9935 9915 9895 9882 9879 9886 9899 9910
2039.3538 9915 9912 9904 9894 9887 9886 9890 9899 9908 9914 9913 9905 9892
2045.6213 9882 9878 9882 9890 9895 9894 9884 9871 9861 9858 9861 9870 9879
2051.8889 9888 9895 9900 9902 9896 9880 9856 9826 9801 9787 9790 9808 9834
2058.1563 9859 9879 9891 9897 9899 9900 9899 9894 9885 9876 9868 9865 9866
2064.4238 9867 9866 9859 9847 9836 9830 9834 9848 9870 9892 9908 9914 9908
2070.6914 9897 9885 9878 9875 9875 9874 9871 9866 9861 9859 9860 9868 9881
2076.9590 9899 9918 9932 9936 9929 9912 9892 9875 9865 9862 9862 9862 9860
2083.2263 9856 9852 9851 9852 9855 9861 9869 9881 9895 9908 9918 9921 9918
2089.4939 9913 9906 9899 9890 9879 9866 9856 9852 9855 9863 9871 9874 9872
2095.7615 9867 9865 9870 9882 9896 9907 9907 9894 9872 9849 9832 9828 9839
2102.0291 9859 9882 9898 9903 9899 9887 9874 9863 9857 9855 9859 9866 9874
2108.2964 9883 9891 9897 9901 9903 9899 9892 9882 9873 9866 9863 9862 9861
2114.5640 9859 9854 9849 9846 9846 9847 9849 9849 9850 9853 9859 9869 9881
2120.8315 9890 9896 9898 9896 9892 9887 9882 9876 9870 9862 9857 9856 9859
2127.0991 9867 9876 9882 9882 9877 9870 9866 9867 9875 9887 9899 9910 9918
2133.3665 9923 9925 9925 9922 9917 9911 9908 9909 9915 9922 9925 9922 9913
2139.6340 9901 9892 9890 9895 9904 9912 9918 9920 9922 9924 9929 9935 9940
2145.9016 9943 9944 9943 9941 9939 9938 9939 9941 9943 9941 9933 9917 9897
2152.1692 9880 9872 9877 9894 9916 9938 9955 9966 9973 9976 9978 9978 9977
2158.4365 9975 9973 9970 9965 9955 9941 9926 9916 9912 9914 9920 9925 9926
2164.7041 9923 9921 9920 9921 9923 9923 9920 9916 9914 9913 9914 9913 9909
2170.9717 9905 9902 9904 9911 9919 9923 9921 9914 9906 9900 9898 9900 9905
2177.2393 9914 9927 9941 9953 9957 9950 9936 9920 9912 9914 9923 9934 9940
2183.5066 9941 9938 9934 9932 9930 9927 9925 9924 9927 9934 9943 9950 9954
2189.7742 9956 9957 9958 9957 9953 9944 9932 9920 9914 9916 9926 9938 9948
2196.0417 9953 9950 9944 9936 9931 9928 9925 9919 9908 9895 9882 9873 9874
2202.3093 9883 9900 9922 9941 9954 9956 9948 9935 9924 9920 9925 9936 9948
2208.5767 9957 9961 9962 9961 9959 9957 9955 9953 9953 9954 9956 9954 9947
2214.8442 9935 9921 9913 9914 9923 9935 9942 9940 9928 9912 9898 9894 9900
2221.1118 9914 9932 9948 9958 9961 9957 9950 9942 9937 9934 9932 9927 9916
2227.3794 9901 9886 9877 9877 9882 9888 9892 9892 9893 9900 9914 9931 9945
2233.6467 9950 9945 9936 9929 9927 9928 9927 9921 9910 9896 9885 9882 9887
2239.9143 9900 9916 9931 9944 9952 9954 9952 9946 9938 9929 9919 9911 9905
2246.1819 9904 9909 9916 9924 9928 9928 9924 9918 9912 9908 9907 9910 9914
2252.4495 9921 9928 9934 9937 9937 9935 9935 9938 9944 9952 9960 9965 9963
2258.7168 9955 9942 9929 9920 9917 9921 9928 9935 9938 9936 9931 9926 9921
2264.9844 9918 9915 9910 9902 9891 9881 9874 9871 9872 9873 9873 9871 9868
2271.2520 9864 9864 9869 9880 9895 9908 9916 9911 9896 9872 9850 9836 9835
2277.5195 9845 9860 9873 9880 9882 9881 9880 9881 9882 9883 9884 9887 9890
2283.7869 9892 9890 9883 9870 9854 9838 9824 9818 9820 9831 9849 9870 9888
2290.0544 9897 9896 9886 9871 9857 9845 9836 9826 9811 9792 9773 9759 9753
2296.3220 9757 9768 9783 9800 9817 9832 9843 9847 9839 9822 9800 9778 9761
2302.5896 9750 9743 9739 9738 9740 9747 9758 9769 9779 9784 9784 9781 9775
2308.8569 9767 9755 9740 9724 9710 9701 9699 9703 9711 9717 9715 9703 9681
2315.1245 9656 9636 9627 9632 9647 9666 9683 9695 9700 9698 9687 9668 9643
2321.3921 9615 9595 9587 9593 9606 9617 9617 9604 9583 9560 9542 9532 9528
2327.6597 9528 9529 9529 9523 9508 9484 9456 9439 9450 9495 9568 9644 9697
2333.9270 9708 9678 9622 9562 9514 9490 9492 9513 9543 9573 9593 9601 9600
2340.1946 9600 9613 9643 9684 9718 9732 9722 9693 9660 9640 9643 9667 9703
2346.4622 9738 9759 9762 9747 9722 9692 9667 9652 9654 9668 9687 9698 9699
2352.7297 9692 9685 9685 9695 9714 9742 9779 9826 9880 9935 9980 10005 10009
2358.9971 9994 9966 9927 9874 9802 9720 9646 9608 9628 9705 9811 9904 9948
2365.2646 9934 9884 9834 9811 9820 9848 9873 9880 9865 9837 9810 9789 9776
2371.5322 9768 9757 9739 9717 9693 9674 9663 9664 9673 9690 9710 9732 9754
2377.7998 9777 9798 9814 9822 9820 9809 9794 9781 9776 9785 9805 9830 9853
2384.0671 9867 9869 9863 9853 9846 9845 9849 9859 9872 9884 9894 9898 9895
2390.3347 9886 9875 9867 9866 9872 9883 9894 9902 9904 9901 9895 9885 9874
2396.6023 9863 9856 9854 9856 9858 9858 9856 9854 9857 9866 9879 9892 9899
2402.8699 9898 9891 9884 9882 9886 9893 9900 9902 9899 9896 9895 9898 9907
2409.1372 9917 9926 9932 9932 9928 9922 9913 9906 9900 9897 9898 9901 9907
2415.4048 9911 9914 9913 9908 9901 9895 9890 9888 9888 9887 9886 9883 9881
2421.6724 9880 9883 9889 9899 9910 9920 9924 9922 9911 9897 9885 9881 9884
2427.9399 9894 9904 9910 9912 9910 9908 9907 9908 9910 9913 9917 9921 9924
2434.2073 9925 9922 9916 9909 9903 9900 9900 9903 9905 9906 9906 9903 9899
2440.4749 9896 9892 9888 9884 9881 9880 9884 9893 9907 9922 9933 9935 9928
2446.7424 9915 9903 9896 9894 9897 9902 9905 9905 9902 9898 9895 9894 9897
2453.0100 9904 9913 9920 9922 9918 9909 9899 9890 9884 9882 9882 9883 9886
2459.2773 9891 9899 9910 9922 9933 9940 9944 9942 9935 9925 9914 9904 9898
2465.5449 9897 9902 9911 9923 9935 9944 9947 9943 9934 9924 9917 9916 9919
2471.8125 9925 9930 9933 9934 9932 9926 9917 9904 9892 9882 9878 9879 9885
2478.0801 9893 9900 9906 9908 9908 9905 9902 9903 9908 9919 9934 9948 9957
2484.3474 9960 9957 9951 9943 9937 9933 9931 9933 9935 9939 9943 9945 9943
2490.6150 9939 9932 9925 9918 9915 9915 9917 9921 9926 9935 9947 9961 9976
2496.8826 9986 9988 9982 9972 9962 9957 9956 9958 9960 9963 9966 9972 9978
2503.1501 9983 9980 9971 9958 9946 9940 9940 9944 9947 9947 9945 9943 9945
2509.4175 9949 9956 9963 9969 9977 9986 9993 9994 9986 9967 9942 9920 9906
2515.6851 9906 9916 9932 9946 9954 9952 9943 9930 9918 9912 9913 9921 9933
2521.9526 9945 9953 9953 9946 9936 9926 9921 9920 9924 9930 9937 9944 9951
2528.2202 9957 9961 9962 9960 9956 9951 9946 9942 9939 9938 9939 9941 9946
2534.4875 9950 9954 9956 9955 9951 9944 9937 9932 9930 9933 9939 9945 9948
2540.7551 9947 9942 9938 9938 9944 9956 9970 9983 9990 9989 9982 9972 9964
2547.0227 9961 9961 9965 9970 9975 9980 9985 9991 9996 10000 10000 9997 9990
2553.2903 9980 9969 9959 9951 9949 9953 9963 9975 9984 9989 9987 9981 9974
2559.5576 9968 9964 9963 9962 9962 9962 9960 9955 9946 9935 9927 9925 9930
2565.8252 9943 9959 9973 9984 9989 9990 9988 9983 9976 9966 9953 9940 9929
2572.0928 9923 9924 9930 9942 9956 9969 9979 9985 9986 9981 9973 9961 9950
2578.3604 9942 9940 9944 9951 9956 9954 9945 9931 9917 9909 9910 9921 9936
2584.6277 9951 9961 9964 9962 9956 9948 9940 9932 9926 9922 9920 9921 9923
2590.8953 9927 9932 9937 9942 9946 9948 9949 9949 9949 9948 9945 9938 9931
2597.1628 9926 9926 9932 9942 9950 9954 9951 9945 9940 9937 9938 9940 9937
2603.4304 9929 9917 9905 9900 9904 9917 9934 9948 9954 9950 9939 9928 9920
2609.6978 9917 9919 9921 9924 9925 9926 9927 9927 9927 9924 9919 9913 9910
2615.9653 9911 9918 9929 9940 9949 9954 9954 9949 9942 9935 9928 9925 9924
2622.2329 9925 9927 9927 9924 9920 9915 9912 9909 9906 9904 9902 9900 9901
2628.5005 9905 9913 9923 9934 9944 9953 9961 9965 9965 9961 9951 9938 9924
2634.7681 9912 9906 9904 9908 9915 9922 9927 9931 9931 9931 9930 9930 9930
2641.0354 9929 9927 9923 9918 9911 9906 9902 9901 9902 9903 9901 9896 9889
2647.3030 9880 9873 9868 9866 9867 9870 9874 9879 9882 9882 9879 9876 9875
2653.5706 9879 9890 9904 9916 9921 9915 9902 9887 9876 9872 9876 9885 9896
2659.8381 9905 9910 9910 9906 9899 9891 9883 9879 9877 9880 9885 9892 9898
2666.1055 9903 9905 9904 9900 9894 9890 9890 9894 9905 9918 9932 9942 9947
2672.3730 9946 9942 9938 9936 9935 9936 9938 9942 9947 9953 9958 9959 9955
2678.6406 9946 9936 9927 9922 9922 9925 9930 9934 9937 9937 9936 9932 9927
2684.9082 9922 9917 9913 9913 9916 9923 9931 9939 9943 9940 9931 9918 9905
2691.1755 9897 9896 9902 9911 9918 9919 9914 9906 9899 9894 9893 9897 9903
2697.4431 9911 9918 9922 9924 9921 9915 9909 9902 9896 9891 9885 9880 9876
2703.7107 9874 9876 9880 9884 9887 9888 9889 9892 9898 9906 9915 9922 9929
2709.9783 9932 9932 9928 9919 9906 9891 9877 9867 9864 9869 9880 9895 9912
2716.2456 9927 9937 9942 9942 9938 9933 9929 9926 9925 9925 9927 9929 9932
2722.5132 9933 9934 9935 9935 9936 9937 9938 9939 9938 9936 9932 9927 9923
2728.7808 9921 9918 9915 9911 9906 9901 9899 9901 9908 9917 9925 9928 9928
2735.0483 9924 9919 9915 9912 9907 9901 9895 9891 9893 9901 9916 9935 9952
2741.3157 9965 9967 9960 9945 9927 9912 9906 9909 9918 9928 9933 9929 9917
2747.5833 9904 9894 9893 9898 9908 9917 9922 9922 9919 9916 9918 9923 9930
2753.8508 9936 9938 9934 9925 9915 9908 9905 9909 9916 9923 9929 9933 9936
2760.1184 9938 9941 9943 9941 9935 9926 9915 9906 9903 9905 9911 9918 9921
2766.3857 9922 9922 9925 9932 9941 9949 9950 9943 9930 9916 9905 9902 9905
2772.6533 9911 9915 9917 9915 9913 9912 9913 9916 9918 9918 9916 9915 9919
2778.9209 9928 9940 9954 9963 9967 9963 9952 9937 9919 9902 9891 9889 9896
2785.1885 9910 9925 9936 9940 9937 9930 9924 9920 9920 9925 9934 9944 9953
2791.4558 9960 9961 9959 9955 9954 9955 9958 9959 9957 9951 9944 9937 9933
2797.7234 9933 9933 9933 9931 9931 9932 9936 9943 9951 9958 9962 9963 9962
2803.9910 9960 9959 9960 9962 9962 9959 9949 9935 9921 9910 9905 9908 9916
2810.2585 9926 9934 9939 9941 9942 9943 9945 9945 9942 9936 9926 9915 9907
2816.5259 9907 9916 9932 9951 9966 9972 9967 9953 9938 9926 9920 9918 9917
2822.7935 9912 9903 9890 9878 9870 9866 9865 9865 9863 9861 9860 9861 9863
2829.0610 9866 9865 9860 9849 9834 9818 9804 9793 9787 9785 9787 9793 9801
2835.3286 9812 9821 9826 9824 9815 9802 9789 9778 9771 9768 9768 9770 9776
2841.5959 9786 9799 9813 9825 9836 9846 9857 9871 9887 9904 9917 9923 9921
2847.8635 9911 9896 9882 9873 9874 9886 9904 9921 9930 9927 9917 9904 9895
2854.1311 9893 9895 9898 9900 9899 9897 9895 9896 9898 9900 9900 9898 9894
2860.3987 9888 9882 9877 9876 9880 9891 9907 9923 9934 9934 9921 9902 9884
2866.6660 9875 9881 9896 9914 9925 9924 9914 9898 9882 9869 9857 9845 9832
2872.9336 9820 9814 9817 9827 9840 9852 9857 9855 9848 9837 9827 9817 9810
2879.2012 9807 9806 9809 9813 9814 9810 9802 9791 9781 9775 9773 9773 9772
2885.4688 9767 9760 9752 9748 9750 9756 9764 9769 9769 9763 9753 9742 9733
2891.7361 9730 9734 9746 9761 9774 9781 9779 9770 9756 9746 9742 9746 9756
2898.0037 9766 9772 9769 9761 9749 9739 9734 9735 9739 9744 9748 9749 9749
2904.2712 9747 9748 9751 9757 9766 9775 9784 9789 9789 9786 9781 9774 9767
2910.5388 9760 9754 9750 9750 9760 9779 9806 9836 9863 9883 9893 9895 9891
2916.8062 9887 9884 9885 9887 9889 9887 9883 9878 9878 9885 9898 9912 9922
2923.0737 9924 9918 9906 9893 9884 9878 9876 9875 9873 9869 9860 9849 9838
2929.3413 9828 9823 9822 9824 9828 9831 9833 9834 9835 9836 9836 9833 9824
2935.6089 9810 9794 9779 9772 9773 9780 9789 9795 9794 9788 9780 9776 9779
2941.8762 9792 9811 9830 9846 9854 9856 9854 9852 9852 9853 9854 9852 9846
2948.1438 9840 9838 9842 9853 9866 9875 9876 9868 9851 9832 9815 9803 9798
2954.4114 9799 9801 9801 9796 9785 9771 9756 9745 9739 9738 9739 9739 9738
2960.6790 9732 9723 9711 9699 9690 9688 9693 9706 9725 9746 9764 9780 9792
2966.9463 9801 9811 9819 9827 9832 9835 9834 9832 9829 9827 9827 9828 9828
2973.2139 9827 9826 9827 9831 9840 9852 9865 9876 9882 9884 9881 9875 9870
2979.4814 9865 9863 9864 9867 9870 9874 9876 9878 9879 9880 9880 9879 9873
2985.7490 9862 9849 9835 9824 9817 9815 9814 9813 9811 9807 9799 9790 9777
2992.0164 9762 9749 9739 9735 9736 9740 9742 9739 9730 9714 9694 9670 9648
2998.2839 9630 9624 9631 9652 9683 9714 9740 9757 9766 9771 9773 9774 9775
3004.5515 9774 9773 9775 9783 9798 9817 9839 9856 9866 9867 9859 9846 9833
3010.8191 9822 9817 9816 9818 9821 9824 9827 9827 9824 9819 9813 9812 9817
3017.0864 9828 9842 9854 9860 9859 9852 9843 9836 9832 9831 9831 9832 9832
3023.3540 9831 9829 9828 9827 9827 9827 9826 9823 9818 9813 9810 9810 9815
3029.6216 9821 9827 9830 9830 9830 9832 9839 9849 9858 9864 9865 9865 9864
3035.8892 9864 9865 9865 9863 9855 9844 9831 9820 9814 9812 9816 9823 9829
3042.1565 9832 9831 9826 9821 9820 9827 9840 9855 9865 9867 9859 9847 9836
3048.4241 9830 9832 9837 9841 9841 9834 9822 9808 9794 9780 9768 9759 9754
3054.6917 9755 9761 9772 9783 9789 9790 9786 9782 9782 9789 9799 9809 9814
3060.9592 9811 9800 9785 9769 9755 9745 9739 9738 9739 9742 9746 9750 9755
3067.2266 9758 9757 9752 9744 9739 9741 9753 9771 9788 9796 9790 9772 9748
3073.4941 9725 9707 9697 9691 9688 9688 9692 9701 9715 9732 9747 9757 9757
3079.7617 9747 9729 9708 9689 9677 9672 9670 9667 9660 9651 9643 9640 9642
3086.0293 9649 9656 9660 9659 9656 9649 9642 9632 9619 9604 9590 9579 9578
3092.2966 9589 9610 9637 9661 9674 9673 9661 9648 9641 9646 9661 9680 9694
3098.5642 9699 9694 9684 9672 9664 9660 9661 9666 9674 9684 9696 9708 9718
3104.8318 9725 9725 9717 9702 9681 9659 9642 9632 9632 9636 9640 9637 9625
3111.0994 9605 9585 9571 9567 9569 9575 9579 9580 9578 9578 9580 9583 9583
3117.3667 9579 9571 9561 9555 9554 9560 9567 9570 9564 9548 9523 9496 9473
3123.6343 9461 9458 9462 9465 9463 9455 9442 9429 9420 9414 9410 9409 9410
3129.9019 9414 9421 9430 9437 9440 9441 9443 9449 9459 9470 9476 9472 9459
3136.1694 9440 9420 9405 9398 9397 9401 9408 9416 9423 9428 9431 9428 9420
3142.4368 9409 9399 9394 9397 9408 9424 9442 9457 9466 9468 9466 9463 9462
3148.7043 9462 9462 9460 9450 9430 9401 9365 9332 9310 9304 9314 9335 9356
3154.9719 9367 9365 9353 9337 9326 9326 9334 9346 9354 9353 9342 9324 9304
3161.2395 9289 9284 9290 9306 9325 9339 9342 9334 9318 9301 9290 9286 9288
3167.5068 9294 9301 9307 9310 9307 9296 9277 9256 9238 9232 9239 9256 9276
3173.7744 9291 9297 9295 9288 9276 9261 9242 9221 9198 9176 9159 9151 9155
3180.0420 9169 9190 9209 9218 9214 9197 9173 9150 9132 9118 9110 9106 9109
3186.3096 9117 9129 9139 9142 9137 9127 9119 9117 9121 9127 9131 9128 9120
3192.5769 9109 9097 9087 9081 9080 9083 9090 9099 9104 9102 9092 9073 9049
3198.8445 9025 9008 9001 9005 9017 9031 9041 9045 9042 9040 9042 9053 9070
3205.1121 9089 9103 9109 9108 9103 9097 9090 9084 9078 9074 9074 9077 9081
3211.3796 9082 9079 9072 9063 9058 9060 9067 9078 9090 9100 9107 9110 9109
3217.6470 9104 9097 9090 9086 9086 9088 9091 9092 9092 9090 9089 9087 9084
3223.9146 9079 9072 9065 9060 9059 9060 9064 9069 9073 9075 9075 9071 9067
3230.1821 9066 9071 9083 9100 9116 9128 9131 9128 9125 9126 9133 9142 9146
3236.4497 9141 9129 9115 9108 9111 9124 9138 9145 9141 9127 9112 9101 9099
3242.7170 9105 9113 9122 9129 9136 9143 9152 9159 9163 9163 9158 9149 9136
3248.9846 9121 9108 9101 9106 9126 9158 9194 9224 9239 9235 9218 9194 9174
3255.2522 9161 9159 9165 9179 9196 9214 9228 9234 9233 9227 9221 9218 9223
3261.5198 9233 9247 9259 9267 9270 9267 9259 9249 9237 9228 9221 9218 9220
3267.7871 9225 9232 9241 9251 9263 9275 9285 9290 9289 9282 9275 9270 9269
3274.0547 9270 9271 9269 9263 9257 9253 9251 9252 9253 9254 9256 9261 9271
3280.3223 9285 9303 9322 9340 9356 9369 9378 9381 9377 9366 9350 9333 9318
3286.5898 9308 9303 9303 9306 9315 9328 9345 9362 9376 9381 9376 9364 9350
3292.8572 9339 9335 9338 9344 9353 9363 9374 9385 9391 9391 9386 9380 9377
3299.1248 9384 9399 9419 9436 9445 9442 9431 9418 9408 9407 9415 9428 9440
3305.3923 9445 9443 9439 9437 9442 9451 9458 9456 9444 9428 9415 9414 9425
3311.6599 9444 9463 9478 9484 9480 9469 9454 9440 9432 9434 9445 9463 9483
3317.9272 9499 9511 9518 9524 9529 9534 9537 9540 9542 9545 9549 9553 9554
3324.1948 9551 9547 9544 9544 9549 9558 9569 9579 9587 9595 9601 9608 9614
3330.4624 9618 9621 9622 9622 9621 9620 9620 9620 9621 9625 9632 9644 9659
3336.7300 9677 9697 9715 9726 9727 9713 9687 9658 9637 9632 9647 9674 9703
3342.9973 9724 9737 9744 9752 9764 9775 9781 9778 9770 9763 9765 9777 9797
3349.2649 9815 9825 9822 9809 9794 9784 9784 9794 9813 9833 9852 9865 9874
3355.5325 9881 9888 9895 9900 9899 9891 9876 9859 9843 9832 9826 9825 9826
3361.8000 9827 9827 9827 9831 9841 9860 9884 9910 9932 9947 9958 9968 9982
3368.0674 9998 10013 10024 10026 10022 10014 10006 10002 9999 9994 9986 9974
3373.8528 9960 9946 9932 9921 9914 9913 9921 9937 9958 9976 9987 9987 9982
3380.1204 9979 9983 9996 10014 10030 10039 10039 10031 10020 10011 10005 10001
3385.9058 9999 9996 9992 9986 9975 9961 9944 9928 9919 9919 9930 9949 9969
3392.1733 9987 9998 10003 10002 9997 9988 9977 9965 9958 9961 9974 9995 10013
3398.4409 10019 10010 9989 9966 9953 9954 9968 9985 9993 9987 9970 9949 9936
3404.7083 9936 9949 9969 9986 9995 9996 9992 9991 9996 10007 10021 10034 10043
3410.9758 10044 10037 10023 10006 9992 9988 9999 10024 10056 10085 10099 10095
3416.7612 10076 10048 10019 9996 9981 9974 9976 9987 10005 10024 10038 10040
3422.5466 10031 10013 9994 9983 9984 9997 10018 10041 10059 10065 10058 10042
3428.3320 10022 10006 9999 10001 10009 10017 10022 10022 10016 10004 9990 9976
3434.1174 9969 9975 9996 10030 10066 10092 10098 10082 10050 10014 9985 9968
3439.9028 9962 9964 9968 9972 9972 9970 9963 9952 9938 9922 9910 9908 9921
3446.1704 9950 9990 10032 10065 10083 10088 10081 10068 10052 10034 10015 9998
3451.9558 9986 9983 9988 10002 10020 10037 10050 10055 10052 10045 10036 10030
3457.7412 10027 10026 10025 10021 10015 10008 10001 9995 9988 9981 9973 9969
3463.5266 9970 9980 9995 10011 10023 10028 10027 10027 10031 10041 10051 10056
3469.3120 10050 10034 10012 9994 9985 9987 9996 10004 10004 9992 9970 9948
3475.0974 9936 9938 9953 9975 9996 10010 10018 10026 10035 10048 10058 10060
3480.8828 10051 10032 10008 9986 9972 9968 9972 9981 9993 10005 10013 10015
3486.6682 10011 10003 9995 9991 9993 9999 10004 10002 9995 9987 9985 9995
3492.4536 10015 10038 10055 10060 10054 10042 10032 10029 10032 10038 10040
3497.7568 10031 10012 9986 9960 9941 9934 9940 9955 9974 9992 10004 10008
3503.5422 10004 9997 9991 9989 9992 9997 10001 10000 9993 9981 9968 9957 9948
3509.8098 9941 9937 9935 9935 9936 9938 9942 9948 9955 9961 9964 9961 9952
3516.0774 9943 9942 9953 9976 10001 10015 10009 9987 9961 9943 9941 9952 9965
3522.3447 9971 9965 9953 9945 9948 9958 9969 9975 9970 9955 9934 9914 9900
3528.6123 9895 9901 9913 9926 9931 9926 9910 9888 9867 9851 9842 9840 9846
3534.8799 9860 9878 9893 9899 9895 9885 9880 9886 9905 9930 9949 9954 9942
3541.1475 9919 9894 9871 9852 9831 9808 9786 9774 9782 9814 9865 9919 9962
3547.4148 9984 9986 9974 9957 9941 9925 9908 9889 9869 9854 9847 9846 9847
3553.6824 9843 9835 9829 9832 9849 9879 9914 9942 9956 9954 9942 9925 9910
3559.9500 9897 9884 9870 9853 9838 9829 9831 9845 9868 9895 9919 9932 9929
3566.2175 9914 9892 9875 9872 9881 9897 9913 9921 9922 9916 9909 9906 9913
3572.4849 9927 9943 9952 9949 9935 9916 9902 9896 9896 9897 9893 9883 9871
3578.7524 9861 9856 9855 9856 9854 9851 9846 9845 9849 9861 9877 9895 9909
3585.0200 9920 9926 9928 9923 9909 9886 9860 9840 9832 9836 9846 9855 9859
3591.2876 9860 9862 9866 9870 9871 9862 9846 9830 9823 9830 9847 9867 9881
3597.5549 9885 9880 9867 9851 9837 9829 9830 9844 9868 9899 9929 9950 9958
3603.8225 9951 9929 9899 9867 9844 9835 9840 9854 9866 9873 9881 9898 9928
3610.0901 9962 9989 9994 9971 9923 9871 9838 9838 9862 9891 9906 9899 9876
3616.3577 9845 9819 9803 9798 9801 9806 9813 9825 9844 9868 9892 9909 9917
3622.6252 9917 9911 9904 9899 9896 9893 9887 9878 9863 9837 9796 9737 9676
3628.8926 9651 9681 9747 9815 9865 9894 9902 9898 9889 9880 9872 9864 9854
3635.1602 9844 9837 9836 9839 9844 9844 9839 9835 9839 9856 9883 9913 9937
3641.4277 9947 9944 9934 9925 9920 9917 9912 9903 9893 9888 9895 9916 9946
3647.6953 9972 9984 9982 9970 9958 9950 9942 9930 9909 9882 9855 9833 9824
3653.9626 9829 9851 9886 9923 9948 9950 9934 9909 9883 9860 9842 9832 9831
3660.2302 9841 9857 9873 9884 9889 9890 9892 9896 9904 9911 9912 9903 9884
3666.4978 9861 9839 9827 9836 9870 9930 10005 10068 10093 10070 10018 9956
3672.2832 9902 9860 9837 9837 9864 9912 9949 9948 9921 9896 9887 9892 9904
3678.5508 9914 9912 9895 9873 9855 9852 9862 9879 9894 9902 9902 9899 9898
3684.8181 9903 9909 9914 9914 9912 9913 9921 9933 9939 9931 9909 9879 9850
3691.0857 9831 9831 9848 9876 9909 9939 9960 9969 9964 9951 9937 9926 9916
3697.3533 9904 9885 9858 9828 9803 9790 9795 9817 9845 9864 9865 9853 9841
3703.6208 9839 9852 9876 9903 9925 9935 9934 9924 9911 9895 9882 9874 9874
3709.8882 9882 9895 9906 9911 9906 9896 9886 9881 9881 9883 9883 9879 9869
3716.1558 9856 9844 9836 9836 9844 9855 9864 9865 9860 9851 9844 9844 9853
3722.4233 9869 9889 9906 9920 9933 9947 9965 9990 10018 10040 10049 10042
3728.2087 10022 9995 9965 9938 9912 9886 9854 9812 9764 9724 9704 9714 9762
3734.4763 9850 9960 10053 10094 10084 10046 10004 9967 9935 9905 9874 9844
3740.2617 9821 9809 9806 9809 9812 9813 9814 9816 9822 9829 9835 9842 9856
3746.5291 9876 9901 9927 9944 9943 9924 9903 9900 9921 9959 9996 10012 9996
3752.7966 9958 9916 9886 9869 9865 9871 9882 9889 9886 9874 9855 9834 9815
3759.0642 9802 9796 9801 9813 9832 9854 9875 9889 9895 9894 9891 9895 9911
3765.3318 9934 9953 9956 9943 9921 9903 9896 9904 9921 9931 9922 9900 9879
3771.5991 9867 9864 9861 9848 9823 9789 9762 9753 9767 9799 9836 9867 9886
3777.8667 9893 9893 9890 9886 9883 9880 9877 9874 9870 9864 9854 9839 9817
3784.1343 9791 9763 9739 9726 9726 9740 9764 9790 9811 9821 9818 9809 9800
3790.4019 9800 9811 9832 9862 9896 9925 9945 9950 9937 9908 9869 9830 9805
3796.6692 9802 9815 9831 9840 9838 9828 9815 9805 9808 9826 9849 9864 9869
3802.9368 9870 9872 9875 9874 9862 9834 9796 9764 9765 9803 9858 9904 9928
3809.2043 9927 9906 9876 9849 9834 9832 9837 9845 9851 9856 9860 9866 9866
3815.4719 9854 9827 9800 9788 9795 9816 9844 9874 9901 9921 9930 9919 9886
3821.7393 9840 9799 9774 9774 9800 9845 9897 9943 9969 9971 9957 9939 9928
3828.0068 9924 9922 9914 9893 9858 9811 9767 9745 9756 9794 9845 9900 9953
3834.2744 9996 10022 10023 9999 9953 9893 9836 9803 9808 9839 9874 9896 9899
3840.5420 9890 9881 9878 9883 9890 9894 9890 9879 9864 9849 9838 9835 9844
3846.8093 9869 9909 9958 10008 10046 10068 10071 10059 10035 10000 9954 9900
3852.5947 9848 9823 9852 9919 9985 10027 10042 10035 10014 9985 9956 9933 9920
3858.8623 9913 9911 9910 9911 9914 9917 9918 9911 9896 9872 9840 9806 9777
3865.1299 9761 9758 9763 9771 9779 9787 9799 9822 9863 9918 9967 9992 9990
3871.3975 9972 9948 9923 9901 9883 9870 9861 9856 9853 9854 9860 9873 9889
3877.6648 9905 9919 9927 9924 9906 9873 9834 9803 9790 9794 9811 9831 9846
3883.9324 9850 9844 9839 9849 9879 9919 9953 9973 9977 9964 9933 9887 9829
3890.2000 9770 9725 9708 9717 9739 9758 9771 9782 9796 9818 9846 9875 9901
3896.4675 9921 9934 9939 9932 9909 9874 9836 9804 9785 9778 9783 9801 9834
3902.7349 9880 9936 9993 10036 10050 10031 9984 9928 9878 9844 9831 9833 9842
3909.0024 9850 9851 9850 9852 9865 9887 9909 9920 9912 9885 9851 9820 9804
3915.2700 9804 9816 9830 9840 9843 9846 9857 9877 9902 9922 9925 9910 9882
3921.5376 9856 9840 9839 9849 9864 9878 9888 9895 9902 9908 9910 9905 9894
3927.8049 9880 9868 9866 9872 9883 9892 9895 9893 9892 9893 9894 9890 9877
3934.0725 9856 9837 9827 9831 9846 9864 9876 9878 9871 9859 9849 9843 9843
3940.3401 9850 9863 9881 9894 9895 9878 9848 9819 9808 9822 9861 9915 9969
3946.6077 10004 10007 9977 9926 9872 9830 9809 9807 9816 9826 9835 9845 9859
3952.8750 9879 9897 9907 9904 9891 9877 9870 9872 9881 9889 9889 9883 9872
3959.1426 9863 9857 9855 9852 9847 9837 9824 9809 9795 9784 9780 9787 9803
3965.4102 9827 9853 9874 9887 9889 9881 9868 9853 9840 9831 9827 9825 9824
3971.6777 9821 9817 9814 9813 9816 9825 9840 9864 9897 9934 9966 9982 9973
3977.9451 9942 9897 9850 9814 9796 9796 9809 9824 9831 9825 9807 9785 9774
3984.2126 9783 9812 9852 9888 9910 9916 9913 9908 9903 9891 9866 9830 9791
3990.4802 9764 9761 9781 9812 9840 9851 9843 9823 9801 9785 9779 9779 9785
3996.7478 9794 9809 9830 9852 9869 9876 9876 9872
##END= 
