##TITLE=X7844
##JCAMP-DX=4.24
##DATA TYPE=INFRARED SPECTRUM
##DATE=30/10/2018
##SAMPLING PROCEDURE=Diamant-ATR
##ORIGIN=ComPlat
##XUNITS=1/CM
##YUNITS=TRANSMITTANCE
##RESOLUTION=4
##FIRSTX=3997.453
##LASTX=373.96442
##DELTAX=-1.4165319
##MAXY=0.90860844
##MINY=0.21089937
##XFACTOR=1
##YFACTOR=8.4620755e-010
##NPOINTS=2559
##FIRSTY=0.90640867
##XYDATA=(X++(Y..Y))
3997+1071142261+1071676951+1072231716+1072306591+1072069569+1071877627
3989+1071867343+1072112888+1072629898+1073075204+1073007232+1072547346
3980+1072201921+1072026109+1071607852+1070868189+1070243832+1070051186
3972+1070161773+1070367943+1070655820+1071042944+1071409289+1071569252
3963+1071439718+1071151911+1070999344+1071192131+1071608204+1071795849
3955+1071328779+1070274965+1069208121+1068688293+1068872980+1069530442
3946+1070219320+1070640254+1071030266+1071899322+1073093799+1073741823
3938+1073338499+1072124229+1070587778+1069280178+1068879178+1069590455
3929+1070604401+1070982579+1070648988+1070187694+1070050975+1069988004
3921+1069405346+1068165859+1066828817+1066245384+1066860232+1068389145
3912+1070175508+1071619474+1072259398+1071727596+1069961096+1067613419
3904+1065918906+1065504382+1065893760+1066796063+1068353575+1070099576
3895+1071119298+1070984693+1070134584+1069575311+1069652510+1069569606
3887+1068731189+1067572354+1066786695+1066146983+1065374073+1065362874
3878+1066752955+1068456202+1069148179+1068514383+1066996810+1065328289
3870+1064680617+1065882983+1067846355+1068872346+1068609474+1067933345
3861+1067537417+1067268487+1066835649+1066140009+1065073447+1063673292
3853+1062996178+1064337235+1066856428+1069166985+1070528047+1070593413
3844+1069413516+1067491491+1065503889+1063879040+1062970679+1063350759
3836+1064989274+1066777397+1067637931+1067482475+1067094506+1067174594
3827+1067792541+1068632929+1069177551+1068872769+1067700761+1066676601
3819+1066545658+1066754153+1067104790+1068109016+1069450073+1070063583
3810+1069407670+1067758379+1066239819+1066171424+1067087392+1067077038
3802+1065485435+1064036749+1064491070+1066462824+1068938839+1071023644
3793+1071979973+1071814797+1071140641+1070526497+1070182270+1070011107
3785+1069817052+1069509452+1069021603+1068188962+1067149377+1066579116
3776+1066864669+1067659414+1068484870+1069024209+1069016883+1068406050
3768+1067541361+1066908199+1066811137+1067173185+1067484518+1067302226
3759+1066713511+1066119935+1065634269+1064986597+1063814026+1061988641
3751+1060438667+1060807688+1062605955+1063827480+1063462896+1062145928
3742+1061396615+1061259474+1060639061+1058882212+1056332379+1054325195
3734+1054091766+1055596872+1058022242+1060463672+1062177132+1062853683
3725+1062724149+1062261657+1061839878+1061805152+1062419155+1063499382
3717+1064474306+1064779511+1064080279+1062500299+1061112753+1061399574
3708+1063301524+1065432748+1066662303+1066591513+1065503537+1064196572
3700+1063396332+1063243976+1063570665+1064211645+1065030057+1065865656
3691+1066397669+1066222773+1065514807+1065064078+1064986175+1064746194
3683+1064067601+1063146773+1062351464+1061672800+1060623988+1059374287
3674+1059365765+1060559608+1061079154+1060396334+1060468532+1062684070
3666+1065428592+1066699494+1066009489+1064270249+1062637088+1061516077
3657+1060913485+1060929193+1061121416+1060388445+1058139379+1055042107
3649+1052967374+1053141354+1054866436+1057168893+1059274126+1060537138
3640+1060945816+1061029355+1060895735+1060029355+1058284128+1056288848
3632+1054386757+1051993084+1049116844+1047909829+1049326043+1051432613
3623+1052755498+1053124167+1052805156+1052035276+1051156217+1050398874
3615+1049587013+1048639490+1047877005+1047566869+1047786211+1048579829
3606+1049358867+1048975617+1047122480+1044659566+1042585396+1041090715
3598+1039698027+1038003445+1036106918+1034663797+1034131995+1033941603
3589+1033087831+1031511583+1030630905+1031350211+1032506300+1032624705
3581+1031490734+1030051628+1029115515+1028441147+1027603013+1026940902
3572+1026786362+1026516939+1025234627+1023067127+1021437418+1021323239
3564+1021887090+1022139256+1022060155+1022036910+1022193281+1022197930
3555+1021518632+1019983449+1018239349+1017227798+1016953092+1016500673
3547+1015245408+1013533216+1012318031+1012347544+1013658595+1015469822
3538+1016573082+1016278513+1014977958+1013480247+1012054877+1010486095
3530+1008660781+1006770453+1005112568+1003936968+1003476378+1003814196
3521+1004474265+1004547801+1003646837+1002451585+1001843710+1001662968
3513+1000966765+999461095+998011494+997514136+997707204+997570345+996590701
3503+995237458+994275988+993840051+993496035+992926267+992184421+991462578
3493+990796381+990025163+989103349+988362277+988176393+988316986+988017063
3483+986849423+985281980+984166533+983768773+983655228+983432787+983123003
3473+982800259+982272754+981332485+980037564+978612053+977291845+976274306
3463+975580428+974984105+974308188+973702778+973406730+973334180+973088494
3454+972409407+971543802+971032286+971019114+970934871+970137168+968771176
3444+967585433+967075043+967128083+967220919+966838233+965900711+964802099
3434+963934734+963351230+962934170+962597691+962268819+961886626+961381801
3424+960586281+959428995+958257551+957604103+957618120+958015669+958403497
3414+958423924+957894517+956995524+956096602+955413008+955013628+954977071
3404+955280445+955656158+955721171+955190144+953975451+952301155+950774776
3394+950087519+950409347+951151123+951540079+951357505+950889730+950408361
3384+950086533+950242974+951108297+952239170+952681023+952052863+951109495
3374+950800768+951144291+951436817+951212615+950605304+950059907+949883673
3364+949924175+949855991+949898747+950663978+952074557+953141754+953107240
3354+952215996+951181764+950503733+950412658+950903043+951641649+952169084
3344+952240015+951850285+951140558+950408643+949928542+949660457+949425901
3335+949372016+949916215+951178805+952697506+953800626+954230928+954287770
3325+954321862+954344120+954256355+954101464+953939599+953798865+953813727
3315+954171267+954935654+955964462+956850635+957111112+956711591+956242760
3305+956359968+957192186+958299320+959103574+959393706+959409906+959412583
3295+959419838+959477526+959814710+960506335+961252055+961733424+962021513
3285+962407862+962987421+963693345+964586279+965718701+966765260+967231767
3275+967098851+966919658+967202042+967939028+968807451+969541479+970010099
3265+970263391+970651994+971505132+972547887+973114908+973051162+972862672
3255+972930855+973112020+973151888+973082295+973185275+973762087+974875490
3245+976188443+977196332+977834917+978584934+979626492+980327414+980204219
3235+979879010+980231267+981146108+981881756+982087997+981886475+981574860
3225+981655581+982574437+984131667+985553234+986310577+986636843+987082289
3216+987800327+988567179+989300010+990102855+990902812+991483216+991815892
3206+992035234+992173362+992170615+992100177+992247814+992925985+994224005
3196+995909220+997484552+998438978+998701287+998731646+998870266+998924574
3186+998799829+999009451+999985572+1001363891+1002457290+1003029523+1003219564
3176+1003069321+1002570624+1002013816+1001863926+1002289086+1003110456
3167+1004108342+1005086506+1005846526+1006372834+1006808137+1007181455
3159+1007442919+1007598022+1007535966+1007176665+1006946335+1007424746
3150+1008460105+1009365648+1009852793+1010043819+1009904916+1009383891
3142+1008784398+1008528570+1008849976+1009801162+1011091857+1012001203
3133+1012001203+1011402908+1010973733+1011072627+1011491730+1011900900
3125+1012187017+1012456370+1012808416+1013170323+1013447001+1013673457
3116+1013838915+1013771365+1013407345+1012913367+1012411078+1011927033
3108+1011699943+1012085446+1013002048+1013877866+1014316410+1014479613
3099+1014652044+1014830743+1014984367+1015322678+1015924777+1016361700
3091+1016137850+1015425658+1014984719+1015278796+1015905688+1016012964
3082+1015103266+1013344937+1011315214+1009572522+1008310003+1007348603
3074+1006528360+1005942602+1005635002+1005329022+1004696917+1003736715
3065+1002819690+1002415239+1002613732+1002934363+1002887310+1002519839
3057+1002008252+1001151381+999881113+998738126+998193434+997976839+997583164
3047+997039528+996793420+997104190+997837020+998824905+1000210126+1002153212
3037+1004320218+1006132783+1007485251+1008730936+1010064175+1011310987
3029+1012188144+1012543501+1012502788+1012325567+1012004232+1011333457
3020+1010367831+1009249144+1007722555+1005529346+1003048753+1000906541
3012+999221467+997693117+996062421+994217596+992199142+990178012+988160896
3002+985899363+983408345+981302620+980249581+980229436+980635930+981051088
2992+981622053+982572747+983640507+984261906+984090320+983025166+981017278
2982+978185766+974829143+971066800+966825836+962266988+957700532+952987496
2972+947531135+940957778+933480638+925616657+917830790+910485016+903939693
2962+898482134+894144037+890801712+888419591+886931319+886058177+885572864
2952+885506441+885842639+886366764+886961748+887632735+888160099+888130445
2942+887342603+885886662+883869195+881389869+878832358+876820949+875644292
2932+874999367+874592732+874680075+875674298+877485525+879452771+880779952
2922+881098822+880757483+880364935+880012819+879312530+878212650+877342537
2912+877404029+878464816+879998520+881542437+883128757+885023804+887259064
2902+889536164+891429169+892646961+893252863+893618856+894109734+894846579
2893+895694082+896338161+896499392+896203203+895750925+895387679+895134527
2883+894992455+895150023+895815093+896891447+898065568+899275963+900863622
2873+903186717+906251166+909666816+912796701+915061826+916302088+916842554
2863+917179456+917604827+918060768+918350548+918554745+919141489+920547349
2853+922721539+925176141+927415909+929234109+930576434+931229530+930774716
2843+928805850+925122750+919902213+913841287+908031119+903644983+901782478
2833+903309701+908417750+916302510+925525511+934769290+943235300+950519511
2823+956449423+961116393+964810341+967762512+970111176+972132940+974163509
2813+976202460+977949800+979314454+980583172+982048693+983701647+985284163
2803+986480894+987095461+987190974+987110745+987312619+988098630+989438137
2793+990992197+992295923+993050871+993386082+993750032+994452293+995402845
2783+996300992+996904782+997136802+997107712+997042839+997074325+997128350
2774+997052982+996855264+996778558+997081932+997769260+998643881+999538365
2764+1000302540+1000732842+1000777499+1000683677+1000713120+1000823002
2755+1000748338+1000310147+999600913+998924785+998528645+998349664+998087214
2745+997572599+996965147+996488074+996117714+995767852+995656984+996123561
2735+997086933+998046008+998664096+999044106+999379036+999655080+999805957
2725+999897807+1000012690+1000115388+1000159200+1000211606+1000392207
2717+1000759256+1001259080+1001722699+1001972892+1002049739+1002252599
2708+1002841456+1003730094+1004561396+1005058402+1005231466+1005239778
2700+1005149477+1004906539+1004536813+1004249992+1004236045+1004427424
2691+1004634087+1004861318+1005228438+1005608447+1005700509+1005504764
2683+1005385161+1005574215+1005906961+1006122852+1006172439+1006113765
2674+1005921964+1005580061+1005229072+1005080519+1005212167+1005501594
2666+1005716498+1005709314+1005581470+1005551957+1005656767+1005772003
2657+1005894705+1006151590+1006590978+1007158704+1007714384+1007982891
2649+1007761014+1007258161+1006960352+1007117005+1007537445+1007852019
2640+1007862162+1007630141+1007279997+1006819407+1006280138+1005923091
2632+1006089394+1006835537+1007831451+1008657048+1009153420+1009380580
2623+1009317821+1008909495+1008408192+1008220618+1008361915+1008511101
2615+1008585131+1008762704+1009014236+1009137853+1009196105+1009446651
2606+1009864274+1010121863+1010045932+1009769465+1009389033+1008785244
2598+1007969086+1007363183+1007405164+1007989090+1008636550+1009100521
2589+1009419955+1009503987+1009130316+1008393964+1007814757+1007838636
2581+1008330782+1008714736+1008695084+1008626478+1008931542+1009478136
2572+1009967394+1010496590+1011122920+1011403190+1011141374+1011019588
2564+1011656201+1012533499+1012622179+1011658103+1010163422+1008657189
2555+1007419252+1006677053+1006523499+1006792500+1007187020+1007388048
2547+1007106510+1006331769+1005513146+1005225831+1005674870+1006636199
2538+1007696282+1008445313+1008695295+1008647116+1008664162+1008882870
2530+1009166310+1009321272+1009254709+1009074882+1009019800+1009084462
2521+1008892168+1008227309+1007488773+1007305988+1007835325+1008646623
2513+1009238931+1009569071+1010016912+1010805529+1011600203+1011887165
2504+1011640634+1011280840+1010989511+1010498140+1009696140+1008994161
2496+1008762986+1008787639+1008633381+1008232451+1007785596+1007398825
2487+1007121020+1007100804+1007491379+1008261190+1009098901+1009526245
2479+1009289998+1008665711+1008141587+1007829268+1007445806+1006865402
2470+1006392697+1006349801+1006550336+1006459542+1005965847+1005701284
2462+1006262106+1007301973+1007888646+1007725654+1007444116+1007600064
2453+1008056146+1008562450+1009216532+1009980284+1010417067+1010329372
2445+1010077911+1009981904+1009971761+1009989934+1010130950+1010261541
2436+1010071994+1009614644+1009324653+1009515539+1010200119+1011226110
2428+1012201527+1012601048+1012368041+1012055511+1012009867+1011933724
2419+1011576748+1011200542+1011038043+1010913932+1010670359+1010456300
2411+1010464964+1010716144+1011068471+1011295209+1011321764+1011330710
2402+1011388891+1011175395+1010426223+1009398612+1008573298+1008131373
2394+1007976270+1008020787+1008195472+1008307537+1007987681+1006743828
2385+1004265840+1000858080+997306345+994075876+990885767+987257185+983192948
2376+979099691+975254866+971495130+967369542+962645307+957558460+952501197
2366+947956506+944840075+943840780+944190079+944368144+944235299+945105835
2356+947672362+951299676+955235153+959103645+962301431+963927549+963314462
2346+960621711+957225150+954919735+954309113+954662356+955150347+955763645
2336+956971998+958626572+959850633+960282485+960630586+961494149+962526549
2326+963306502+964075115+965235853+966923180+969325025+972578175+976058486
2316+978602332+979687913+979922963+980291914+981242678+982621067+984253171
2306+986179141+988240420+989954725+991175405+992469974+994393196+996658462
2296+998359032+998843430+998253728+997396082+997135887+997786728+999040161
2286+1000397912+1001503568+1002160467+1002391924+1002517162+1002853782
2278+1003245132+1003137363+1002237596+1000944929+1000039386+999967610
2269+1000436723+1000721290+1000413479+999885128+999919290+1000805534+1001943238
2259+1002556959+1002566679+1002349521+1001989656+1001338040+1000464617
2251+999601618+999135745+999754326+1001737420+1004076505+1005291550+1005245836
2241+1005227381+1006035720+1006784259+1006129543+1004226607+1002611196
2232+1002296411+1002899073+1003545125+1003823141+1003979512+1004652542
2224+1006129332+1007830958+1008893999+1008923019+1007891816+1006046568
2215+1004193360+1003339096+1003809054+1005053753+1006398543+1007813842
2207+1009619222+1011345572+1011655285+1009986483+1007500607+1005805602
2198+1005439961+1005795952+1005830748+1004791585+1002718331+1000396292
2190+998804548+998307965+998189771+997508782+996637472+996924363+998624088
2180+1000583092+1001981627+1002773272+1002626129+1001132715+999091651+998208719
2170+999286763+1001424256+1003056078+1003360016+1002733757+1002555902
2162+1004106793+1006731431+1007963803+1006853005+1005100664+1004179132
2153+1004439257+1005859768+1007416505+1007416575+1005748477+1004038750
2145+1003202377+1002737772+1001892946+999964863+996844558+994379531+995212242
2135+999324658+1003656909+1005650639+1005358606+1004147294+1003003814
2126+1002018888+1000731504+999126659+998082777+998190827+998742070+998883156
2116+999036992+999965145+1001079887+1000976767+999427285+997782995+997250277
2106+997496244+997374529+996637613+996159202+996469690+996984376+997012199
2096+996748552+996757849+997019031+997028963+996558582+995909220+995545059
2087+995675720+996049883+995980432+994826386+992779757+991000720+990560557
2077+991326071+992220273+992495542+992294021+992019174+991754400+991443138
2067+991198438+991104615+990787366+989546963+987181817+984464343+982639944
2057+982663259+984649522+987183930+987568236+984353474+979702353+977795824
2047+980478150+985757855+990788140+994571332+997273381+998308176+996532591
2037+992476384+988898587+988055733+989668045+992515476+995983813+998857588
2027+999250558+997397703+996225202+997557736+999552382+999466448+997524983
2017+996231612+996915840+998787643+1000350860+1000245627+998187024+995940071
2007+995453631+995868718+994827161+992437079+991208511+992503361+994918377
1997+996002690+994611552+991510335+988391227+986722354+987021924+988586972
1987+989778984+988980435+986040238+982826744+981818926+984131033+988970926
1977+994313531+997822440+998313529+996798351+995206677+994311841+993924787
1968+994464197+996507092+999015579+1000073971+999335998+998293032+998095878
1958+998166738+997223863+994786448+991536044+989005370+988871680+991594085
1948+995472860+997922320+997975782+996787433+995797858+995382348+995393477
1938+995786025+996285778+996370866+995832584+994932887+994128704+993812581
1928+993898937+993638037+992419752+990731650+989760529+990029530+991113420
1918+992427430+993545412+994020934+993543792+992410595+991484766+991259648
1908+991288950+991154344+991210905+991668396+991907672+991387069+990416794
1898+989507659+988716788+987980225+987431869+987149909+986976421+986700307
1888+986428630+986750951+988041294+989570912+989972687+988918028+987510478
1878+986761094+986588523+986423981+986031927+985535906+984962757+983939514
1868+982203373+980485264+979756378+979950786+980340868+980343685+979774974
1858+978878658+978226338+978233663+978808855+979587399+980224787+980477094
1849+980373269+980250356+980428069+980992766+981835690+982747431+983552249
1839+984126666+984304661+983959729+983219432+982320863+981369254+980633253
1829+980755533+981978326+983700801+985110394+985801455+985832096+985466737
1819+985147233+985299378+985824418+986222671+986231757+985894292+985325933
1809+984845338+984880487+985383832+985775323+985624446+985101801+984662131
1799+984503294+984545839+984672908+984703055+984417783+983959166+983891898
1789+984372422+984954657+985117579+984585565+983567322+982658328+982281981
1779+982312481+982326568+982034887+981285151+980046510+978755534+978119907
1769+978187667+978463430+978518300+978103283+977116808+975698481+974292269
1759+973232679+972435187+971685311+970798786+969512106+967528731+964963683
1749+962764909+961792240+961698699+961648054+961282484+960775969+960358416
1740+960047999+959774209+959369546+958469286+957024404+955969815+955939457
1730+956567406+957330313+957730045+957509858+956939667+956387227+955618967
1720+954118650+952154645+951231140+952165281+953840916+955290517+956322566
1710+956856692+956700110+955948543+955304323+955164716+954766181+953075966
1700+950108509+946865220+943246570+938428794+932644053+925979761+917033932
1690+904674778+890189259+875102699+857376216+835368972+816801748+808300942
1680+806625448+808675528+814710040+826074125+841075386+855375583+868224277
1670+882240683+897242788+909287933+917072179+922324343+926814163+931138806
1660+934785843+937343424+938838739+939329758+939165780+939716530+941424637
1650+942579880+942866912+943346802+945193600+947755267+949493450+950099141
1640+950096042+949990386+949979820+950347926+951375396+952483165+953031027
1630+952989891+952665668+952478375+952577903+952783087+953081178+953561209
1621+953835633+953343980+952011164+950540502+949703213+949341235+949175003
1611+949469501+950628548+952502535+954440901+956092940+957632490+959190635
1601+960434066+960721451+959498376+956644746+952704972+948791753+946186485
1591+945924317+948355323+952820912+957997285+962731804+966543241+969442796
1581+971458503+972538801+973001433+973971356+976311638+978836466+980146531
1571+980263668+980242889+980986919+982085109+982849988+983054609+982338120
1561+980065669+976827874+976549998+979830478+982689673+984150262+984698829
1551+984781804+984677557+984253664+982979875+980570916+977426591+974145055
1541+971012282+969175909+969386869+969695877+968473578+965777305+963179081
1531+961875567+961007779+959432165+957019262+954209515+950722441+945209871
1521+936800282+925657651+909497625+883501441+846184913+799995318+745501296
1511+682785612+613498190+530626567+419901538+313822382+261165173+249228890
1502+259607327+288874148+337776058+403306526+472126102+528521898+571005184
1492+608107054+646487820+683978469+713764184+734603154+749142346+759523266
1482+766989629+772063445+774728866+774899183+772579962+767491777+758991675
1472+747677248+735684298+723793974+711677336+700527028+693993467+694363475
1462+699153640+704823778+709643738+713249146+715909918+718118905+720455876
1452+723164194+725451648+725319014+720564702+710687620+697637123+684808996
1442+676074902+674167176+679835131+693501533+713825324+734130026+749425997
1432+761234190+772274968+782944048+791873254+798305455+802606714+805358632
1422+807148868+809073570+812924311+819506544+826883591+833044256+837733132
1412+841454621+844715660+847569994+849697274+851114192+852344803+853656136
1402+854629299+854810957+854241260+853299582+852306204+851482650+851046079
1392+850748763+849747988+847154414+842518225+836387285+830262895+825448993
1383+822722855+822688552+825313613+829483506+833790540+837576268+840885064
1373+843703475+845746863+846919364+847500754+847899007+848391646+849249926
1363+850895132+853471590+856475252+859277532+861641129+863755941+866025927
1353+868651480+871447562+874118759+876553780+878844896+881098188+883186868
1343+884764243+885715711+886525811+887835594+889579765+891177003+892329781
1333+893051623+893323371+893105367+892496929+891666965+890721696+889760507
1323+888938855+888368171+888027818+887804884+887517499+886917795+885830031
1313+884302314+882470942+880257659+877376418+873662677+869235124+864304719
1303+858972186+853286763+847396225+841606061+836383622+832294380+829838651
1293+829367354+831154844+835337838+841641702+849282045+857242526+864628590
1283+870813908+875459464+878536733+880282875+881031625+881009860+880288299
1273+878962879+877325210+875690640+874040856+872023036+869386776+866271753
1264+862950701+859412913+855361425+850536817+844817653+838000724+829641356
1254+819132873+805917130+789800564+771250738+751265821+730729169+709858643
1244+688240142+665188522+640080413+612695134+583472249+553367628+523475447
1234+494848779+468415954+444742231+423895866+405630220+389652098+375737862
1224+363629183+352795843+342434011+331898692+321162309+310869929+302113470
1214+296217861+294573184+298403075+308453856+324734365+346463100+372289037
1204+400723199+430499159+460586311+490052944+518135131+544378022+568528007
1194+590264208+609048590+624125571+634567843+639346315+637547485+628948560
1184+614849320+598477278+584321829+576518177+577122565+585331021+598187709
1174+612283850+625234749+636064496+644751609+651778090+657957421+664248888
1164+671488372+680201476+690472021+701800958+713169904+723475668+732091921
1154+739155522+745388526+751546303+757914054+764359567+770774652+777177903
1145+783410766+789078299+793847473+797578823+800175215+801428860+800925444
1135+798048429+792184306+782857621+769574610+751744021+728992957+701594084
1125+670634811+637836349+605105928+574099111+546071689+521995065+502719558
1115+488962715+481026394+478473990+480139798+484492829+490127749+496268515
1105+503181345+512194619+525102375+543133394+566034735+591891594+617909754
1095+641658985+661909803+678621495+692321636+703486666+712368045+719146234
1085+724021064+727199058+728882441+729132635+727759176+724668102+720320073
1075+715480532+710567102+705617115+700809200+696575984+693112930+690062005
1065+686835691+683148294+679062362+674565569+669361656+663131892+655756605
1055+647213677+637453662+626395979+613888695+599699014+583679792+565932671
1045+546783811+526711622+506365362+486612184+468524639+453259308+441824715
1035+434910511+432914492+435986160+443895222+455934661+471119693+488474266
1026+507092628+526116567+544808888+562548789+578792671+593272800+606133962
1016+617543902+627183892+634246648+637875582+637794297+634952360+631528681
1006+629860231+631171916+635347303+641660817+649428863+658052793+666767376
996+674607198+680746943+684845412+686998261+687530274+687109199+686962901
986+688551053+692800822+699716857+708636554+718622462+728705080+738108470
976+746392470+753401905+759219611+764133041+768391473+772013082+775020688
966+777709001+780406682+783091473+785487119+787478666+789230091+790854096
956+792131618+792706317+792474508+791638768+790497119+789408227+788850645
946+789207129+790455420+792256433+794370259+796787952+799403785+801885153
936+804063007+806081812+807929737+809301435+810200075+811103575+812209724
926+813087585+813419415+813584591+814174082+815266565+816474496+817512109
916+818466606+819573177+820920363+822400041+823830976+825126461+826371441
907+827669391+828983189+830267122+831600431+832997134+834250144+835190342
897+835929512+836627406+837113142+836968675+836065809+834834634+833764760
887+832758703+831299734+829167383+826681154+824313191+822278748+820372712
877+818088216+815049900+811313690+807038000+802013420+795877126+788808453
867+781737033+775746404+771322443+768190797+765856150+764191926+763366682
857+763317517+763675057+764227920+764961455+765473534+764853192+762402042
847+758086132+752055636+744028451+733358948+719511734+702294090+681795122
837+658371240+632670400+605472414+577518423+549623036+522841828+498448587
827+478059113+464008300+459285191+466563486+486746261+517874795+555336177
817+593627312+628415137+657420899+680136462+697170123+709575343+718280770
807+723890474+726905193+727984576+727924775+727495529+727363459+727991972
798+729524901+731989857+735602097+740516161+746316468+752131215+757256309
788+761527210+765195800+768488888+771260529+773262993+774693154+776081122
778+777695688+779435069+781185297+782947288+784672511+786143948+787015751
768+786997367+785999903+783953979+780383156+774089435+763266168+746215672
758+722310986+692401019+658649327+624462262+594320627+572777072+562796130
748+564575906+575866948+593505244+614655054+636903405+657922836+675691511
738+689216545+699015653+706910627+715100593+724819402+735558989+745732120
728+754137694+760647728+765660757+769389853+771860021+773287365+774171565
718+775003431+775967789+776955673+777862554+778825222+780039844+781409358
708+782682021+783978280+785749639+788005326+789967078+790817468+790581855
698+790009410+789683778+789476129+788950948+788129789+787550230+787563684
688+787861634+787858887+787413582+786952428+786892204+787211849+787739918
679+788512827+789502050+790305388+790341523+788997296+785725057+781023995
669+778324271+781455636+787103728+790126266+789966444+788540721+787731606
659+787977010+788523745+788618765+788060619+786928902+785312646+783423656
649+781578408+779768731+777440423+774054216+770082393+767336533+767769089
639+771610039+777070768+782074076+785751048+788255027+789901360+790840712
629+791182686+791086398+790727308+790168529+789204945+787484442+785082175
619+782942569+782256509+783110703+784241364+784428375+783441195+781461764
609+778595737+775329837+772538756+770487619+768394291+765385347+761561935
599+757875524+755171785+753560178+752573139+751721974+750886234+750225250
589+749798752+749438112+749002246+748610755+748522990+748765928+748971605
579+748708310+747899407+746754730+745583356+744908918+745353026+746937515
569+748744093+749840380+750335977+750769520+750913634+750131357+748529399
560+746804670+745148898+743304214+741744589+741753816+743652597+745493760
550+744618505+740754944+736461081+734138972+733773402+733838556+733250968
540+731918856+730141650+728082625+725778266+723333807+720831026+718207585
530+715515962+713013815+710886042+709336561+708722417+708809759+708365300
520+706509909+704476804+704921334+708909921+714901466+720811656+725746076
510+729935057+733938155+738113049+742412828+746231239+748644212+749632449
500+750857425+753900602+758257225+761976318+763913206+764794448+765983572
490+767949831+770219676+772139447+773394570+774344348+775958773+778873190
480+782416754+784881851+785081963+783728086+782747457+783384070+785415273
470+788086822+791035120+793949889+796350606+797918754+798454148+797877055
460+796931785+797415056+800538390+804721948+807160772+807119144+805720680
450+804039269+802375327+801092380+800848597+801528740+801995599+801306440
441+799592487+797660389+796284466+795689129+795382304+794966230+794824721
431+795609253+797392798+799381879+800322007+799426043+797399982+795661024
421+794364976+793281438+794779853+800697438+808038986+812349401+811519297
411+807185777+802093366+797091748+792817467+791692441+795534378+802600867
401+808506619+809696307+807924243+809614458+814940370+817912405+816837671
391+814746667+812756670+808267837+800533882+794577134+795962637+803090266
381+810598962+815556345+816161613+810349120+800099425+794142958
##END=
