##TITLE=X7838
##JCAMP-DX=5.0
##DATA TYPE=LINK
##BLOCKS=1


$$ === CHEMSPECTRA SPECTRUM ORIG ===
##TITLE=X7838
##JCAMP-DX=5.00
##DATA TYPE=INFRARED SPECTRUM
##DATA CLASS=XYDATA
##ORIGIN=ComPlat
##OWNER=
##XUNITS=1/CM
##YUNITS=TRANSMITTANCE
##XFACTOR=1
##YFACTOR=9.0764851e-010
##FIRSTX=3997.453
##LASTX=373.96442
##MAXX=3997.453
##MAXY=0.9745801657706338
##MINX=373.96442
##MINY=0.23845311883150516
##NPOINTS=2559
##XYDATA= (X++(Y..Y))
2559A071415422A072233465A072963707A073124860A072774317A072193012A071537108
2552A070991593A070885143A071316853A071941433A072374457A072545919A072520440
2545A072277463A071848774A071442806A071265696A071282245A071268323A071085434
2538A070811987A070586544A070427428A070335097A070488500A071095087A072008350
2531A072727889A072815163A072217244A071272592A070470113A070134083A070272908
2524A070618131A070796095A070698051A070763523A071527454A072730713A073578766
2517A073741823A073255345A072056223A070417577A069299032A069355573A070022905
2510A070454024A070497562A070385728A070254061A070031836A069528940A068677209
2503A067815300A067625581A068457940A069920461A071409578A072593924A073202678
2496A072803146A071232402A069149634A067698146A067274185A067438883A068245631
2489A069922496A071697669A072438944A071807862A070496709A069771129A070071434
2482A070455994A070017717A068803032A067495096A066476106A065950489A066552019
2475A068222252A069691669A069985867A069047125A067407428A065959748A065838588
2468A067254418A068724360A069040361A068524988A068150870A068186725A068250556
2461A068160786A067878605A067094776A065525214A064460386A065908526A068784841
2454A071309760A072838016A073182189A072269058A070314345A067997204A066163914
2447A065477932A066087737A067241744A067995102A068152052A068119217A068295145
2440A068713525A069216486A069651742A069772967A069279988A068186791A067139169
2433A066768006A067156374A068466936A070465581A071986220A072185198A071088718
2426A069238616A067770382A067695782A068131235A067311025A065257677A064096973
2419A065136058A067506720A070213083A072434676A073366326A073002124A072175610
2412A071764520A071962973A072258550A072098186A071425141A070453827A069345198
2405A068509359A068505550A069178266A069843956A070180314A070248873A070021591
2398A069296799A068186594A067394294A067678445A068870474A069748341A069296274
2391A067802823A066598973A066381017A066481885A065962506A064533542A063044425
2384A062746352A063221338A063341382A062971204A062694145A062724944A062474153
2377A061342868A059182019A056738530A055710871A057112057A060033750A063083170
2370A065367608A066414114A066301425A065606513A064844552A064223846A064026706
2363A064525005A065520552A066420812A066599761A065694707A064062693A063164600
2356A064274608A066576580A068397392A068863513A068039889A066721840A065923564
2349A065928883A066278310A066678236A067157359A067730521A068259290A068467593
2342A068122238A067449062A066999359A066877936A066824087A066650392A066351203
2335A066057398A065753087A065107689A064178928A063882891A064209136A064079767
2328A063545810A064309150A066964620A069728641A070932293A070264436A068541143
2321A066727028A065222216A064386771A064741188A065653532A065473073A063559798
2314A060904065A059313358A059499268A060882789A063014151A065261946A066759797
2307A067136345A066767612A066089708A065104602A063769086A062315430A060826576
2300A059019882A057267234A057196639A058980743A060977878A062283121A062960237
2293A063375464A063753128A063924985A063510217A062532336A061659065A061610930
2286A062343536A063556580A065431635A067650733A068875465A068346761A066691370
2279A065044515A063962810A063251349A062590781A062028390A061949061A062394036
2272A062680814A062257904A061796249A062824498A065354014A067675620A068620274
2265A068268024A067481503A066999687A066798870A066618608A066639491A066991807
2258A067121175A066364665A064976153A064249851A064964464A066290196A067246866
2251A067631032A067738401A067966077A068306506A068161574A067036199A065484696
2244A064769886A065227141A065913517A065951211A065435444A065096459A065507483
2237A066712253A068148243A068962477A068865220A068441260A068194934A067861531
2230A067098519A066145132A065429665A065040837A064988959A065581690A067013281
2223A068738216A069788991A069797987A069365227A069251487A069396682A069088234
2216A068002917A066731100A066160827A066472822A066979527A066972566A066536390
2209A066374712A066728079A067018271A066787247A066399601A066509072A067139300
2202A067724545A067908353A067927923A068228622A068842105A069245906A068917362
2195A067985515A067121110A066720067A066618542A066690385A067077308A067663013
2188A067960889A067782071A067393769A066904664A066156756A065283748A064718729
2181A064621605A064885661A065604477A066917732A068461880A069508911A069731596
2174A069529400A069480082A069643336A069544570A068838493A067806172A067029501
2167A066816929A067050975A067279701A067028450A066327562A065770095A065748358
2160A065957909A066001908A066049781A066452005A067081380A067449390A067241152
2153A066566204A065864987A065564747A065680522A065813240A065560676A064869572
2146A064033733A063411385A063179966A063377565A063995251A064863793A065613736
2139A065941295A065814750A065370300A064736986A063975419A063126249A062386090
2132A062112249A062415444A062928519A063253844A063361936A063352742A063229153
2125A063185351A063649896A064622130A065375882A065295963A064692199A064332988
2118A064505304A064891768A065073606A064922304A064682743A064618781A064534330
2111A064110566A063742752A064207822A065356050A066045446A065624966A064672761
2104A064013441A063828385A064005167A064562896A065325317A065779157A065660821
2097A065303843A065208163A065530796A065980040A066033166A065446608A064637956
2090A064317818A064786106A065771737A066759666A067379781A067682648A068005608
2083A068432657A068602084A068193949A067414192A066836433A066822380A067225261
2076A067673782A067888127A067597803A066601271A065214861A064263970A064360175
2069A065386324A066594704A067072120A066415033A065075182A063816302A062990445
2062A062562806A062489519A062772751A063377565A064196790A064931695A065094555
2055A064443247A063465759A063120667A063814529A064802786A065026784A064422495
2048A063845196A063829764A064137490A064427223A064581940A064418161A063856163
2041A063388466A063637353A064396228A064789652A064408639A063689429A063148248
2034A062763492A062205237A061412543A060855273A061135353A062220932A063268686
2027A063514551A063256865A063464971A064331675A064824326A064114047A062883404
2020A062429366A062938172A063460177A063224359A062335656A061471579A061303926
2013A061936190A062704849A062836516A062333489A061877875A061870389A062051899
2006A062175620A062469950A063105235A063694091A063762913A063376318A062926023
1999A062560574A062091038A061367953A060646773A060499871A061237862A062457144
1992A063330086A063362396A062811824A062296714A061985179A061483269A060693398
1985A060221957A060524825A061233331A061768602A062062275A062271038A062269330
1978A061841495A061059833A060203046A059561062A059452839A060056275A061027524
1971A061709105A061891075A061910841A061922268A061624326A060803132A059679530
1964A058708872A058260679A058354389A058649047A058861684A059003399A059045821
1957A058819393A058393067A058026371A057759556A057590261A057787466A058380591
1950A058717081A058200920A057134844A056295065A056034293A056200436A056483339
1943A056568118A056314569A055955095A055839977A055998306A056173052A056169637
1936A055923968A055366304A054438266A053231723A052065437A051441447A051717521
1929A052639584A053449155A053692460A053647148A053701588A053741055A053490067
1922A053059276A052746034A052570500A052341708A052017630A051786802A051820490
1915A051977571A051769137A050776283A049165152A047604456A046559985A045874332
1908A045200302A044589906A044329659A044335306A044130155A043447260A042544767
1901A041934765A041977713A042616412A043348953A043623320A043291230A042507073
1894A041368696A040010917A038814225A038107361A037783020A037482386A037093361
1887A036881315A037096973A037631784A038261684A039052671A040128859A041217985
1880A041943762A042378624A042806197A043202445A043328859A043051143A042388277
1873A041524726A040687705A039813712A038652088A037201518A035523208A033312648
1866A030331525A026995918A023917013A021186155A018553013A015830823A012761374
1859A008946907A004261008I99085282I94002019I89339498I85019115I80839855
1852I76900222I73530993I70787395I68323154I65782540I63020227I60019534I56876798
1844I53785021I50969056I48756920I47549656I47565679I48884909I51714271I56073465
1836I61247812I66102678I69894095I72423283I73686104I73736735I72719123I70901594
1828I68731026I66704734I65062870I63740685I62639870I61823666I61428797I61465375
1820I61778420I62237317I62816586I63342072I63311207I62224446I60112587I57600277
1812I55423996I54036995I53719088I54674841I56666459I58918719I60891491I62885276
1804I65507123I68808779I72142218I74677973I76050527I76553225I76577063I76016576
1796I74543548I72252017I69690323I67387104I65510144I63905449I62500323I61649117
1788I61870489I63292295I65602081I68429604I71567021I74966918I78695555I82771911
1780I86955965I90812920I94074189I96862508I99453753A001878855A003924256
1773A005459276A006536975A007204044A007425021A007173836A006480828A005505310
1766A004658111A004499979A005371345A007113946A009134130A010724838A011494876
1759A011650512A011806149A012384695A013236623A013892528A014079423A013917811
1752A013729997A013688756A013576396A012971188A011741136A010148918A008402903
1745A006352904A003671167A000119771I95728202I90950826I86618491I83671515
1738I82962878I85071913I89939059I96691177A004068269A011065990A017170740
1731A022194244A026106296A028971185A030884196A031977723A032584310A033252561
1724A034341621A035689746A036932012A037998153A039035268A040059775A040971725
1717A041747673A042383221A042753399A042706905A042309934A041930168A041983886
1710A042565913A043372594A043979707A044178948A044111702A044105595A044338655
1703A044687294A044913656A044891197A044646316A044297678A043991199A043831557
1696A043826107A043836548A043665611A043339431A043165670A043384415A043967361
1689A044821982A045825146A046634323A046901531A046723699A046524327A046512375
1682A046503510A046239650A045735442A045293290A045189598A045401185A045706875
1675A045978484A046214762A046324298A046090187A045500411A044987403A045063973
1668A045720732A046440401A046808609A046801714A046514936A046030428A045573435
1661A045393567A045446365A045497916A045523067A045709962A046107195A046535819
1654A046812090A046878350A046790353A046724684A046918999A047471541A048219317
1647A048856375A049164298A049135273A048878834A048453100A047861157A047224033
1640A046824895A046855497A047179444A047491964A047682208A047844083A047961434
1633A047864769A047561771A047335014A047382822A047576809A047688906A047679056
1626A047628425A047540755A047404952A047335802A047452234A047687265A047874291
1619A047941864A047932605A047937268A048032160A048182214A048253400A048185498
1612A048084170A048133553A048455200A048948049A049288413A049283685A049137177
1605A049135404A049242905A049241460A049060738A048786963A048492042A048156340
1598A047687527A047077394A046602276A046691849A047451840A048471487A049283948
1591A049844764A050242391A050190447A049384159A048239806A047566958A047537407
1584A047685951A047859778A048341856A049024029A049309887A049016411A048664621
1577A048670203A048854930A048930056A048893150A048741191A048281506A047489337
1570A046758438A046543699A046859569A047302311A047533139A047579107A047622712
1563A047673343A047607345A047458538A047501617A047941076A048605387A049160096
1556A049571580A050018722A050442354A050653153A050734386A050813649A050742463
1549A050589651A050949978A052049479A053008317A052721539A051147511A049151493
1542A047482705A046430748A046048487A046144036A046299212A046220015A045851873
1535A045156304A044251972A043716307A044110849A045220660A046278592A046805457
1528A046849127A046670572A046518482A046482102A046440007A046279577A046044941
1521A045820680A045755274A046071340A046639642A046853987A046418731A045878403
1514A045900600A046434688A046936533A047073913A047007719A047190148A047879610
1507A048747955A049185838A049036572A048629553A048097960A047267244A046298293
1500A045750086A045822519A046121840A046280628A046246743A045978352A045490298
1493A045183425A045538565A046507975A047586462A048282622A048267124A047481720
1486A046422868A045888254A046123678A046595841A046831068A047048893A047661784
1479A048487314A048899848A048711968A048488627A048759710A049226619A049183277
1472A048568153A048034918A048012656A048328591A048769232A049359927A050000400
1465A050401639A050512686A050561019A050614145A050464025A049966186A049219395
1458A048378762A047538261A046893717A046775643A047298765A048097829A048633625
1451A048699688A048505438A048348029A048295625A048153648A047800347A047519611
1444A047707491A048225621A048445285A048018632A047267441A046779452A046857533
1437A047322340A047742886A047916647A047953882A047798377A047107142A045888976
1430A044753094A044178225A043958430A043683736A043393543A043439446A043887179
1423A044228594A043647158A041645098A038507090A034988397A031466684A027670998
1416A023353767A018822585A014555328A010654506A006902753A002984463I98605568
1409I93740392I88726147I84060277I80442161I78633695I78568354I79190505
1402I79976369I81736832I85161749I89699563I94372197I98542263A001622219
1395A002921486A002024706I99321035I96218423I94172431I93443567I93513176
1388I94042471I94943782I96036913I97006849I97718507I98408757I99280123
1381A000037093A000323149A000425527A000961914A002103772A003723768A006083529
1374A009448818A013138776A015945744A017416409A018086038A018678244A019599913
1367A021050285A023149930A025813608A028554118A030653567A031843232A032692139
1360A033979389A035836911A037728449A038970978A039172714A038628972A038285522
1353A038834452A040008881A041152250A042009891A042509962A042497814A042208606
1346A042277230A042821892A043167772A042765219A041865353A041159079A041081983
1339A041484142A041867914A041957355A041919792A041959325A041955122A041657050
1332A041014147A040174105A039318500A038685842A038586090A039010183A039361710
1325A039187818A039063966A039941505A041662500A043031639A043466107A043640525
1318A044136066A044285463A043161271A041234139A039966064A039941242A040468041
1311A040832506A040931798A040947296A041179765A041875991A042800549A043351318
1304A043181825A042453487A041633015A041153366A041089207A041248521A041581661
1297A042248402A043317432A044583668A045556821A045695777A044970460A043998620
1290A043355126A043062307A042813289A042341389A041541997A040369012A038677371
1283A036448883A034144022A032400502A031521518A031763115A033671794A037236455
1276A041176088A043983385A045146388A044593715A041987038A037828989A034206736
1269A032891314A033437092A034234317A034603116A035070944A036846116A041100568
1262A046652316A049159570A046410325A042236778A041241560A043857759A047585543
1255A049860721A049680788A047894189A045888845A044000524A041864827A039446030
1248A036809472A034145598A032680975A033910699A037272900A040253631A041309856
1241A041116460A040773075A040277600A039026666A036995514A035155460A034797628
1234A036134721A037622984A037428012A035580275A033653669A032427229A031233492
1227A029695123A028602583A028664181A029466135A030050591A030057946A030065301
1220A030717660A031685297A032062239A031736257A031511471A031883947A032533745
1213A032911080A032733642A032185894A031905158A032315197A032879494A032628768
1206A031634929A031269676A032446470A034190909A034817395A034101862A033157406
1199A032623252A032312373A032279933A032967753A034295586A035344850A035115993
1192A033363870A030615741A027783490A026116606A026756422A029039218A029950117
1185A027282762A023040656A021769430A025296265A030897922A035083290A037206050
1178A038573285A039340237A038005377A034279563A030541469A029032060A029378794
1171A030462995A032261217A034184802A034726574A034317980A035365274A038301939
1164A040358045A039034415A034833484A030410328A028534747A030501411A035020510
1157A038780997A039527525A038555357A038486733A038995538A037416454A033406687
1150A029991161A029871708A032654445A035729607A036846116A035728753A033813771
1143A032752423A033037954A033882001A034001782A032418495A029298875A026218590
1136A025060578A026659297A030653895A035831329A040110537A041604251A040397184
1129A038055023A035415051A032386514A029809913A029372424A031072406A032867082
1122A033347322A033114524A033278960A033753815A033478398A031722532A029118547
1115A027583396A028665429A031786297A034724604A035952620A035737225A034975789
1108A034113354A033458631A033466052A034158469A034819627A034698927A033818236
1101A032699428A031735797A031243540A031329895A031316498A030347088A028858890
1094A028186437A028458964A028626421A028502306A028924231A029778064A029821602
1087A028709427A027708299A027940176A028767741A029016759A028812725A028922655
1080A029308003A029355153A028852192A028048531A027226286A026603281A026322611
1073A026335285A026376262A026184968A026003392A026583580A028167261A029799997
1066A030127096A028925807A027342783A026557510A026760297A027414757A027962570
1059A028115448A027785000A026920201A025590201A024367833A023999428A024484199
1052A025069837A025065372A024434159A023619991A023120641A023222954A023811942
1045A024446307A024701958A024422141A023816998A023364406A023462844A024168920
1038A025144897A025933783A026431096A026854269A027219850A027099150A026211367
1031A024829356A023432899A022606582A022880094A024022018A025287006A026209922
1024A026604857A026399772A025847953A025520854A025801065A026452833A026857684
1017A026599407A025771251A024849780A024311948A024340645A024700448A024837237
1010A024405001A023668389A023157810A023079007A023239700A023257627A022798008
1003A021929072A021239150A021229103A021716237A022173361A022146240A021512531
996A020564989A019654287A018950969A018443017A017906958A017149988A016197258
989A015155480A014272031A013933243A014095381A014357598A014424318A014061561
982A013150925A011974590A010919613A009866671A008608973A007278185A005888885
975A004164869A001753886I98356616I94399121I90909257I87794431I84120233
968I79640733I74494821I68331035I61197772I54009348I46468213I35973931
961I19975772I00318980H79258046H54744615H25373954G92054663G55036746
954G14795123F75134936F39481758F05723336E69033043E31288988E02282759
947D84523021D74053561D69132107D69517159D75416429D88833226E10369867
940E35144400E61037937E94972221F40086309F83916432G20867563G56780200
933G88730943H11897300H29512368H45384572H59055214H69382434H78134839
926H88015048H97529610I03171326I05327249I05384316I03258994H98004859
919H89633074H78608183H62963260H39278247H09307565G80853385G56807519
912G34864187G15020434G01810594F98374908G02541822G10717913G21963387
905G41791839G77417304H12314431H31448233H44073944H59741392H78920243
898H94432777I04212513I11020252I16510140I21097798I25491337I31133184
891I37943616I43468111I46925140I49279254I51441153I53730188I56010226
884I58215467I60423794I62347051I63419759I63554447I63438606I64161231
877I65762446I67297400I68540979I69945843I71901146I74247379I76367447
870I77887560I79003544I79893297I80055107I78474775I74296631I67482981
863I59452676I52895925I50215567I52103231I57484436I64386608I71075552
856I76673072I80973492I84042941I85963636I86810310I86998388I87689032
849I89663182I91654210I92427072I92322067I92593741I93887360I95320067
842I96017147I95834127I94667774I92238338I89440760I89658914I92539826
835I94645118I95611639I95920482I95816790I95579592I95211779I94249526
828I92399688I89884816I86975009I83917775I82003383I81796853I81425756
821I79560026I76312350I73090746I71000689I69290923I66990264I64107776
814I61051986I57480693I52210337I44328511I33297906I15861656H85419009
807H37166913G70646733F86726946E90199376D91688691C99320647C24854055
800B99983054C24083787C68704009D23749398D88074351E59530104F33088654
793F97656486G43505873G73399131G96072114H17481948H37613267H53076549
786H62876970H68007910H69234941H67328430H63555006H59038205H54173227
779H48894465H42555867H33788096H22355924H09986586G97508761G84722948
772G72736856G64748251G62632386G64021357G65570233G65368760G62842396
765G59014533G54854579G49666113G42549400G32988606G20974341G07619569
758F95172019F85492823F79581864F78440991F82721513F92762612G09760914
751G32834086G54916506G70995634G83196859G94734168H06144406H16072948
744H24040013H30831730H36937005H42174394H46909611H52485919H59417380
737H66143427H71430988H75371934H78314182H80399445H81500981H81341142
730H79749450H76805429H72791853H67837761H61792704H54936895H48507476
723H43742643H40737353H38495206H35408289H30026493H21609855H10793005
716H00487061G93945414G91284428G90386597G89671393G89053576G89455735
709G91867506G96596221H02405327H06161808H04744665G97393446G86800594
702G78712368G78935710G90883188H13972318H41563670H65360386H82083337
695H92236205H96984358H97753937H96383550H94628078H93609941H93592145
688H94201096H94948413H95468514H95430426H94552755H92602311H89030821
681H82669829H72245287H57230658H38278103H17221570G96774185G79886601
674G68820930G64425552G66086788G72165533G80546709G89090745G95877273
667G99551339G99890193G98020391G95988320G95757427G98028731H01945117
660H06000722H09247084H11734571H13935215H15976480H17547289H18401187
653H18694007H18669249H18159524H16686299H14053814H10674800H07396523
646H05076426H04089023H04061310H04104126H03294030H01047417G97316744
639G92590262G87701576G83608343G81269925G81532208G84840759G90881809
632G98615355H06879508H14954928H22456267H28842672H33301421H35133266
625H34029956H29871119H22426190H11424415G96808333G78778563G57659841
618G33792792G07445414F78802763F48148398F15927427E82388144E47300247
611E10348394D71848649D33056938C95943012C62663648C34898339C13276590
604B97236863B85491120B76792925B70382107B65915314B63314005B62715265
597B64256442B67757666B72703238B78567507B85222467B93166778C03374644
590C16867026C34354728C56051439C81598374D10198734D40936729D73029448
583E05831101E38596766E70247006E99455990F24967069F45702217F60609280
576F68631310F69074250F62354376F50715871F38066847F28454831F24003700
569F23876170F25066098F24425363F20585088F14528802F08442177F03910798
562F00948784E98201443E93691473E85569887E72731998E55139652E33623302
555E09343029D83392557D56688069D29887836D03304081C77059410C51533030
548C27809436C07754097B93607878B87438772B90753332C04088010C26517524
541C55633290C88320711D21823481D54414828D85453489E14956080E43039295
534E69588737E94221095F16434000F35864955F52453349F66258876F77133778
527F84689950F88539354F88419376F84180094F75993627F64829583F52754115
520F42631652F37242172F38122009F44640016F54042612F62780110F68296266
513F70121150F69849213F70227863F73753910F81412330F92264379G04096149
506G14615714G22247144G26012687G25052077G18598098G06305461F88397705
499F65733784F40023858F13768351E89593183E69473487E54486177E45118024
492E41565676E43629662E50533377E61105248E74104552E88300548F02471590
485F15573468F26795237F35263753F39834993F39334265F32912857F20200331
478F01411950E77467346E49921602E20689371D91685867D64462461D40042510
471D19155797D02588220C91169937C85448828C85442949C90633616D00129463
464D12880570D27804674D43845124D60150385D76284544D92118891E07470798
457E22054275E35844599E49208663E62473402E75515786E87862206E99036954
450F08806839F17308715F24985259F32248941F39197081F45752125F52006404
443F58276509F64836281F71717899F78775182F85843300F92825655F99728089
436G06648649G13676578G20780223G27808546G34576949G40929272G46735095
429G51825254G55983763G59112971G61375410G63044461G64233600G64880443
422G64979866G64728878G64400992G64127610G63891660G63745481G63930011
415G64740305G66323526G68573159G71159545G73737656G76171229G78500650
408G80763352G82979231G85227814G87570698G89904322G91986367G93662642
401G95039596G96341621G97636357G98848284G99930580H00801552H01320930
394H01591225H02016040H02822262H03854452H05002745H06408988H08059783
387H09531563H10360113H10489547H10246702H10009504H10002478H10293393
380H10783942H11218016H11325254H10963022H10144192H09026106H07752122
373H06143027H03728235H00287033G96140739G91716663G87044227G81894112
366G76307558G70745894G65620273G60822803G55863063G50317619G44051913
359G37298154G30663650G24734894G19538942G14537305G08985425G02082728
352F93105143F81811468F68747874F55106127F42299168F31489016F23394946
345F18622101F18002117F22205543F30947244F42846522F56176339F69626332
338F82417004F94079741G04327764G12872457G19098958G22084678G21202148
331G16577979G08668965F97476486F82422783F62829493F38325059F09181548
324E76761664E43471629E11887912D84049545D61795926D47425874D43447759
317D51401690D70709615D98383578E29833625E60411912E86947169F08493399
310F25935297F40860550F54455804F66930147F77692886F86103482F92088911
303F96175643F99154402G01660934G03921403G06020062G08409833G11836786
296G16706953G22758445G29395510G36197142G42977367G49381634G54790158
289G58874066G61871935G64082036G65526892G66251421G66433391G66147073
282G65411116G64356533G63072633G61425975G59107914G55709594G50687402
275G43245363G32465681G18093166G01206962F83505933F65933419F48617606
268F32088839F17870056F07599968F01850621F00103686F01809709F06936183
261F15190092F25173336F34861134F42916722F49285200F54561465F59123578
254F62974031F66128916F68849924F71530610F74499782F77820350F81058504
247F83252909F83319366F80750843F76032307F70330110F64934851F61095692
240F59949303F62069568F67048812F73935289F82364338F92820204G05311753
233G18426964G30364789G40328070G48470603G55155870G60631442G64984726
226G68220581G70558080G72563620G74782061G77300019G79814759G82020328
219G83763914G85000335G85862442G86714830G87957227G89763330G91778524
212G92810451G91396591G87550537G84948194G88345989G94852175G98795289
205G99248538G98257523G97945725G98622907G99236980G99179651G98787934
198G98379536G97665120G96315550G94553380G92883935G91608506G90835513
191G90612565G90818964G91233206G91939611G93444488G96090370G99420526
184H02403226H04329701H05266604H05637899H05669354H05394594H04945088
177H04376194H03287660H01301755G99075631G98128614G99217871H01339580
170H02670040H01982351G99139265G95025871G91236489G89266673G89540711
163G91134177G92585337G93034712G92459711G91020175G88741647G85850621
156G82886244G80414845G78864393G78364387G78529020G78744809G78781781
149G78807195G78802729G78398535G77343557G75810507G74214612G73045896
142G72832667G73928228G76006202G77759047G77737770G75891872G73537693
135G71467731G68962119G65046521G59912626G54579885G50027492G47182763
128G46751184G48182578G49326602G47993845G43959911G38893393G34320379
121G30348831G26489512G22875599G19957912G17493212G14737399G11464770
114G07959277G04100417F99338605F93748243F88390481F84255614F81093177
107F77828428F74179841F71054442F69750644F71478337F76907481F85336662
100F94901461G04025029G12112400G19016740G24596726G29054949G33174056
93G37353448G40500386G41191621G40294710G40396038G42549137G45388875
86G47114467G47241997G46433608G45817170G46505056G48555449G50329111
79G50077663G48517951G48150597G49737890G51350925G50996245G48774324
72G45842387G42640352G39412443G37198337G36540396G36265373G34749397
65G31800057G28461758G25518198G23165004G21871712G22380190G24253275
58G25984515G26828169G26846031G26036328G24806736G24769502G27392399
51G31766172G35499931G37979276G40680780G44214445G47471380G49690542
44G51742774G54496091G56960397G57657805G57077091G57009977G57766225
37G57667852G55215498G50377312G44000232G38878420G39571822G45153910
30G49910141G50547395G47379837G42721847G38367513G35019561G33627568
23G34880736G37914395G41136984G43465815G44240450G44138006G45593041
16G48260331G49078045G48100886G47729066G47117094G42358039G33079886
9G25532776G25660175G30246256G32056890G29188718G24090678G18712822
2G13242306G08438794
##END=


$$ === CHEMSPECTRA PEAK TABLE EDIT ===
##TITLE=X7838
##JCAMP-DX=5.00
##DATA TYPE=INFRAREDPEAKTABLE
##DATA CLASS=PEAKTABLE
##$CSTHRESHOLD=0.93
##MAXX=3997.453
##MAXY=0.9745801657706338
##MINX=373.96442
##MINY=0.23845311883150516
##$CSSOLVENTNAME=- - -
##$CSSOLVENTVALUE=0
##$CSSOLVENTX=0
##NPOINTS=37
##PEAKTABLE= (XY..XY)
405.12812162630007, 0.6670134050581034
449.0406102814991, 0.6578697539683634
458.95633352622144, 0.6552057838079491
519.8672048866297, 0.6078981740981405
712.5155422126659, 0.5990020015434886
746.512307623143, 0.5446832164434079
823.0050297967159, 0.4024946977191891
859.8348589913994, 0.5609287006718957
961.8251552228553, 0.6933799362284336
1034.0682817200936, 0.3498467192575045
1069.481579022674, 0.4915512788885428
1097.8122168647378, 0.6079876401041227
1107.7279401094602, 0.5783919079249638
1144.5577693041437, 0.2608933740296782
1178.5545347146208, 0.5662602761250067
1219.6339595856134, 0.23845311883150516
1272.0456395934548, 0.7093565441082101
1311.7085325723442, 0.7222680429379839
1325.8738514933762, 0.6938297132787276
1366.9532763643688, 0.7067971205337717
1382.535127177504, 0.7173932170910206
1442.0294666458167, 0.6157859546040735
1463.277445027386, 0.6922021488306449
1505.7734017904609, 0.27227917198834956
1592.1818472087766, 0.8624617435663552
1660.1753780297104, 0.6338789446675871
1711.1705261454258, 0.4258070579117106
2340.110686239263, 0.9017607538617678
2359.9421327287077, 0.8887608028693976
2835.896848475381, 0.8928279849191927
2874.143209562167, 0.9118764375085646
2906.7234430805406, 0.8728393881878657
2935.0540809226045, 0.866509196968137
2953.468995519946, 0.8726394150681425
2978.9665695778035, 0.8600565766714884
3048.37663229086, 0.9416693418041449
3736.8111318530123, 0.9591471522140903
##END=


$$ === CHEMSPECTRA PEAK TABLE AUTO ===
##TITLE=X7838
##JCAMP-DX=5.00
##DATA TYPE=INFRAREDPEAKTABLE
##DATA CLASS=PEAKTABLE
##$CSTHRESHOLD=0.93
##MAXX=3997.453
##MAXY=0.9745801657706338
##MINX=373.96442
##MINY=0.23845311883150516
##NPOINTS=55
##PEAKTABLE= (XY..XY)
2980.383101469898, 0.8600420334194127
2953.4689955199374, 0.8726394150681425
2936.470612814699, 0.865641709181759
2906.7234430805315, 0.8728393881878657
2834.480316583268, 0.8921847916020118
2361.3586646207973, 0.8881961084412526
2341.527218131352, 0.9016975733566353
1711.1705261454258, 0.4258070579117106
1660.1753780297104, 0.6338789446675871
1617.6794212666146, 0.8744636152123771
1592.1818472087566, 0.8624617435663552
1570.9338688272087, 0.9006796455526702
1559.6016136903827, 0.8980644315472677
1505.7734017904609, 0.27227917198834956
1463.277445027365, 0.6922021488306449
1442.0294666458167, 0.6157859546040735
1379.7020633932757, 0.7161833025665718
1366.953276364347, 0.7067971205337717
1348.5383617670054, 0.811067578956954
1325.8738514933539, 0.6938297132787276
1311.708532572322, 0.7222680429379839
1284.7944266223608, 0.7298050499701482
1273.4621714855352, 0.7091184833340618
1219.6339595856134, 0.23845311883150516
1178.5545347146208, 0.5662602761250067
1144.5577693041437, 0.26089337312202976
1107.7279401094602, 0.5783919079249638
1097.8122168647378, 0.6079876401041227
1069.481579022674, 0.4915512788885428
1034.0682817200936, 0.34984671834985603
963.2416871149335, 0.6932124478488834
913.6630708913212, 0.7351975422530078
859.8348589913994, 0.5609287006718957
823.0050297967159, 0.4024946977191891
746.512307623143, 0.5446832164434079
712.5155422126659, 0.5990020015434886
668.6030535574664, 0.712457058711291
660.1038622048472, 0.7242542483571198
643.1054794996089, 0.7175983166095282
617.607905441751, 0.7244202472854652
606.2756503049254, 0.7163767197411073
589.2772675996871, 0.7064812760976134
573.6954167865515, 0.7014604186818763
553.8639702971068, 0.6777875994983359
519.8672048866297, 0.6078981740981405
500.03575839718496, 0.6719273904923821
490.1200351524626, 0.6769398430829168
481.62084379984344, 0.6790577746226605
458.9563335261919, 0.6552057838079491
447.62407838936633, 0.6578359585837421
427.7926318999216, 0.6870989776791843
419.29344054730245, 0.6706418969841542
406.54465351837325, 0.6658759689901237
398.0454621657541, 0.6754157523802711
385.29667513682534, 0.6585287430925638
##END=

##END=

