##TITLE=F. Hundemer FHU 134
##JCAMP-DX=4.24
##DATA TYPE=INFRARED SPECTRUM
##DATE=6/11/2018
##SAMPLING PROCEDURE=Diamant-ATR
##ORIGIN=Lara
##XUNITS=1/CM
##YUNITS=TRANSMITTANCE
##RESOLUTION=4
##FIRSTX=3997.453
##LASTX=373.96442
##DELTAX=-1.4165319
##MAXY=0.89971066
##MINY=0.35628998
##XFACTOR=1
##YFACTOR=8.3792084e-010
##NPOINTS=2559
##FIRSTY=0.79431373
##XYDATA=(X++(Y..Y))
3997+947957953+947906808+948115515+948564370+948999995+949220083+949281401
3988+949265325+949114378+948855735+948708488+948893721+949477304+950245622
3978+950666380+950306868+949378499+948524109+948109540+948048507+948158978
3968+948391870+948798046+949363276+949837953+949865624+949416413+948907094
3958+948745478+948947640+949250956+949426443+949420824+949330626+949296766
3948+949327069+949298686+949218661+949246688+949377716+949386181+949163105
3938+948773220+948264114+947748393+947498143+947701515+948182239+948563801
3928+948670360+948665950+948853672+949309072+949809357+950222717+950632377
3918+951049649+951299614+951208207+950793425+950305659+950040970+950004478
3908+949952123+949812772+949787804+950031509+950472966+950913357+951114310
3898+950982712+950649023+950170220+949501774+948859221+948643471+948765039
3888+948847555+948968127+949221933+949167302+948733385+948684729+949228833
3878+949466634+949118433+948995585+949493807+950058326+950383480+950862496
3869+951452837+951746478+951921183+952233319+952340091+951969412+951434627
3859+950912788+950292713+949977234+951216032+954083158+955756798+955340024
3849+954271450+953337603+952628610+952103357+951614026+951041469+950815547
3839+951591833+952941386+953589488+953329493+952865629+952484564+952034073
3829+951654786+951668373+951789585+951296627+950249819+949737868+950349762
3819+951163037+951676269+952322023+952900627+952777280+952108194+951517853
3809+951571275+952537488+953748117+954073768+953576471+953124201+952816973
3799+952163252+951601934+951876084+952649951+952999930+952844431+952776996
3789+953039480+953382275+953660907+953894155+953889602+953510885+953101722
3779+953103999+953461162+953827929+954031728+954027318+953961661+954269244
3769+955109977+955886476+955949002+955240081+954156639+953378291+953577751
3759+954711769+955575549+955075335+953570211+952209347+951974035+952879358
3750+953453693+952938683+952684948+954206647+956766261+957566731+956112824
3740+953926805+952148669+951394080+951818110+952765116+953382275+953624842
3730+953917487+954529239+955451633+956401414+957021347+957257370+957277287
3720+957139429+956771382+956079106+955073485+954098594+953844859+954697827
3710+956046242+957147539+957943884+958549447+958971485+959121151+958805672
3700+958096039+957445448+957050512+956643554+955980088+955156499+954522908
3690+954674922+956048661+957858096+958774657+958466647+957493179+956538561
3680+955894371+955525755+955547024+956076261+956439756+956096748+955810149
3670+956359019+957264341+957598101+957506552+957484074+957557911+957462733
3660+957014518+956270528+955465007+954769885+954182746+953862429+954355459
3650+956126908+958346289+959097819+958369549+957603365+957465223+957691785
3640+957750755+957450427+957045319+956902198+957228134+957953487+958974330
3631+960535508+962593556+963619593+962574421+960507552+958503139+957056274
3621+956594828+957252106+958196907+958622360+958850913+959341453+959856107
3611+960030172+959937058+959750900+959527611+959312786+959038351+958568440
3601+958003565+957657498+957615174+957658636+957609554+957453699+957260855
3591+957194487+957478312+958132958+958771030+959015019+958890392+958560971
3581+958265907+958348849+958948580+959820896+960607282+960989841+960679412
3571+959716898+958715758+958477673+959123214+959726430+959511748+958712984
3561+958062820+958098458+958632745+958909101+958485213+957728703+957367058
3551+957662904+958211988+958571570+958753531+959004847+959280135+959207579
3541+958605714+957743144+957110265+956994103+957232899+957419840+957333412
3531+957054851+956813494+956841307+957188725+957596608+957771099+957737666
3521+957710066+957745704+957798486+957935063+958240655+958605359+958766335
3512+958572281+958184459+957963659+958112187+958511675+958856888+958829431
3502+958363361+957858238+957829500+958300123+958778214+958877731+958741651
3492+958705302+958836259+958999583+959144127+959300480+959437626+959501220
3482+959461100+959266905+958998943+959007977+959565098+960375243+960749266
3472+960312930+959396582+958688514+958550443+958723156+958777930+958654512
3462+958556063+958603367+958818974+959171798+959517510+959730911+959858526
3452+959974047+960092983+960291447+960596327+960765057+960566024+960186951
3442+959987705+959967859+959829219+959514166+959332846+959464444+959681189
3432+959735962+959701675+959705872+959680549+959641354+959852053+960411166
3422+960963592+961100952+960911309+960872114+961262924+961889472+962330218
3412+962351416+962081249+961801835+961632181+961513102+961446236+961547460
3403+961835268+962147119+962318623+962323887+962262641+962296430+962526548
3393+962875816+963120161+963044972+962626989+962157647+962096899+962576911
3383+963121726+963080895+962288391+961168102+960325307+960126203+960512674
3373+961083168+961409033+961336334+960990196+960581318+960274162+960114608
3363+960030812+960043332+960407538+961240446+962101878+962393812+962134955
3353+961870693+961926106+962227003+962684750+963268831+963819977+964133251
3343+964149825+963939055+963660353+963523989+963587440+963651176+963545756
3333+963415581+963508126+963755885+963836338+963707799+963797143+964392819
3323+965105226+965332001+965086233+964916863+965128131+965459758+965477683
3313+965043268+964461819+964201326+964381367+964664835+964746213+964678138
3303+964588438+964396091+963989418+963468646+963035227+962773454+962685746
3293+962836123+963295222+963941261+964437562+964485151+964146198+963875035
3284+964066741+964574140+964955845+965172376+965576133+966218259+966701117
3274+966775807+966609212+966408614+966154950+965783346+965438560+965409893
3264+965796719+966347439+966745504+966917293+966942830+966852134+966680772
3254+966579335+966664412+966767840+966539714+965927748+965399436+965472846
3244+966135886+966904560+967304048+967187673+966796507+966528119+966501017
3234+966507419+966460826+966546969+966841180+967181769+967524706+968007706
3224+968543416+968733201+968420639+968060701+968220539+968808532+969164771
3214+968926686+968458553+968303054+968503438+968707451+968760588+968868285
3204+969139376+969301846+969111990+968819273+968882227+969327739+969725236
3194+969774176+969613555+969545622+969719260+970097266+970502517+970676439
3184+970530757+970321552+970348796+970571943+970752553+970823687+970875401
3174+970935438+971000455+971115692+971270550+971353137+971294167+971156451
3165+971045198+970984023+970916588+970829662+970770834+970663137+970311807
3155+969765142+969398233+969424695+969607793+969640373+969555225+969628351
3145+970048397+970691449+971157092+971161858+970898377+970792672+970988575
3135+971312448+971611495+971860180+972038015+972100399+972047049+971944118
3125+971913530+972047262+972292603+972506503+972630845+972687041+972641160
3115+972450663+972229152+972178931+972362670+972679501+973039439+973419294
3105+973746368+973873627+973757252+973609862+973708098+973970512+973911328
3095+973210089+972149339+971189031+970327954+969251128+967872338+966324391
3085+964609493+962685390+960799059+959353119+958430653+957701459+956858735
3075+955918770+954978095+953895507+952434841+950590693+948587702+946685722
3065+945073684+943756851+942505889+941123898+939719927+938487886+937327691
3055+935988879+934529138+933248798+932133061+930803283+929231577+928054168
3046+927829598+928413963+929407918+930770703+932617768+934749938+936723052
3036+938292553+939629516+941019758+942375856+943271575+943507100+943306360
3026+942931057+942494721+942131725+941960292+941911636+941864688+941898476
3016+942246108+943033988+944102847+945089973+945788509+946423024+947402112
3006+948821164+950396497+951859439+953209562+954566229+955927235+957110976
2996+957913509+958371257+958812927+959517225+960385344+961098889+961486498
2986+961601664+961574918+961511466+961471347+961528183+961801693+962309803
2976+962857748+963262642+963546111+963750052+963809805+963746425+963671236
2966+963545258+963287326+963050450+963002648+962992902+962862798+962828156
2956+963090712+963364933+963270823+962903416+962590071+962379230+962127913
2946+961841457+961658927+961669312+961852340+962090354+962249979+962269256
2936+962106786+961719177+961195133+960748910+960525478+960578544+960932933
2927+961436989+961751543+961730843+961605719+961631825+961792090+961916005
2917+961874961+961664404+961476824+961632252+962292944+963292376+964308739
2907+965129340+965740239+966264283+966816923+967326527+967544054+967377957
2897+967150968+967323041+967969862+968716414+969185756+969345451+969420213
2887+969632335+970040573+970525493+970906913+971094636+971101251+970958486
2877+970679214+970263649+969749848+969329446+969302842+969758028+970410754
2867+970880878+970992416+970796087+970512475+970408691+970523146+970604096
2857+970434939+970084533+969790821+969730144+969886923+970085458+970201620
2847+970301065+970481034+970666694+970655882+970318493+969797366+969519303
2837+969833004+970600682+971347233+971814583+972144289+972520588+972848231
2827+972879885+972574365+972178433+971912463+971741813+971546835+971322691
2817+971090439+970792530+970389983+969962965+969662567+969628351+969917155
2808+970467661+971132550+971735482+972104241+972157804+972000954+971883654
2798+972025353+972445043+972898665+973042640+972804483+972528910+972614413
2788+973058005+973499676+973647350+973535385+973436082+973619537+974130919
2778+974728444+975114986+975264439+975414033+975683631+975879819+975779947
2768+975459702+975190033+975135473+975280373+975534606+975793747+975980402
2758+976098271+976209169+976353927+976528063+976665422+976640668+976385866
2748+976021944+975793320+975857554+976183276+976621604+977041152+977406567
2738+977713866+977865310+977742675+977437582+977223469+977214932+977239545
2728+977132702+976962976+976874983+976925488+977136898+977486735+977783862
2718+977787276+977520595+977296665+977371641+977706895+978091872+978376835
2708+978551113+978690749+978855353+978983110+978942990+978740116+978538949
2698+978415390+978287989+978160019+978146859+978206611+978163077+978032689
2689+978012487+978136118+978201276+978012060+977543927+976971797+976611930
2679+976695085+977125233+977533044+977622246+977441139+977296310+977400023
2669+977667771+977893053+978002101+978048552+978089098+978168128+978324480
2659+978502742+978539447+978336217+978003737+977751354+977665068+977668412
2649+977659449+977652691+977848665+978504734+979570534+980529989+980869868
2639+980659311+980422719+980524085+980927771+981483398+982131571+982759613
2629+983113006+983106889+983092093+983499975+984240551+984749799+984672334
2619+984276687+984131645+984477072+985005313+985279819+985228887+985065705
2609+984941790+984939300+985170486+985587117+985925644+986078653+986273703
2599+986686920+987117636+987226471+986936956+986488527+986203351+986256630
2589+986539103+986692966+986407932+985753855+985179022+985151564+985723695
2580+986377131+986480987+986065138+985845974+986294616+987080362+987650287
2570+987864970+987801163+987436245+986890221+986601844+986896694+987503894
2560+987747599+987235790+986266305+985521034+985432188+985934536+986759974
2550+987707692+988545580+988993226+989030998+988911991+988677818+988114579
2540+987384246+987152421+987765880+988743688+989367817+989472384+989470393
2530+989808635+990504112+991119420+991160678+990583141+989873438+989544301
2520+989592458+989598860+989334882+989055255+989086909+989315178+989331966
2510+989049991+988839648+988963350+989240274+989400326+989411067+989374362
2500+989417967+989645667+989978787+990284877+990693612+991359924+991996502
2490+992165161+991856155+991344702+990778546+990272926+990111594+990536335
2480+991409718+992228257+992546439+992348544+991927645+991567422+991483200
2470+991774778+992283599+992801668+993383900+994121274+994841008+995340938
2461+995576107+995492738+995139273+994881554+995046301+995531292+996092895
2451+996637568+997008389+996953758+996475169+995877288+995470615+995453543
2441+995910294+996710836+997562736+998263193+998755938+998971829+998832193
2431+998437898+998035635+997722148+997378926+997005331+996863845+997089197
2421+997412857+997534283+997527312+997634511+997911008+998261983+998577107
2411+998701165+998518493+998148952+997889526+997930641+998206855+998496654
2401+998668230+998832762+999146961+999458172+999356664+998634939+997547514
2391+996615232+996242845+996434054+996814549+997054200+997234951+997641411
2381+998249677+998643190+998470264+997884760+997462651+997645394+998327782
2371+999149735+1000013515+1000920047+1001556269+1001720446+1001893586
2363+1002645402+1003744279+1004492253+1004564312+1004088070+1003305667
2354+1002467424+1001760495+1001168874+1000580026+1000011310+999616090+999514511
2344+999686086+1000077963+1000636578+1001099518+1001154718+1000887467
2336+1000614455+1000350690+999888818+999310356+998947573+998761059+998186368
2326+996837739+995135574+994054978+994268735+995554838+997038835+997929859
2316+998077106+997927085+997970619+998316187+998766252+999074476+999141271
2306+999161188+999498363+1000291365+1001287667+1002058617+1002287384+1001990400
2296+1001547235+1001379430+1001579815+1001910588+1002038913+1001758005
2288+1001189431+1000791650+1000932353+1001401410+1001546382+1001022480
2279+1000294139+1000177621+1000934203+1002027816+1002726494+1002762417
2271+1002484923+1002522624+1003231190+1004422613+1005594118+1006313567
2262+1006416143+1005982510+1005216966+1004442815+1004116452+1004472407
2254+1005137225+1005544325+1005633171+1005702953+1005854469+1005977033
2245+1005915075+1005457683+1004647752+1004156643+1004769320+1006461526
2237+1008438837+1009957406+1010633463+1010239238+1008943391+1007595117
2228+1006973691+1006873534+1006613611+1006159491+1006124778+1007079040
2220+1009141712+1011578620+1012878594+1012299990+1011096474+1011020290
2211+1012014671+1012593275+1012074922+1011288891+1011260224+1012051234
2203+1012878878+1012948803+1012240024+1011589006+1011853909+1012905909
2194+1013691442+1013477044+1012836909+1013060981+1014626071+1016614621
2186+1017660220+1017248354+1016034382+1014974485+1014411175+1014311730
2177+1014879379+1016073078+1016851000+1016016954+1013742160+1011481522
2169+1010582673+1011091352+1011587512+1010687098+1009030886+1008929662
2160+1011557493+1015445321+1018478118+1020175660+1020832653+1020282645
2152+1018702617+1017288047+1016927469+1017008988+1016725590+1016588729
2143+1017345239+1018531398+1019301779+1019641230+1019957136+1020278093
2135+1020290541+1019832794+1019185688+1018723033+1018221965+1017104663
2126+1015563403+1014713566+1015239317+1016463533+1017147415+1016878600
2118+1016231992+1015706383+1015140370+1014404987+1013964454+1014178852
2109+1014609070+1014683903+1014622941+1015026626+1015810523+1016235051
2101+1016024778+1015833144+1016327880+1017321480+1018188247+1018719903
2092+1019098193+1019286983+1018922706+1017879526+1016702685+1016172524
2084+1016410182+1016774033+1016800779+1016786979+1017136531+1017622377
2075+1017765640+1017600965+1017577491+1017980465+1018861104+1020095420
2067+1021047762+1020857906+1019743307+1019172457+1019946253+1021065901
2058+1021256967+1020649910+1020155458+1020112493+1020398522+1021085748
2050+1022104600+1022728445+1022258747+1021091936+1020465388+1021314159
2041+1023509140+1025866378+1027005446+1026569395+1025472225+1024682068
2033+1024082622+1023061707+1021805339+1021169046+1021573940+1022874412
2024+1025008929+1027786071+1030165645+1030855360+1029924358+1029047134
2016+1029561362+1030886161+1031655617+1031679305+1031918955+1033125032
2007+1035175184+1037284733+1038377920+1037844700+1036200296+1034500265
1999+1033207405+1032169204+1031318442+1030620333+1029763951+1028738341
1990+1028181789+1028272343+1028085047+1026917311+1025485598+1025137895
1982+1026428479+1028760251+1030910417+1032084768+1032793690+1033785440
1973+1034380902+1033458650+1031353867+1029362400+1028206757+1027865883
1965+1028140460+1028986955+1030610872+1032765592+1033986037+1032899821
1956+1030158104+1027723900+1026761528+1027132065+1028081775+1028646579
1948+1028226959+1027208463+1026354855+1025692669+1024676804+1023232073
1939+1021899023+1021212366+1021327888+1021769701+1021580342+1020328384
1931+1018785986+1018017953+1018122946+1018509062+1018955214+1019627928
1922+1020430746+1021092150+1021590017+1022009138+1022426196+1023037095
1914+1023894260+1024683420+1025114990+1025207535+1024937511+1024187545
1905+1023238760+1022549827+1021954863+1020818924+1019083042+1017452224
1897+1016468655+1015957841+1015466377+1014869563+1014432089+1014518943
1888+1015226584+1016293025+1017578202+1019331157+1021657878+1023996977
1880+1025587960+1026319999+1026654045+1026903085+1027098063+1027329248
1871+1027675671+1027914681+1027688759+1027031410+1026360901+1025989938
1863+1025937512+1026040016+1026158170+1026267289+1026347599+1026387292
1854+1026461983+1026565910+1026532477+1026381459+1026505517+1027277107
1846+1028671831+1030303787+1031711315+1032770927+1033656402+1034450613
1837+1035036686+1035278115+1035227254+1035126386+1035187561+1035324139
1829+1035240770+1034966477+1034803438+1034689908+1034173547+1033151351
1820+1032092949+1031433537+1031108170+1030794896+1030419664+1030170980
1812+1030192676+1030425284+1030637761+1030615496+1030426493+1030461562
1803+1031070184+1032133139+1033168352+1033938662+1034599355+1035268156
1795+1035944996+1036659537+1037245752+1037256066+1036597864+1035640827
1786+1034706411+1033849176+1032948548+1031911059+1030830605+1029934886
1778+1029296530+1028743392+1028196158+1027914396+1028135765+1028496770
1769+1028534258+1028391492+1028468032+1029000755+1030081778+1031602978
1761+1033086833+1034174756+1035028221+1035813042+1036384248+1036634355
1752+1036686781+1036645381+1036304009+1035265097+1033414049+1031030278
1744+1028546493+1026270704+1024330524+1022849159+1021918229+1021430676
1735+1021193800+1021067111+1021027987+1021190813+1021602892+1022108868
1727+1022595922+1023281511+1024428831+1025875128+1027314666+1028874847
1718+1030902806+1033061224+1034414406+1034897264+1035058667+1035202428
1710+1035392000+1035626743+1035854087+1035932263+1035801021+1035645664
1701+1035694462+1035883038+1036019687+1036363122+1037123971+1037884464
1693+1038332039+1038672557+1039045157+1039346338+1039691409+1040507956
1684+1041777129+1042600291+1042732458+1042697318+1042766745+1043086919
1676+1043787375+1044699099+1045506826+1046300396+1047346350+1048372245
1667+1048784253+1048649098+1048557478+1049040050+1050030093+1050912866
1659+1051375948+1051594543+1051969917+1053202171+1055666252+1057593983
1650+1057990483+1057924827+1058362728+1059465518+1060542557+1061291171
1642+1061885851+1062304688+1062343101+1061725871+1059696134+1055098034
1633+1047746408+1037920671+1025738906+1012564324+1001691210+996066077+996289367
1623+1001038841+1007253390+1012198624+1015646630+1018343319+1019926335
1615+1018988007+1014640227+1006354114+993962361+979052465+965060269+954601013
1605+947227763+940441368+932316800+923017384+914456480+909126056+908829427
1595+913518081+921133329+929004304+935459855+940290421+944136991+947480573
1585+950124339+951430714+950850617+948594318+946042102+945708697+950550645
1575+960061969+969421209+976942489+984533908+993223066+1001368547+1007756022
1565+1012995467+1017269694+1020188321+1021721472+1021361534+1016955709
1557+1007313427+992226336+971530830+947617933+924810814+907766614+900661752
1547+905087851+919775097+941445424+965493475+989258342+1010237104+1022887714
1537+1027885018+1029810757+1031276188+1033046927+1034915616+1036760547
1528+1038976086+1041923096+1045265468+1048350193+1051169802+1054035932
1520+1056645269+1058545257+1059794157+1060417717+1060236326+1059395593
1511+1058391964+1057516091+1056501934+1054602585+1051365349+1047223858
1503+1042029156+1034682297+1023438291+1005820253+980158528+950243346+923455000
1493+902301106+885563494+874469936+872630625+877618895+880691456+875575287
1483+860989976+840525370+822826524+817576339+829096416+853832546+882573875
1473+904818253+912937485+906796133+890921803+866889686+833196720+792497200
1463+755575890+730040428+713836249+700842632+683479041+657016275+625621364
1453+593920470+564418363+540825783+526393196+521525214+524407207+533017228
1443+546002843+562031996+579763208+599989515+626224651+658355799+687384438
1434+707427860+721751683+734641871+747190190+758582581+768830996+778714707
1424+788145792+796538606+804633511+814079392+824496466+833505086+840514273
1414+846526232+852386250+858587141+865261073+872265565+879652331+887390926
1404+894668999+900796551+906289375+911934567+917657794+923101749+928551750
1394+934128156+939067842+942798037+945557181+947691628+949050002+949327140
1384+948689139+947684159+946996293+947238220+948620780+951034498+954453339
1374+958774159+963456909+968024991+972430674+976490148+979717710+981907001
1364+983237206+983800090+983436666+982010287+979592941+976351010+972333576
1354+967395456+961277933+953696829+944586772+934442212+924193584+914724015
1344+906439112+898740993+889747737+876890270+858226563+833761453+806640058
1334+784015398+775119951+785298370+811128968+842618985+869832712+886815238
1324+891478996+884850518+870709581+854299327+839898608+828073367+814606068
1315+793490729+763105209+730406056+707469260+702846974+716417132+740885656
1305+766911588+787692100+801028370+809167093+816690223+827359751+842022882
1295+858659840+873655096+882944270+883028136+872791814+855664957+839447690
1285+832273473+837688262+853185227+872869137+891495214+906693629+918508628
1275+927828602+935370938+941531781+946627321+951054344+955222013+959426387
1265+963815994+968395173+973032326+977497263+981559369+985108101+988141041
1255+990580723+992213888+992930847+992981637+992929425+993326779+994334392
1245+995602568+996573903+996758851+995434977+991013573+980744956+961235111
1235+929995841+887389788+837427201+786901161+743728313+714423887+700598429
1225+697488949+697566414+696350521+694406927+694658457+699356145+709165948
1215+723158713+738859120+753173198+764173072+772209718+779398447+788088814
1205+799441797+812944876+827083822+840441218+852220223+862118730+870177712
1196+876812876+882685555+888330392+893898262+899214816+903887749+907347848
1186+909128972+909332415+908682251+908132883+908592195+910769962+914761290
1176+919758381+924495121+928020237+929989083+930427126+929381812+926808398
1166+922918081+918577130+914829578+911807736+908618017+904447218+899200376
1156+893021180+886021170+878802920+872765922+869756883+871491272+878715568
1146+890308059+903573551+915991694+926559927+935444917+942977081+949285384
1136+954411015+958257869+960351484+959866777+956342942+950510098+943756994
1126+936244463+926295949+912797209+898113591+887684780+886302860+894676326
1116+909021702+923567605+934181435+940583636+945222140+950037911+954771877
1106+958163616+959673080+959689156+958953559+958218603+957726143+956382706
1096+951733674+941379554+924795662+904085075+883424495+867880867+861789095
1086+866752824+880594928+898673913+916587512+931723899+942784806+948639417
1077+948087915+941022177+929935875+919513253+913606785+912611976+914403912
1067+917343097+921361883+926661649+932878759+939683720+947086064+954773798
1057+961800626+967255677+970978474+973488508+975394187+976993777+978357913
1047+979582698+980872784+982512565+984831177+988037256+991981209+996147028
1037+999848698+1002137149+1001162471+993829625+977344467+952649737+926403717
1027+907783331+901599796+904371247+907701384+905610686+898567070+891235006
1017+887597712+888396262+892055252+896878065+901971756+906378292+908280486
1007+906223718+901385683+897767382+899360143+907129752+918793804+930990507
997+941318236+948948778+954275433+958211134+961477820+964387128+967144566
987+969953007+972691380+974858833+976037096+976210876+975594287+974414245
977+973000458+971884010+971565685+972141088+973187327+974031687+974068179
967+972467877+967545335+957759647+944863341+934906362+933474435+940005388
958+948876933+955661408+960299841+964953426+971191805+979120896+987509158
948+994620279+999593754+1002814416+1004881000+1005861013+1005621576+1004203449
938+1001549156+997086068+989856721+979368229+966621376+954074053+943906802
928+936216934+929554668+923372058+919319768+919941053+926330805+936756414
918+947318957+954701028+958811718+962307811+967434864+973998254+980382386
908+985613224+989958727+993988681+997725491+1000868759+1003413079+1005642632
898+1007696839+1009469142+1010864791+1012016023+1013254466+1014838833
890+1016659507+1018286697+1019365586+1019951232+1020472786+1021364735
881+1022723110+1024297874+1025724252+1026766650+1027528993+1028393057
873+1029556169+1030820006+1032040736+1033391926+1034866889+1035952892
864+1036207694+1035900822+1035756278+1036074673+1036160603+1034594091
856+1030134986+1022590445+1013182193+1004195838+997750388+994276773+992287512
846+990148015+988032633+987603908+989787721+993695680+998203582+1003796705
836+1011748204+1021747721+1031573386+1039220431+1044342291+1047619363
827+1049804385+1051494813+1052954411+1053780419+1052704517+1047761559
819+1037730672+1024674528+1014300704+1012058917+1018668900+1030111441
810+1041584213+1050766330+1057732338+1063040640+1066793100+1069212509
802+1071010420+1072726385+1073741823+1071240966+1060602096+1040036978
793+1016193366+1001335683+1001938828+1012429881+1022343325+1026846604
785+1027756052+1027269425+1025077858+1021474068+1019431385+1020982319
776+1022955433+1019643151+1010554718+1003017077+1005068509+1017022575
768+1032163585+1044907735+1055247415+1064805332+1071813950+1071128218
759+1056449295+1023037878+973197641+918875608+872612059+834816726+794612298
749+742367662+676562968+601467963+525738764+462956660+427205326+425207208
739+452879642+499113102+552829749+607866465+663166804+718165250+765676702
730+790398534+779934228+738572877+685269483+637598050+603827762+588964210
720+596990720+624045391+658192049+688346454+707696604+710427793+693611009
710+664081942+638006288+630549100+646830814+681557783+723981377+763783187
700+795382110+817391461+828241456+825471997+809811069+784511059+749640827
690+704540816+658353452+629902990+632139798+661385324+703235508+743604113
680+774022567+792085761+800504041+805171070+811611683+821418214+832794885
670+844919387+859196902+873752194+883604962+889195737+893764317+898900902
660+904110968+908420833+912055993+916169316+921302557+926895253+932280451
650+937137052+940967830+943451971+945300672+947458735+949395358+949169223
640+945809209+941415690+939874857+943129521+949696254+956965293+963490485
630+968870063+973136750+976764156+980347388+983392634+982210245+969610995
620+940997351+903563876+875893114+872334494+888473585+907394014+917802552
611+921775883+927324404+937896763+950541824+961392601+969414451+975183488
601+978966536+980737843+980505377+978476494+975968452+975436227+978141310
591+982047775+982599633+974710732+954961805+925948673+899132727+888616422
581+898919254+920335348+938424008+946410291+947146172+946198383+945946853
571+945505325+944108680+944100144+949520838+960825948+973144290+980054886
561+976635119+960630899+934792618+906216676+879568749+853272366+824695854
551+795896907+773686886+767241579+783329168+818965372+861004203+897024601
541+923814582+943918397+959250686+969733558+972703687+960688731+925372417
531+870191583+816199612+788790266+798638126+835301646+877849298+911879439
521+934135767+945829340+947480858+939259832+924254973+908703022+897620063
511+891341849+886496487+879998113+872259661+866697909+866738028+873932590
501+887305636+903251740+917783417+929228518+938131719+945427860+951385331
492+955861934+958735463+960154514+960762354+961272314+961550519+960827940
482+959068725+957223510+956338319+957130893+959674573+962773739+964235115
472+962740875+959238522+955620506+953356382+953730689+957673930+964632114
462+972247718+978247584+982324629+984507730+982579928+974828316+964249413
452+957011459+956199892+958203665+957482935+953224429+949823726+951666096
442+958752392+966911247+970567462+964666187+947420465+924304980+905123133
432+894005177+884981333+868354761+840450395+805547867+771484863+746394983
422+736380741+745674111+776300135+818768758+856864703+886837930+911058766
412+929108231+940319515+947175408+953121427+958729061+961540489+960194136
402+957675637+959078328+966074284+972482744+970011194+961564959+955159629
392+952978020+953667949+956094827+958614819+958290662+953919194+949033357
382+947755008+949564656+952158130+954802820+957470914+959620369+962194779
##END=
