##TITLE=X9481
##JCAMP-DX=4.24
##DATA TYPE=INFRARED SPECTRUM
##DATE=5/11/2018
##SAMPLING PROCEDURE=ATR platinum Diamond 1 Refl
##ORIGIN=ComPlat
##XUNITS=1/CM
##YUNITS=TRANSMITTANCE
##RESOLUTION=4
##FIRSTX=3997.453
##LASTX=373.96442
##DELTAX=-1.4165319
##MAXY=1.0420977
##MINY=0.48533872
##XFACTOR=1
##YFACTOR=9.705291e-010
##NPOINTS=2559
##FIRSTY=0.99193496
##XYDATA=(X++(Y..Y))
3997+1022055859+1021555944+1021008371+1020600579+1020497771+1020697982
3989+1021061311+1021474631+1021867684+1022112053+1022087549+1021864429
3980+1021651444+1021513138+1021296222+1020877558+1020337110+1019868455
3972+1019656329+1019785853+1020158701+1020573249+1020829348+1020687542
3963+1020069895+1019446906+1019455565+1020008542+1020461475+1020527250
3955+1020279933+1019526806+1017941757+1015857837+1014501373+1014843022
3946+1016126894+1016661631+1016143108+1016001117+1017144043+1018680636
3938+1019462812+1019173119+1017819910+1015519320+1013120282+1012110810
3929+1012976019+1014417419+1014900629+1014310988+1013817337+1013946431
3921+1013719504+1012363101+1010927965+1011512018+1014611305+1018454139
3912+1021283877+1022689166+1022724786+1020859932+1016390301+1009782215
3904+1003415549+1000008390+1000026507+1002326852+1005956761+1009785838
3895+1012234745+1012302301+1010684334+1009820292+1011039924+1012466401
3887+1011848386+1009252145+1006662047+1005021110+1004220264+1005484545
3878+1009145591+1012191386+1011635953+1007532660+1002524484+999132372+998642223
3869+1000845225+1003189666+1003376796+1002252233+1002874793+1006098998
3860+1009453340+1010781000+1009557560+1005397275+998003327+991958105+994511662
3850+1002761483+1010523919+1015145244+1016079728+1013693280+1008926525
3842+1003111424+997735498+994580753+995116902+998490037+1002254874+1005200318
3832+1007530326+1009380686+1010227593+1009829197+1008800564+1007340064
3823+1004315334+999494534+996182998+996934406+999616811+1002783408+1007349829
3813+1012792881+1016825731+1017954347+1016058724+1012483228+1009560815
3805+1007738399+1005068891+1001174530+999075625+1000603559+1003997452
3796+1008013904+1012430842+1016408664+1019059257+1020336005+1020555746
3788+1019846653+1018500752+1017313056+1016627239+1015606836+1013786016
3779+1012651688+1013998203+1017018511+1019363013+1019551310+1017318092
3771+1013646973+1010741633+1010101939+1011156305+1012870693+1014371113
3762+1014297354+1011756817+1008055052+1006113676+1006589639+1006839658
3754+1004026624+997313518+989777088+987002439+988882339+991035412+991892575
3744+993368306+996877843+1000333396+1001222618+998248371+991869545+985963672
3734+986089572+992756494+1001094323+1006838368+1008590895+1007146178+1004764766
3724+1003694555+1004475749+1006524785+1009324369+1012139184+1013771031
3716+1013122308+1009642374+1004004760+999658880+1000874274+1006775111
3707+1013102410+1017017160+1017637877+1015865944+1014486879+1015638587
3699+1018099777+1019559847+1019172444+1016901701+1012326314+1005477421
3690+999125924+998300757+1003689151+1010592150+1015584481+1017728894+1016982092
3680+1013710169+1008248570+1000803218+993965502+992965918+996775956+999380057
3670+999472671+1001432779+1007708674+1015064176+1020299279+1022741430
3662+1023195529+1022378408+1020227546+1016988787+1014302758+1013118132
3653+1011205129+1005400345+995348927+987241280+989143965+998296888+1007434703
3643+1013570635+1016871485+1018483126+1019187552+1018980400+1017729692
3635+1015772962+1013490366+1010359082+1005403662+1000345679+1000684380
3626+1006866311+1013272406+1016306962+1015116993+1010468523+1005147563
3618+1002619370+1003011748+1004048303+1004920390+1006115825+1007198257
3609+1007373166+1007829354+1010517470+1014529010+1016996279+1016629450
3601+1014708893+1013186241+1012491765+1012137280+1012404003+1013947045
3592+1016035202+1016457735+1013454009+1008274241+1005919606+1009042415
3584+1014298582+1018061085+1019473805+1019326226+1018756667+1018699060
3575+1019546152+1020823821+1021229034+1019126014+1013416730+1005238211
3567+999539428+1000801560+1006692815+1012472419+1016446127+1019209661
3558+1021340747+1022472495+1022030740+1020249041+1018323571+1017322698
3550+1016835742+1015624953+1013706116+1012977923+1014946137+1018555964
3541+1021586590+1022884587+1022732463+1022092339+1021745592+1021738222
3533+1021518174+1020611203+1019189210+1017997828+1017570076+1017683570
3524+1017992915+1018757281+1020326731+1022300289+1023853464+1024626796
3516+1024837571+1024648967+1023897621+1022615223+1021451109+1021105898
3507+1021371577+1021311514+1020462273+1019508934+1019564822+1020768977
3499+1022185812+1023013742+1023326526+1023620887+1023965975+1023920221
3490+1023216963+1022229109+1021643337+1021675211+1021841092+1021700084
3482+1021566323+1022075081+1023138966+1023984522+1024234111+1024273539
3473+1024445746+1024485113+1024087085+1023531774+1023386160+1023854078
3465+1024578586+1024964208+1024705223+1024105448+1023782960+1024011852
3456+1024468654+1024676051+1024563846+1024326049+1023844129+1022863706
3448+1021791960+1021484764+1022013790+1022628120+1022984877+1023402988
3439+1024075539+1024801459+1025312613+1025443672+1025232528+1024987423
3431+1024993748+1025209805+1025431941+1025514483+1025281967+1024527550
3422+1023349496+1022332163+1022085583+1022604414+1023362208+1023947244
3414+1024318126+1024583192+1024822524+1025100610+1025509999+1026112783
3405+1026754136+1026984379+1026433736+1025247943+1023940672+1022948151
3397+1022448052+1022351017+1022370056+1022261659+1021987136+1021586713
3388+1021053880+1020410071+1019829580+1019567401+1019658356+1019723640
3380+1019321251+1018459175+1017481025+1016572273+1015721497+1014986610
3371+1014416068+1013825690+1012933459+1011655974+1010167653+1008767646
3363+1007672132+1006769461+1005627272+1003954953+1002008663+1000279597
3354+998828432+997198673+994957163+992088488+988942157+985948441+983237294
3344+980445449+977056899+972947772+968495460+964229418+960476311+957219618
3335+954212208+951285987+948589825+946468565+945085570+944209921+943440642
3325+942593182+941742835+940973433+940319614+939921094+939947564+940295416
3315+940560912+940416280+939962304+939695641+940118788+941321163+942922610
3305+944479346+945914728+947457708+949238670+951124651+952967150+954813211
3295+956780873+958868723+961006872+963172350+965319281+967286145+968941575
3285+970389240+971863681+973414768+974831910+975952603+976911162+977973573
3275+979231835+980619928+982093386+983565801+984797593+985614469+986144968
3265+986598515+986944647+987059493+987018836+986973451+986877337+986599559
3255+986226772+986100258+986565781+987647845+988901562+989745951+990068562
3245+990264167+990603851+990964969+991249442+991568675+991921501+992156965
3235+992279856+992439963+992695694+993055645+993625388+994549739+995874820
3225+997396489+998631659+999175485+999149569+999021028+999005551+998982644
3216+998917114+998947760+999082934+999164861+999176161+999272521+999434655
3206+999338725+998716534+997721618+996851189+996533983+996789406+997242584
3196+997511150+997574039+997678689+997959047+998301863+998565639+998773834
3186+999046883+999418503+999768320+999912092+999739517+999350701+999103078
3176+999352974+1000039896+1000728538+1001120178+1001257133+1001209782
3167+1000959334+1000645382+1000523904+1000587837+1000532564+1000173473
3159+999668890+999261527+998976011+998684537+998344792+997985148+997525091
3149+996877167+996212293+995819178+995641506+995255945+994399703+993279992
3139+992281145+991585134+991143072+990844597+990640639+990538383+990484523
3129+990321713+989955743+989488194+989081691+988784137+988567405+988390593
3119+988173308+987834422+987414162+987045490+986764580+986436810+985951144
3109+985413090+985013036+984780643+984646821+984647373+984852068+985217362
3099+985679507+986233467+986815308+987297659+987639983+987880851+988021491
3089+988069578+988149786+988419949+988850956+989203537+989329990+989425735
3080+989839608+990713906+991944716+993325070+994534631+995120280+994710768
3070+993350987+991650356+990485506+990379872+991188641+992437875+993748831
3060+994872657+995717107+996518015+997576434+998672991+999168054+998833898
3050+998142431+997600447+997238347+996895899+996569112+996317619+996110222
3040+995800754+995125746+993909123+992385796+991094370+990437111+990507922
3030+991149520+991978556+992654485+993315797+994454423+996224269+998175717
3020+999784841+1000909281+1001589386+1001742185+1001354168+1000764158
3012+1000411024+1000372026+1000399662+1000338186+1000268849+1000263076
3003+1000156154+999673865+998784090+997732918+996615173+995181265+993280361
2993+991159838+989051229+986801674+984128911+980941372+977318402+973441668
2983+969532076+965642445+961616780+957441755+953547825+950597345+948922201
2973+948208747+947833811+947486880+947304356+947510771+948294605+949993148
2963+952946084+957035252+961632871+966041763+969812434+972737304+974822022
2953+976301745+977487169+978481287+979094758+979108207+978616399+978055746
2944+977851297+978113168+978749792+979701165+980857786+981940464+982759366
2934+983425346+984074375+984649339+985181619+985948871+987100026+988386171
2924+989463874+990267791+990942062+991549636+992025415+992362397+992676532
2914+993079535+993627292+994363714+995268842+996229796+997202910+998266365
2904+999414143+1000475448+1001282313+1001741448+1001822638+1001690597
2895+1001711171+1002071245+1002492856+1002556113+1002207155+1001724682
2887+1001296193+1000891962+1000482081+1000103153+999769057+999515231+999419486
2877+999451790+999492876+999583463+999915654+1000529739+1001258300+1001982132
2867+1002735443+1003600898+1004677004+1006054902+1007646768+1009127842
2859+1010183620+1010770007+1011125106+1011608009+1012441344+1013467950
2850+1014310865+1014859297+1015338761+1015869813+1016334906+1016670659
2842+1016869212+1016791339+1016401602+1016017024+1015961198+1016170437
2833+1016372368+1016443487+1016452576+1016523510+1016733302+1017052719
2825+1017372935+1017611039+1017769796+1017921674+1018133862+1018360666
2816+1018451621+1018355384+1018254357+1018397637+1018823179+1019337403
2808+1019728921+1019892960+1019798136+1019520112+1019310258+1019414847
2799+1019778974+1020112333+1020268387+1020378565+1020602421+1020897272
2791+1021083297+1021038649+1020802878+1020548806+1020489602+1020764985
2782+1021351188+1022064887+1022670434+1023019024+1023134729+1023189633
2774+1023352136+1023632740+1023916536+1024127803+1024280725+1024395816
2765+1024475778+1024576006+1024777200+1025059093+1025288784+1025369728
2757+1025338837+1025294741+1025283195+1025243951+1025057128+1024697914
2748+1024342078+1024219495+1024369837+1024643071+1024879333+1024995099
2740+1024984966+1024944187+1024978517+1025051232+1025038151+1024900951
2731+1024669356+1024331392+1023933303+1023686723+1023773133+1024096297
2723+1024408222+1024634596+1024906417+1025300330+1025687795+1025845569
2714+1025648305+1025192363+1024768172+1024640492+1024848687+1025250645
2706+1025672871+1025943156+1025911712+1025586399+1025188985+1024989204
2697+1025102636+1025463938+1025944262+1026433736+1026818437+1026969824
2689+1026859032+1026634685+1026470953+1026375269+1026271172+1026191763
2680+1026242307+1026400081+1026496011+1026401002+1026152027+1025898999
2672+1025768186+1025764071+1025777398+1025713957+1025623125+1025658316
2663+1025879654+1026139437+1026228059+1026141403+1026131945+1026421699
2655+1026904295+1027247848+1027267132+1027038793+1026668770+1026180340
2646+1025678889+1025391408+1025428072+1025662983+1025921846+1026165846
2638+1026456152+1026853996+1027365641+1027886560+1028205117+1028171953
2629+1027891718+1027656193+1027662826+1027859783+1028071049+1028166672
2621+1028109372+1027974874+1027948527+1028135412+1028351038+1028264136
2612+1027760660+1027032283+1026357214+1025922644+1025775065+1025826591
2604+1025995973+1026351993+1026952812+1027570152+1027834234+1027658097
2595+1027278125+1026920140+1026706478+1026795837+1027269650+1027882752
2587+1028205915+1028061407+1027673267+1027388917+1027341689+1027418089
2578+1027515493+1027710484+1028105257+1028616963+1029044532+1029275451
2570+1029370029+1029512204+1029895615+1030586652+1031477409+1032373816
2561+1033116442+1033667576+1034059647+1034233205+1034083721+1033786843
2553+1033765348+1034124009+1034452823+1034437224+1034289829+1034309481
2544+1034392760+1034292531+1034082984+1034073527+1034370159+1034684233
2536+1034582285+1033941854+1033133515+1032660868+1032656446+1032840813
2527+1032897806+1032742795+1032507823+1032384994+1032426633+1032475273
2519+1032349988+1032059988+1031748247+1031506888+1031349667+1031304834
2510+1031411450+1031638930+1031915909+1032286608+1032885031+1033615128
2502+1033991722+1033596949+1032741321+1032311174+1032771292+1033639940
2493+1034199181+1034345716+1034395462+1034463878+1034461790+1034387109
2485+1034304814+1034253349+1034286881+1034438698+1034646402+1034832365
2476+1034995237+1035154546+1035231806+1035035770+1034468300+1033766085
2468+1033355959+1033419584+1033705039+1033764488+1033382612+1032854693
2459+1032730390+1033187928+1033888792+1034439803+1034671950+1034561036
2451+1034253963+1033994179+1033732061+1033126268+1032156900+1031362195
2442+1031236541+1031694571+1032310682+1032819195+1033183998+1033395018
2434+1033452625+1033421426+1033336060+1033188051+1033066696+1033080207
2425+1033115091+1032931952+1032533003+1032251970+1032409560+1032902105
2417+1033242956+1033142359+1032865747+1032787382+1032824477+1032621440
2408+1032130738+1031715943+1031739772+1032213279+1032850762+1033369347
2400+1033656399+1033713514+1033587000+1033367382+1033153905+1032987717
2391+1032837619+1032643918+1032401085+1032200750+1032145723+1032210945
2383+1032271377+1032333651+1032691330+1033678017+1035195694+1036741376
2374+1038068668+1039466342+1041155980+1042901137+1044458488+1045940667
2366+1047529954+1049133735+1050378977+1050890560+1050647727+1049911366
2357+1048760211+1046983364+1044423359+1041360736+1038658003+1037219427
2349+1037293125+1038458160+1040039340+1041530117+1042804961+1043884507
2340+1044684248+1045092532+1045107640+1044861367+1044494968+1043962012
2332+1043089188+1041895903+1040628060+1039438336+1038351667+1037509918
2323+1037143887+1037249152+1037452803+1037325920+1036816056+1036288505
2315+1036052059+1035927633+1035524385+1034893289+1034541997+1034778566
2306+1035334000+1035662813+1035492449+1035046702+1034699833+1034487338
2298+1034188986+1033861523+1033914217+1034550841+1035447862+1036108560
2289+1036358763+1036437374+1036729462+1037456979+1038553721+1039744550
2281+1040642922+1040835887+1040158115+1039051425+1038402395+1038735754
2272+1039717773+1040614180+1041002443+1040900004+1040564312+1040404879
2264+1040794739+1041685005+1042541001+1042880133+1042809138+1042784449
2255+1042943021+1043103928+1043339760+1043862029+1044345362+1044126972
2247+1043126405+1041952773+1041102181+1040540728+1040084295+1039905456
2238+1040467154+1041854386+1043402648+1044317234+1044497547+1044438098
2230+1044558348+1044935802+1045498114+1046138545+1046639320+1046804648
2221+1046868028+1047336130+1048079123+1048204163+1047327900+1046240862
2213+1045888956+1046436160+1047511898+1048595866+1049069495+1048629644
2204+1047782368+1047409213+1047788510+1048386442+1048671037+1048768932
2196+1049107818+1049778219+1050494805+1050860713+1050490383+1049210749
2187+1047265380+1045257492+1043963363+1044035833+1045458440+1047243271
2179+1048114867+1047752766+1047177066+1047569382+1048829732+1049911120
2170+1050400103+1050893877+1051930064+1053330071+1054525935+1055104092
2162+1055084685+1054797634+1054548782+1054494614+1054481594+1053883907
2153+1052310097+1050349989+1048914607+1048183037+1047647993+1046665114
2145+1044886916+1042837143+1041759685+1042286868+1043734901+1044986162
2136+1045416801+1044883231+1043572152+1042001167+1040779631+1040234638
2128+1040261660+1040504862+1040757276+1041076755+1041459245+1041724556
2119+1041816064+1041800833+1041549402+1040908233+1040188700+1039971415
2111+1040345676+1040721533+1040544045+1039972398+1039618158+1039770344
2102+1040256010+1040941397+1041778601+1042436474+1042563848+1042369163
2094+1042336982+1042568024+1042908998+1043350691+1043798158+1043796684
2085+1042975571+1041643489+1040653117+1040639237+1041455560+1042405521
2077+1043029862+1043545990+1044448907+1045823611+1047181733+1047806565
2068+1047070450+1044755857+1041675424+1039679819+1040090928+1042239087
2060+1044352609+1045603624+1046451391+1047279137+1047727832+1047374944
2051+1046260392+1044787056+1043762046+1044180894+1046068287+1047980860
2043+1048717589+1048929838+1049853022+1051215444+1051839661+1051483334
2034+1050779400+1050071167+1049340825+1048791901+1048921240+1050100892
2026+1051851084+1052732015+1051712779+1049261477+1046370692+1043459641
2017+1041007971+1040039462+1040972104+1042888608+1044595074+1045851125
2009+1047244131+1049004396+1050324072+1050330582+1049398800+1048743752
2000+1049028593+1050040460+1051325253+1052304447+1052080898+1050089468
1992+1046935707+1044017408+1042521963+1043118544+1045601536+1048431275
1983+1049841968+1049695924+1049274743+1049303853+1049301888+1049046649
1975+1049343895+1050532268+1051370700+1050306016+1047297807+1043888438
1966+1041815327+1041776758+1043212877+1044834345+1045604115+1045638753
1958+1045864882+1046737337+1047784088+1048250593+1047796125+1046744830
1949+1045853582+1045527961+1045168072+1043897036+1042118223+1041433328
1941+1042400116+1043747061+1044413532+1044745171+1045470354+1046507647
1932+1047273241+1047668874+1048064629+1048316798+1047558205+1045534226
1924+1043591437+1043210543+1043775189+1043505211+1042225699+1041618186
1915+1042565813+1043987192+1044532922+1044086315+1043631847+1043949852
1907+1044817763+1045635805+1046119998+1046141002+1045577093+1044571122
1898+1043528302+1042854830+1042783343+1043036617+1042837265+1041925013
1890+1041248347+1041798622+1043123826+1044144905+1044542134+1044605637
1881+1044592986+1044663490+1044969457+1045453773+1045703607+1045086022
1873+1043003822+1039265270+1034946228+1032931707+1035290764+1040235744
1864+1044473719+1046372903+1046216787+1045157754+1044272279+1044109162
1856+1044597039+1045281689+1045632243+1045144734+1043560238+1041077983
1847+1038068177+1035057880+1033546958+1035051738+1038420697+1041137801
1839+1042122031+1042031752+1042038262+1042174602+1041137064+1038155877
1830+1034874987+1033934115+1035119049+1036418827+1037531782+1039282098
1822+1041276844+1042345457+1042216241+1041586987+1040954049+1039987383
1813+1038262247+1036298454+1035448231+1036349920+1038058965+1039054372
1805+1038310519+1035737371+1032482397+1030389634+1030134395+1030505093
1796+1029890948+1027461325+1023909535+1022189927+1024580490+1028852795
1788+1031591272+1031820103+1030566385+1028953208+1027311289+1026007028
1779+1025429362+1024833763+1022686218+1018130484+1012063152+1007617658
1771+1007419166+1010210152+1013389830+1015384331+1015134557+1012184016
1762+1007849620+1004754632+1003523761+1002694603+1001623041+1000217261
1754+997263956+991348503+983387392+977415069+976088084+977546557+979013383
1744+979426274+978935448+978105307+977713052+977803025+977193853+975455452
1734+975220050+979204444+985283137+991139325+996274936+999957969+1001627340
1724+1001913102+1001551739+999795527+995131396+988240311+984906911+990010402
1714+999746334+1008858969+1015325004+1018721845+1019114530+1017490175
1706+1016169946+1016468728+1016597944+1014210391+1010315969+1009043766
1697+1012204959+1019162802+1027268422+1032722037+1034147347+1032708035
1689+1030106697+1026240833+1019822763+1013673504+1014809858+1021788214
1680+1028530184+1032546883+1033449186+1032068832+1030283325+1028609164
1672+1025932163+1023506594+1025370588+1031036944+1035343212+1035752601
1663+1034055348+1034002163+1036088416+1037142536+1034564229+1027182626
1655+1015102438+1005033946+1005444625+1008381778+1006650808+1002025675
1646+1001206466+1005472814+1008729262+1007276438+1000578993+988643559+970978574
1636+949870503+934747591+929940118+929153827+927578175+924585872+921217282
1626+917512017+912223484+905313421+898481110+891649904+881945601+867259592
1616+850832786+838499140+828951567+817637587+803910813+791758524+786545347
1606+790678057+803050149+821295624+842760269+864352901+883274551+898093768
1596+908826274+916176249+920681255+922432799+921460299+918181927+913453065
1587+908163795+902823858+897606013+892563507+887488451+881861647+876045870
1577+873571967+878487898+887320483+894550269+899963781+906641021+915662516
1567+924260743+930416266+933761150+933308094+926766704+913807489+905191022
1557+908051407+912074308+911701521+906329710+896127642+882136907+865716059
1547+846077455+820789691+790138960+758151356+728247918+705902527+695935308
1537+691268106+684719285+675900334+670027503+671232580+677513327+686949003
1527+700458185+717352479+734478428+752430342+774586146+798099703+818192038
1517+836904879+856559389+874266996+886528112+892348863+892035280+888131278
1507+889666458+903783523+918842195+926188977+926353568+920968982+912185038
1497+904213609+901539556+903592093+906047878+906185263+904793056+904880387
1487+906595205+906617683+902834360+895016037+883531632+868572021+849576797
1477+826176795+800891426+780836185+775927072+789621972+811393505+830184649
1468+843422625+852338488+858454582+862378115+863690667+861968356+857558421
1458+853356680+855260410+863980667+875303245+886280549+894781925+899962061
1448+903150584+905653167+907046050+907759380+910463342+917121788+927043561
1438+939059141+952445863+964523594+972283082+975391335+975017935+972303471
1428+966836836+956310068+939273785+918535859+899686985+886560354+882580935
1418+891281171+908918151+927558952+943332552+955428401+963476168+966777264
1408+964970692+959538818+954321771+952616227+953078064+951197918+943510777
1398+929154994+908417315+881294299+849730579+817661048+786147687+753200603
1388+719197066+690987749+677073967+678714535+690674903+705930164+718769313
1378+728139583+738445196+756029237+783202305+814470990+842527692+865568418
1368+884835157+900282523+911359135+919330871+926828978+935159130+942825206
1358+947706806+949193837+948162686+945918167+942946991+938506348+931526826
1349+922049941+911841117+903303322+897399353+892779441+887549375+882004620
1339+878775871+879374786+882406701+885880863+888945205+891584620+894131422
1329+897265592+901886426+908470193+916408151+924202338+930648658+935874856
1319+941055238+947087440+953891193+961093221+968614543+976200043+983077985
1309+988572687+992607809+995362991+996817472+996781545+995088897+991652444
1299+986501173+979903649+972546059+965550446+959994207+956048995+952357426
1289+946037742+933210752+909791098+872499976+820284925+755813119+685561217
1279+617782666+560252796+519450848+500076419+503709613+527460477+564199052
1269+605008554+642512293+672839615+695656916+713048114+727864445+742135292
1259+756200890+768902348+778568882+783995352+784929468+782252713+777934407
1249+774369782+773119811+773964323+775125488+774532224+771278847+766234192
1239+761346880+758383196+758248391+761188676+767271914+776498289+788477327
1230+802163998+816078885+828834204+839475141+847408247+852155964+853555172
1220+852649491+852125993+854885719+861783130+871215612+880934532+889703676
1210+897263074+903565194+908651181+912992087+917340302+922022980+926560842
1200+930094330+932020230+932125618+930282873+926206111+919468501+909533279
1190+895550283+876271200+850684654+818972249+782638028+743833712+704985055
1180+668744491+637429684+612387148+594266283+583471932+579703472+581608368
1170+587812654+598161503+613441821+634032290+659061928+686662012+714765635
1160+741698941+766251019+787507713+804801140+817737509+826173969+830168067
1150+829817574+824933579+814827010+798556935+775585545+746478347+713210065
1140+678745549+645916566+616154749+589102790+563767799+540333712+520714023
1130+507370322+501892417+504508924+514291593+529611216+548718400+570158969
1120+592775874+615445779+636815906+655070778+667534071+670472697+660807515
1111+640217967+617345148+603284033+603593132+615464081+632167866+648389117
1101+661846281+672801845+683321673+695730552+710779030+727411758+744119843
1091+760020878+774835980+788444593+800688758+811437601+820520511+827400050
1081+831284830+832288222+832485485+835022460+841762097+852038170+863657565
1071+874689467+884323021+892611411+899877064+906363242+912188170+917430335
1061+922184500+926531916+930499728+934136516+937596061+941024285+944400122
1051+947648953+950887160+954358190+958057559+961582204+964483122+966652899
1041+968180464+968829002+967925839+965042670+960479259+954312436+945444907
1031+933639180+922842373+919717476+927246904+941640212+956553700+968399346
1021+976918102+982954480+987239253+990415247+993083711+995605333+997972804
1011+999932359+1001109922+1000752919+997134863+987519488+970337099+949195680
1001+933618852+932442517+945666920+964734062+980688036+990223265+994795581
992+996923167+998034157+998166935+996523726+992270213+984980793+974626724
982+961897998+949083967+939926867+937247349+940400251+945527509+948042498
972+944236697+930996265+905502087+866778163+818715905+771506572+738305662
962+728411096+742523862+773724560+812272839+850012656+882216746+907245217
952+925210335+936805164+942966521+945050134+944818232+944275696+945525667
942+950132068+958075185+967629944+976618337+983705335+988746551+992503835
932+996074724+1000158119+1004674302+1009016252+1012487220+1014536993+1014854323
922+1013307658+1009814396+1004658948+999214361+995821942+996169119+999730059
912+1004097066+1006622680+1005459242+999601334+989141263+976115720+964345430
902+957109379+954919089+956506472+961336791+969302509+978346237+984623422
892+985456511+980779360+970910097+952871159+920019390+868614950+806996834
882+755667627+734303703+747938909+785979473+832538056+876244914+912597683
873+941264354+963274114+979893884+992366204+1001717804+1008661337+1013588445
863+1016557411+1017435885+1016131562+1012515041+1006264449+997101208+984694417
853+967975647+946324548+923556011+909152079+911728789+930754599+956966775
843+980731518+998100116+1009912107+1018235810+1024408959+1028957262+1032242881
833+1034737910+1036680699+1037982319+1038530138+1038155263+1036544727
824+1033709461+1030393442+1027851615+1027290715+1029112825+1032342004
816+1035134525+1036146023+1035367655+1033879579+1033026039+1033528656
807+1035078392+1036820847+1038330663+1040047446+1042631895+1046010926
799+1049417347+1052280250+1054555414+1056295413+1057505771+1058346046
790+1059033521+1059646684+1060177306+1060567166+1060637055+1060116014
782+1058717235+1055981952+1050583119+1039723300+1020742201+995373554+972127948
772+961854455+969178390+988721986+1010331568+1027010296+1037340905+1042668375
762+1044501355+1043810318+1040325163+1031759425+1015236260+991524210+967615818
752+952012337+946374662+945132921+944398218+946949318+956531529+971403809
742+986068630+996549398+1001983606+1002983128+1000232246+994141823+984731634
732+971579762+954500426+934955786+916844809+905287197+903609781+910906202
722+922718991+934026092+941511609+944108341+942664484+939225390+936056459
713+934409688+933425151+930788561+925027136+915690460+900566934+875311474
703+837302047+788619440+737065517+697276357+686688543+713124453+766081945
693+824247762+870906758+900456449+914039022+912894008+894953456+856958953
683+802798103+750150079+722600478+730677970+762958767+798030919+821961973
673+833208765+836273168+834680995+829399832+822282004+816633459+812826921
663+809830504+807873528+808264861+811852947+818297057+826499405+835335982
653+844348204+853872071+864268824+875173046+885960886+896726434+908097406
643+920207564+932403765+943882642+954264103+963532977+971615628+978225926
633+983156227+986445163+988097399+987766190+984888241+979178282+970785978
623+959949190+946931324+932359976+917201505+902490930+889256270+878307032
613+869903121+863702950+858957629+854937676+851391782+848504559+846601751
603+846080955+847053025+848499707+848240906+844645021+838637446+833677174
594+833387911+838950353+848735478+860209688+871457524+881094947+888130848
584+892458304+895030593+897480666+901365200+907114404+913593090+919001505
574+922552619+925201430+928435338+932467697+935971645+937852958+938628993
564+939533261+941099026+943139526+945377044+947508990+949193714+950464751
554+951741499+953203596+954695172+956243679+957911392+959207424+959498591
544+958814310+957440281+955184708+951827663+947823125+943855006+939987176
534+935786971+931065664+926086721+921325617+917668071+916784070+920158310
524+927055782+934601424+940070332+942483250+943035121+944029546+946506826
514+949643515+952525333+955184400+958203972+962129285+966857348+971285402
504+974130801+974983481+973970693+970783153+965014174+957501389+950514128
494+946213203+945367156+947662587+952351837+958561834+965586988+972857615
484+979867967+986609262+993454471+1000031666+1005040824+1007664026+1008568048
475+1009214805+1010400721+1011040784+1008677796+1002041766+992296806+982014776
465+973884344+970188046+971746379+976886719+983292568+990196857+996474963
455+999422372+998560664+997594121+1000725774+1008340999+1018055374+1027681988
445+1035886362+1042249528+1047646887+1053174815+1058667858+1063277023
436+1066471933+1067770114+1066659493+1063621804+1060414489+1058659014
428+1058469735+1059002445+1059974883+1061710214+1063264126+1061785017
419+1056311503+1053022998+1056608873+1061931798+1062868370+1059153525
411+1056480393+1059592885+1066550052+1072170224+1073741823+1070795520
402+1063327383+1053571921+1047129531+1048394180+1053275166+1055149294
394+1053747935+1049197114+1038087830+1017717409+991539810+969949511+965403911
384+979925636+998079235+1004985060+999422065+986920143+972896429+964223584
374+969051937
##END=
