##TITLE=LSH-R444A
##JCAMP-DX=5.0
##DATA TYPE=LINK
##BLOCKS=1


$$ === CHEMSPECTRA SPECTRUM ORIG ===
##TITLE=LSH-R444A
##JCAMP-DX=5.00
##DATA TYPE=INFRARED SPECTRUM
##DATA CLASS=XYDATA
##$CSCATEGORY=SPECTRUM
##ORIGIN=Angelika Moesle
##OWNER=
##XUNITS=1/CM
##YUNITS=TRANSMITTANCE
##XFACTOR=1.0
##YFACTOR=9.0014868e-10
##FIRSTX=3997.453
##LASTX=373.96442
##MAXX=3997.453
##MAXY=0.9665272846342435
##MINX=373.96442
##MINY=0.21455201493848736
##NPOINTS=2559
##XYDATA= (X++(Y..Y))
2559H69479321H69524151H69585865H69560636H69326230H68943698H68631619H68540307
2551H68616323H68745512H68959921H69335831H69724522H69891917H69897744H69973959
2543H70044149H69763060H69092486H68439062H68162542H68234255H68406748H68513026
2535H68537923H68542426H68582487H68613145H68501239H68238823H68050504H68165985
2527H68546862H68836559H68440982H66899066H64493357H62122344H60533216H59943294
2519H60160616H60893102H61872311H62848937H63776431H64888470H66328082H67741803
2511H68581626H68770078H68671416H68627448H68726177H68919727H69173138H69357550
2503H69162609H68364502H67210217H66298152H66103012H66602549H67275507H67722733
2495H68162079H68921846H69648836H69758557H69743195H70395162H71205188H71163935
2487H70246970H69258358H69110960H70062689H71152546H71507267H71443699H71672477
2479H72242866H72681285H72991906H73294979H73185324H72553686H71927543H71638243
2471H71508327H71483164H71664995H71534416H70784912H70224655H70767629H72257830
2463H73625730H74188172H73798091H72494687H70656055H69401253H70339010H72469127
2455H73230881H72576397H71514881H70860597H70792659H70774516H70455022H70614471
2447H72147977H74011772H74330405H73429199H72823120H73101097H73787629H74281008
2439H74319016H73809679H72964691H72538125H73378941H75032829H75857820H75901126
2431H76202079H76546471H76007668H74671619H73300342H72638641H73131292H74154865
2423H74365765H73638112H72941052H72988132H73622418H74408938H74912646H74838285
2415H74572162H74552760H74489060H73968135H73308619H73180888H73607322H73888411
2407H73674465H73564149H74354177H75815375H76902782H77240949H77160430H76899272
2399H76380731H75592424H75031637H75293788H76172282H76733268H76576666H76335572
2391H76691617H77301670H77194664H76117057H74569844H73422843H73567327H74398476
2383H74285047H73391721H72890264H73217241H73506474H73119836H72328748H71696249
2375H72008393H73806170H76009125H76857887H76498994H76144007H76512965H77587261
2367H78824383H79719497H80272933H80557135H80426159H79942646H79422715H79089580
2359H79067662H79486084H80226450H80855440H81275252H81623286H81865307H81993767
2351H82131894H82334914H82520585H82601700H82478405H82080577H81541575H81105804
2343H80878682H80775715H80656393H80560644H80763200H81444700H82482378H83431392
2335H83722744H83256845H82889741H83708905H84877824H84789557H84355641H85040981
2327H86312138H86533301H85804656H84963707H84278035H83705396H83318162H83364182
2319H83963375H84563163H84279625H83253733H82451654H82575015H83345575H83596602
2311H83231485H83070910H83432981H83995489H84129380H83549390H82622359H81926425
2303H81794985H82155335H82732544H83673612H85487545H87289890H87326707H86036943
2295H84757641H84324519H85048795H86455100H87191493H86721422H86093094H86346505
2287H87359484H88174343H88110643H87099518H85629579H84523698H84335114H85062369
2279H86135870H86799624H86948942H87145207H87696790H88181296H88089255H87574489
2271H87169707H87089453H86881600H86266118H85861734H86171164H86905703H87308299
2263H86958411H86209834H85699107H85593889H85536347H85357297H85563562H86828494
2255H88587137H88953579H87746320H86582964H86396366H86852067H87081441H86675071
2247H85930798H85384976H85386896H85891598H86509993H86834652H86702815H86287837
2239H85953709H85874117H85930467H85946624H85899875H85980394H86388354H87015887
2231H87528601H87786977H87967748H88237845H88451459H88334587H87910934H87564887
2223H87606670H87842003H87779892H87247909H86641631H86464834H86791877H87340347
2215H87842996H88112762H87958809H87337169H86540386H86060913H86148518H86568595
2207H86952253H87164211H87304193H87489798H87627131H87493771H87091241H86768966
2199H86881269H87378091H87877959H88088659H88051181H88024694H88168252H88425304
2191H88711160H88993176H89175270H89127595H88858094H88462782H87996486H87605213
2183H87591308H88059524H88694341H89127132H89320815H89438217H89612962H89959936
2175H90506288H91056215H91354453H91348826H91134682H90798567H90437555H90151235
2167H89932721H89769431H89795190H90084887H90408354H90487416H90394780H90402858
2159H90550189H90639052H90614552H90709308H91181696H92001654H92792411H93056151
2151H92556680H91589854H90829490H90797442H91425571H92171499H92566679H92523837
2143H92184345H91704210H91193747H90730563H90430801H90457155H90832338H91309229
2135H91565552H91496356H91269433H91188119H91475962H92048932H92531121H92599853
2127H92304263H91990662H91941596H92153157H92463183H92762680H92982717H93000993
2119H92759634H92402065H92128922H92007680H92034431H92239305H92640047H93223414
2111H93957423H94697457H95192161H95336711H95293538H95245399H95149054H94853066
2103H94399484H94085883H94167064H94565488H94987552H95263145H95411602H95459940
2095H95401008H95282944H95223879H95350087H95702425H96117271H96284070H96055292
2087H95653027H95445306H95552180H95793936H96039135H96398889H96947029H97428952
2079H97528807H97315457H97119258H97058538H97021324H97025231H97208319H97510995
2071H97751691H97965438H98308903H98665346H98690376H98285793H97762220H97471265
2063H97463650H97583369H97743083H97934714H98066352H98066087H98116345H98452659
2055H98940674H99244938H99396177H99715208I00173955I00326120H99939152H99349627
2047H99116677H99523246I00428491I01474380I02358767I02902801I02970673I02540994
2039I01837113I01199052I00838106I00766526I00862474I00989742I01161971I01484047
2031I01877506I02104231I02139127I02231234I02505171I02807582I03007688I03143961
2023I03228056I03204351I03149921I03237856I03456900I03596551I03535830I03375321
2015I03323275I03527486I03929884I04291161I04477958I04584169I04637208I04489215
2007I04169522I03995107I04170647I04552716I04904723I05143036I05267192I05229183
1999I05028216I04863404I04947962I05160980I05182236I05015437I05055895I05602710
1991I06518484I07339038I07693892I07705082I07801825I08102580I08350031I08417042
1983I08293084I07494183I04856650H99082774H89931397H79450790H71615001H69657775
1975H73468664H80060313H86353656H90985827H94046219H96167463H97958618H99672498
1967I01117142I01994311I02319434I02383929I02395384I02364792I02303211I02293279
1959I02329035I02263614I02007224I01662236I01383001I01191238I00994311I00643297
1951H99897237H98538872H96673886H94685075H92713944H90415571H87357233H83548198
1943H79592957H76439333H74904899H75258694H77179434H80046010H83226253H86232877
1935H88757578H90634947H91928220H92984703H94108264H95221031H96134421H96963848
1927H97900480H98812744H99503182I00105156I00795992I01363997I01443523I01050396
1919I00603965I00464711I00623763I00870287I01147734I01547085I01991464I02262356
1911I02411409I02791756I03527023I04280434I04714682I04905650I05137009I05503518
1903I05894327I06233157I06582316I07069736I07765803I08550269I09126352I09276465
1895I09063182I08671379I08198196I07729318I07442402I07465644I07756996I08214221
1887I08782689I09411215I10039742I10652376I11224221I11638008I11810701I11895391
1879I12200318I12883010I13837851I14866656I15827390I16658406I17410559I18195489
1871I18961944I19428770I19426121I19184564I19075903I19157879I19213567I19221910
1863I19546369I20517898I21950491I23226879I23849711I23827926I23547499I23378051
1855I23454730I23693771I23886991I23873416I23747473I23811570I24198407I24638614
1847I24710061I24201453I23124906I21507966I19345602I16656685I13363609I09103441
1839I03259244H95241558H84857098H72548984H59207893H45497249H31237273H15624495
1831G98436560G81217901G66982822G58297476G55615578G57634914G62929647G70717827
1823G80307226G90541375G99965167H07237388H11462460H12416110H10438754H06112105
1815H00233807G93947615G88409073G84133278G80846956G78023686G75425617G73140024
1807G71384494G70483950G70851849G72607313G75175318G77567852G79188499G80209821
1799G81199360G82610896G84618844G87207046G90336898G94066540G98429011H03132034
1791H07531786H11065625H13688591H15833143H18058611H20794145H24158669H27822094
1783H31239127H34223502H37098157H40154708H43229336H45963545H48260793H50335619
1775H52415610H54436271H55955143H56336881H54993548H51434017H45322107H36861433
1767H27167809H17924126H10427895H05084029H01839423H00722153H01671366H04106939
1759H07048671H09649189H11570923H13059733H14744677H17184554H20504779H24471144
1751H28770313H33133712H37369644H41406265H45228013H48744570H51802710H54348600
1743H56553144H58745041H61161080H63739482H66212004H68405093H70384832H72288158
1735H74065142H75450589H76248762H76632353H77066204H77918145H79171953H80497672
1727H81574550H82402720H83283464H84442186H85749630H86892989H87729700H88381998
1719H89046546H89805983H90624087H91433318H92153554H92698450H93083697H93465832
1711H93954244H94514634H95122766H95801352H96446168H96890613H97209776H97716795
1703H98595885H99682828I00635020I01228055I01465904I01454647I01287186I01120850
1695I01216996I01704945I02370752I02852874I03019872I03048411I03147206I03303543
1687I03362078I03326652I03452265I03952795I04735606I05528813I06138467I06467828
1679I06449618I06146215I05830627I05796923I06093507I06520205I06839302I06896182
1671I06623966I06119530I05684024I05621913I05963722I06450678I06763418I06787918
1663I06740905I06939554I07365789I07687469I07832549I08180980I08965976I09862083
1655I10420023I10636551I10867381I11370096I12086492I12767330I13190386I13318118
1647I13344936I13540539I13916516I14123376I13897379I13512265I13475448I13848578
1639I14228064I14361623I14429031I14673900I15057293I15366987I15494851I15486110
1631I15383607I15141255I14743294I14331494I14118344I14198797I14508623I14895195
1623I15183965I15302757I15396851I15675953I16130132I16551732I16790310I16821299
1615I16698600I16611724I16821961I17369240I17993264I18446581I18734491I19014056
1607I19382882I19764885I19982737I20018891I20131128I20555575I21211515I21868912
1599I22395267I22674038I22601200I22361165I22382553I22821767I23354147I23619675
1591I23664636I23844347I24390103I25141461I25730854I26002209I26126232I26308857
1583I26577431I26877325I27230723I27734166I28410104I29081869I29525321I29760653
1575I29992743I30250855I30382625I30417323I30602067I31020091I31486122I31894744
1567I32376204I32977846I33454406I33562339I33383223I33214570I33285223I33632197
1559I34104585I34505526I34814095I35138754I35433351I35496058I35269266
1552I34895673I34548368I34432622I34794230I35645243I36605581I37246887
1545I37495132I37563137I37631935I37730134I37804032I37807210I37757018
1538I37730797I37790126I37968183I38308403I38800788I39306947I39614125
1531I39548107I39101013I38554198I38291319I38334823I38319328I38036584
1524I37667096I37413752I37304561I37401767I37849721I38646173I39530891
1517I40124322I40198087I39877931I39495332I39176831I38725566I37952224
1510I36963811I36070817I35525723I35395607I35643191I36283106I37369189
1503I38784035I40139022I41012550I41302048I41257352I41175177I41170939
1496I41288540I41649817I42282184I42910512I43226761I43337210I43638429
1489I44235105I44798607I45059169I45129160I45215440I45326352I45476664
1482I45891245I46712130I47728288I48639095I49368601I49937070I50277753
1475I50332779I50145320I49809868I49474548I49326422I49456404I49804571
1468I50259809I50699420I50960842I50949056I50768814I50585461I50401446
1461I50228091I50364298I50987527I51532754I51226635I50277224I49704054
1454I49967132I50585461I51035799I51253784I51327946I51313114I51281859
1447I51227827I51050102I50765835I50549572I50494480I50495539I50401313
1440I50174522I49923429I49865092I50204187I50879330I51428330I51344169
1433I50647638I49917139I49649757I49796757I50040764I50262391I50510305
1426I50760868I50984415I51276430I51713856I52227695I52730543I53211738
1419I53700746I54303978I55220745I56518521I57917674I58997201I59657048
1412I60243196I61128443I62267962I63345039I64259885I65188107I66225057
1405I67276773I68219695I68964828I69456419I69651361I69458737I68841732
1398I67970390I67074945I66267303I65710687I65803457I66922647I68742275
1391I70181357I70608519I70366829I69956685I69599579I69466219I69672219
1384I70080046I70406890I70452050I70152354I69558128I68826635I68250153
1377I68319152I69440858I71290747I72846105I73426161I73261216I72930068
1370I72790285I73011448I73577201I74120110I74193676I73768567I73200297
1363I72807633I72739431I73062170I73681624I74296908I74675202I74887558
1356I75113886I75387028I75732480I76373853I77483905I78801480I79784397
1349I80176133I80228577I80321545I80520922I80669048I80813202I81281352
1342I82306184I83809959I85551054I87209379I88444581I89152236I89534503
1335I89757587I89840225I89954514I90371082I90973916I91327049I91443523
1328I91999212I93415979I95148797I96305201I96614697I96403334I95933131
1321I95160385I94071853I93117210I93087082I94243155I95907439I97387178
1314I98627345I99367645I98861619I97372345I96693825I98110526A000625956
1307A002046100A001502132A000201310I99662441I99947900A000240709A000549543
1300A001788452A004347453A007387913A009599940A010373613A010251775A010267004
1293A010921024A011943472A012827197A013331038A013561405A013643712A013352227
1286A012448638A011416323A011164635A011811635A012550214A012935593A013393944
1279A014177350A014780317A014829912A014785284A015465922A017370440A020268138
1272A023102400A024726358A024868988A023943415A022461292A021218343A021131401
1265A022165437A023454870A025089820A028466395A033822577A038640287A040369000
1258A039336023A037383632A035503416A033878464A033022087A033508248A034952296
1251A036327016A037102410A037354099A037151411A036601814A036317745A037164389
1244A039307153A041864498A043771863A044705250A044974089A044900920A044615659
1237A044230875A043968129A044033021A044385888A044761666A044982498A045123870
1230A045379598A045944358A046941909A048268158A049596593A050656122A051416816
1223A052089311A053097654A054814316A057041771A059000784A060158380A060883119
1216A061956024A063591372A065287837A066561378A067416166A068016352A068285853
1209A068130178A067840282A068011187A069035291A070631570A071883392A071982717
1202A070976161A069661566A068987085A069600514A071347304A073106012A073741823
1195A073221229A072282148A071319162A070193085A068744468A066963842A064738969
1188A061657057A057232872A051300408A043745178A033532814A017874678I92264409
1181I52091620H95436168H24804014G46102393F65752182E88904886E20352690
1174D65367515D27670559D06965836C99881438D03089161D14776926D33834449
1167D58815729D87870677E19088254E51095329E83661802F16786843F48942343
1160F77480637G00999990G19895779G34760444G45670133G53494268G61110946
1153G71740209G85835637H01086013H15352544H28307990H40416064H51484474
1146H60898797H68721806H75564547H81736847H87427091H92993907H98239111
1139I02606085I06526628I11228724I17233165I24071933I31024726I37464871
1132I43044600I47697630I51307550I54052687I56867283I60635262I65084810
1125I68933177I71320412I72914441I75128983I78465829I82156005I85161768
1118I86888031I87482654I87742951I87920544I87054102I84217588I79467617
1111I73017606I64149105I50814239I30244233I00531656H60960709H12006164
1104G57202521G02851600F54131659F13043760E79305025E51528716E28524527
1097E09789379D94778508D83059655D75214297D72297993D74741015D81948344
1090D91747053E01239148E08811925E14406387E19003992E24055911E30258703
1083E37114422E43898397E50226801E55844340E60549548E64310311E67207015
1076E69118088E69568360E68362095E66007504E62697212E57616159E50085926
1069E40417564E28928779E15667545E01078242D85785488D70070670D53734676
1062D35875472D15310498C91643715C64887934C33935256B98013166B63128953
1055B41843279B38351752B45840269B57209136B69649253B83569439C00104116
1048C19315725C40035313C60706035C79932145C96489070D09374856D18127644
1041D23414232D27757866D35336669D48208649D63685418D79146528D94133163
1034E08227764E20536275E30793169E39767682E48771530E58467570E67645302
1027E75226555E82399120E90427533E98805039F06700754F14238503F21725927
1020F29131641F36195081F42580532F48270842F53677481F59066175F64267543
1013F69121274F73622205F77828538F82007127F86508786F91313583F95992834
1006G00184998G03898018G07612297G12120909G17420674G21945774G24821686
999G26943659G29340297G32167606G34937771G37511869G40251508G43175891
992G45822629G48009891G50191855G53181594G57121207G60676898G63042745
985G64885151G66702263G68551026G70798611G73787091G76875758G79295373
978G81361855G83396819G85016473G86100437G87267237G89256246G91946355
971G94228902G95582565G96397292G96988340G97303862G97218178G96702020
964G95914707G95347364G95797438G97723210G99990726H01600581H03058931
957H04644683H06212357H07886176H09807116H11565427H12747655H13831486
950H16145950H20319771H24321230H26658340H28144965H29595039H31208800
943H33051869H35260584H37487708H38855674H39391762H40376930H42772840
936H45588694H47878922H49724441H50562476H50350451H49998246H50093068
929H50362834H50307410H49807940H48844292H47927724H48102668H49483810
922H51619224H54184317H56967791H59376944H60870258H62006730H63904759
915H66452238H68214986H69040241H69917609H71497401H73327292H74506740
908H74923440H74923969H74931584H75870269H78647584H80874312H80941256
901H80231946H79637521H78915431H77419667H75577062H74268758H74066996
894H75246907H78336500H83826108H89370808H91999601H92513441H92352204
887H92114288H91929412H91776650H91531252H90553698H88029065H84286577
880H80481582H78162881H79277502H83407488H88037474H92176399H95647333
873H97921073H98598467H97995699H96655081H94637068H91123558H84383518
866H72710354H55965407H36771180H20620724H13305198H16894063H29078948
859H45589091H62329999H76793988H88483309H97966365I05654756I11546629
852I15729721I18465056I19542795I18351826I15414398I11302423I04723025
845H93114355H75560243H52590156H24451147G95123420G71425813G56618823
838G50425268G50327797G50269129G49585047G49950099G51003668G51731255
831G52498041G54838859G60091809G69598703G84386490H03837306H28053057
824H54146176H70496142H77276441H81822200H88227846H96201498I02142438
817I04876647I06012789I07139660I08992595I11289047I12683433I10754946
810I03434188H88480595H61723456H22400159G75142211G22776790F67203580
803F13488602E65529620E27207251E12765774E19303027E32781318E49799474
796E70740060E95692403F23670638F50204759F70507581F85932305G01435694
789G20952461G42823819G60934082G73761863G83468200G91522703G98008603
782H02195006H04113627H05248643H07095751H08575622H02741622G80608776
775G44908511G04220824F62792704F26545889F07907549F12554817F29800162
768F49504454F70600483F95625002G17956034G27753221G29185284G28136945
761G26067284G21031987G11216922F99591500F91698963F89948730F93524616
754G00445096G09116073G19090653G29581258G38009155G42660396G42926851
747G37594110G27644295G18889289G17733017G26749644G42910695G59352635
740G72525801G84133080G95563892H05334393H13135154H20064904H26796335
733H33399968H39414408H44234899H47386471H47803899H43808664H33946055
726H16131978G88645863G55519233G27009080G11922260G12868559G25267787
719G41844014G58207289G72074469G81129303G84274253G82571696G77402576
712G70200345G63044533G57224703G51588889G44062861G35495910G30101455
705G29814141G32218527G33958430G33415588G31444589G30317784G31544642
698G33347186G32342219G28580728G26010801G29234814G39544449G53673913
691G67327810G78557920G87518197G94992246H01681166H07981859H14075030
684H20208328H26521735H32537896H37418115H40443478H40601801H36566968
677H27490945H13418031G95325381G75658567G58379518G47089946G42741114
670G43752968G48080477G54174906G60376010G65140217G68401509G71783117
663G76805899G82949858G88201948G91430595G93460593G95757973G98926297
656H02963646H08070457H14390552H21335200H27794084H33041274H37224630
649H41009099H44742448H47467718H46633192H39963210H28498362H16911676
642H10107208H09882337H14853802H22553185H30945192H38836007H45851838
635H52021555H57150284H60532554H61167967H58458853H53062147H46692721
628H40396729H33016575H21541067H03117599G77769877G50565249G30678465
621G26037354G37705221G59785889G84410262H06235864H23095895H34278396
614H39124115H36834549H26896984H09284138G84313652G52994333G18058074
607F84218822F56624377F38877642F32331285F36193624F47547692F62219534
600F77144191F92009386G08013503G25334599G42435724G57585848G70320330
593G81378608G91749030H01914711H11712825H20629465H28180192H34137818
586H38466718H41044988H41533136H39482545H34294023H25188600H12131842
579G97337632G84953766G78002695G75664990G74253586G70902438G66031887
572G62497850G62956664G68071884G76538054G86083816G94351933G99485164
565H00841277G99601705G98366967G99583495H03887299H09340356H11853336
558H07579528G97136598G87413111G86684995G97069058H13271891H28559149
551H39884346H47543006H52670940H56181074H58771726H60919456H62900123
544H64854700H66611091H67240875H64692403H56238020H40376930H19361751
537G99706724G88871992G90256777H01163751H15545499H28364605H37680994
530H44053731H49005794H53754705H58640882H63299275H67110694H69474025
523H70002631H68688102H65644000H60503948H52548969H42188546H32365072
516H27637416H31034253H41656960H55530100H68731275H79586468H88310286
509H95472852I01246463I05643566I08831954I11114898I12848842I14476310
502I16474722I19072857I21986645I24497837I25666160I24390501I19681584
495I11439955I00830888H89177125H76268892H60557517H41995922H24552591
488H14665284H16322880H27765810H42871105H54997786H59196041H51199213
481H25084507G73849004F95722208F01780210E14975716D57866152D39754464
474D54896013D90161070E32440336E71891364F03526536F27801485F48360631
467F67955799F86317288G01436223G12114022G19233019G24861747G30173498
460G34633639G37784747G41172712G47277338G56779861G67819864G77376552
453G82593216G82047527G77381916G73099699G73361982G78974289G87806305
446G97261549H05609655H11784272H15333010H16947566H18453791H21696212
439H27210121H33962874H40349715H45365545H48958979H51639222H53917465
432H55959580H57628433H58807814H59577845H60135785H60738950H61666312
425H63042885H64769744H66727566H68928269H71352056H73734060H75670030
418H77007867H78059583H79367358H81336966H84067070H87297174H90417558
411H92634418H93378426H92870016H92131372H91837768H90889483H85588724
404H69151485H33832296G78971773G18691169F76053275F65299129F81919324
397G10900076G40227869G65136377G84919466H00198050H12139788H21913005
390H30281902H37603521H43982018H49494537H54300725H58499709H62048314
383H64943363H67417673H69869668H72516273H75121559H77114145H77775183
376H76155595H71198897H62623934H52089560H43346274H40404476H44654645
369H53739475H63610625H71540375H77136923H81284655H84784989H87796314
362H90143223H91910209H93545093H95442459H97547877H99275597H99718585
355H97520728H90026881H74081961H50680739H28523922H18944058H25825933
348H42813166H60606716H74329677H83880008H90618724H95377236H98305592
341H99409288H98904917H96847307H92612633H84700232H70274913H46046316
334H13178195G81984620G67172731G75118969G97999134H22302026H40625639
327H53887469H65571824H77016078H87280421H95202160I00706401I04490406
320I07110260I08664294I08955845I07250771I01015963H85054688H55048044
313H15440943G81872384G70445942G83549051H08856380H31325341H42914013
306H42330183H31313886H14318972G99362398G94913183H04172229H23036499
299H44176960H62593872H77180096H88489203H96358299H99388892H96298638
292H88229303H79156922H71956744H63607910H45706096H09042448G46815677
285F58557765E57765544D73150000D33277701D46231161D96113432E58539150
278F16561045F63964603G00198506G26397042G44717477G57554792G66308474
271G72695778G80675456G93962050H11661507H29102918H42764960H52308273
264H58693591H62539905H64105262H63457599H60248816H53246560H39823228
257H16851684G84666784G51365276G30541728G31504846G51893022G80604008
250H05408092H17742097H16593175H10860950H13051059H27142514H45568035
243H59425216H66878208H70949261H73875565H74615004H70245711H60377740
236H50452888H48364819H56885087H71389932H85322335H95453650I01940477
229I06106154I09110593I11591855I13692771I15175953I15375198I13326527
222I08769644I03519144I01190841I04453193I12368839I21237472I27942086
215I31613457I32621138I31421164I28771314I25562929I20355734I07095957
208H84067466H64090363H57474546H65161083H83097992I03697862I20593451
201I31920304I38009104I38141670I28385802I01494443H51738944G84230418
194G18933654F77741066F64295287F62995856F61086703F63464139F79024010
187G01022437G11500328G01870934F82278548F71001689F77939715F97979262
180G17667993G26935249G25420018G20438423G20636211G30597350G49257673
173G72067318G94251217H12828241H27178073H38283365H47279995H54935079
166H62036594H69224257H76072560H78867755H67615396H30345470G69557649
159G11552639F87226373G04563096G46404340G89813987H21802357H40734896
152H50816681H57532485H64632014H72647978H80276510H86685996H92057938
145H96775264I00746198I03620720I05618602I07648269I10389232I13598942
138I16444726I18519751I20235220I22025448I23708935I24982211I25943674
131I26742244I27311573I27587364I27399243I26596501I26006182I27359778
124I31294227I36198614I39691929I40492486I38308601I31706888I16006969
117H85979070H44990693H09872935G98917689H13215276H35927516H48721328
110H41311377H07869026G49249330F83486601F39031794F34705079F70198881
103G27147539G80804445H18300566H42154643H58646577H70931515H79786243
96H85190829H86319488H81336635H69161351H53068106H40844551H36152785
89H32259059H19840628G97700366G74581556G60946465G58387597G57669082
82G49317996G34179659G21589198G17556153G14773672F98857755F64056577
75F18651961E79278604E61985981E76416597F22667525F85350461G40586564
68G75612613G88658643G79558053G49632392G05138319F59271644F29055293
61F27117138F52401622F87525539G17754869G42743432G64706963G82081760
54G94698576H05369289H15243088H22447305H25832886H27232966H29258064
47H33038228H39016116H47355812H56447529H63378073H66951245H68571760
40H70270013H72782662H75617256H78269953H80866299H83681492H86427885
33H88550122H90790158H94546352H99066684I02424652I03365389I02474645
26I01193556H99798442H97944911H96241692H95784136H96972456H99550395
19I02386379I01751694H93351873H79068986H63320266H47962289H33946651
12H23737466H21293881H29726611H48041749H68593015H83442185H92097138
5H96041254H93886571H83240689H68207039H62310002
$$ === CHEMSPECTRA INTEGRALS AND MULTIPLETS ===
##$OBSERVEDINTEGRALS= (X Y Z)

##$OBSERVEDMULTIPLETS=
##$OBSERVEDMULTIPLETSPEAKS=
$$ === CHEMSPECTRA SIMULATION ===
##$CSSIMULATIONPEAKS=
##END=


$$ === CHEMSPECTRA PEAK TABLE EDIT ===
##TITLE=LSH-R444A
##JCAMP-DX=5.00
##DATA TYPE=INFRAREDPEAKTABLE
##DATA CLASS=PEAKTABLE
##$CSCATEGORY=EDIT_PEAK
##$CSTHRESHOLD=0.93
##MAXX=3997.453
##MAXY=0.9665272846342435
##MINX=373.96442
##MINY=0.21455201493848736
##$CSSOLVENTNAME=- - -
##$CSSOLVENTVALUE=0
##$CSSOLVENTX=0
##NPOINTS=49
##PEAKTABLE= (XY..XY)
388.12973892103173, 0.7392866028742271
458.9563335261919, 0.5644986639760778
475.95471623143067, 0.505870938975655
521.2837367787329, 0.5713289390511457
534.0325238076621, 0.7191447031820005
596.3599270602031, 0.6186059125171376
623.2740330101637, 0.6485016954847316
631.7732243627834, 0.6040012846311205
641.6889476075057, 0.595076323071002
664.3534578811568, 0.7718545807154993
705.4328827521499, 0.7636544719812889
722.4312654573882, 0.729895413806046
732.3469887021106, 0.657596172144119
772.0098816810005, 0.39001435062858464
800.3405195230648, 0.7155400523920484
813.0893065519936, 0.6935158977026565
842.8364762861606, 0.690569521141645
868.3340503440186, 0.7371714128025434
898.0812200781857, 0.7564889797374916
937.7441130570755, 0.5988681327744997
1009.9872395543389, 0.6959046735632473
1045.4005368569192, 0.3958444002937075
1063.8154514542607, 0.733319880034425
1103.4783444331506, 0.7449967275310109
1131.808982275215, 0.7101020822877705
1158.7230882251756, 0.7081334598250566
1182.8041303909304, 0.6863614331803379
1228.1331509382326, 0.5691921715154538
1252.2141931039873, 0.6535415658337926
1280.5448309460512, 0.7290145166058651
1323.0407877091475, 0.6685774333488295
1357.0375531196246, 0.6535176641858926
1364.1202125801406, 0.6573945892481251
1371.2028720406565, 0.6569412356664839
1395.2839142064108, 0.6408358826016167
1426.4476158326815, 0.6460664278449675
1443.4459985379199, 0.6210564385771764
1464.6939769194682, 0.5472071777943853
1505.7734017904609, 0.46156543551542695
1555.352018014073, 0.6747379906047879
1593.5983791008598, 0.7320956004168386
1865.5725023846753, 0.21455201493848736
1920.8172461767003, 0.42513841496559923
2031.3067337607504, 0.35995274857220183
2868.477081993745, 0.720768989069708
2930.8044852462863, 0.693550110553686
2960.5516549804533, 0.680166365124137
3119.2032268960197, 0.7895919096382471
3171.614906903838, 0.782821298217987
##END=


$$ === CHEMSPECTRA PEAK TABLE AUTO ===
##TITLE=LSH-R444A
##JCAMP-DX=5.00
##DATA TYPE=INFRAREDPEAKTABLE
##DATA CLASS=PEAKTABLE
##$CSCATEGORY=AUTO_PEAK
##$CSTHRESHOLD=0.93
##MAXX=3997.453
##MAXY=0.9665272846342435
##MINX=373.96442
##MINY=0.21455201493848736
##NPOINTS=100
##PEAKTABLE= (XY..XY)
3488.9180507349492, 0.7982239142098648
3514.4156247928067, 0.797950150191519
3561.1611772322126, 0.7978885188116969
3614.9893891321344, 0.7976155289212159
3503.083369655981, 0.7975865612365448
3538.4966669585615, 0.7974416030934149
3542.746262634871, 0.7974184170637155
3583.825687505864, 0.7974072705226111
3554.0785177716966, 0.7969781174382317
3571.076900476935, 0.7969532022229179
3671.6506648162626, 0.7960515628967039
3603.657133995309, 0.7960330855447495
3622.0720485926504, 0.7960235484694849
3660.318409679437, 0.7951176775443262
3644.7365588663015, 0.7948951139828988
3677.3167923846754, 0.7947320349466919
3651.819218326818, 0.7943376915119167
3634.820835621579, 0.7937465917783697
3687.2325156293978, 0.7926355013565499
3714.146621579359, 0.7912915955799861
1617.6794212666146, 0.790477158157147
3760.8921740187648, 0.7888323083728449
3729.728472392494, 0.7886598713909607
3767.9748334792807, 0.7876585730037892
3122.036290680219, 0.7875444899603833
1640.3439315402657, 0.7867902526809653
3780.7236205082095, 0.7863376156176732
3752.392982666145, 0.7862104192082972
3786.3897480766223, 0.7859926237344278
3801.9715988897574, 0.7857767356756113
3745.310323205629, 0.7857310189244515
3833.135300516028, 0.7856705793414815
3809.054258350274, 0.7855045208131438
3823.2195772713058, 0.785414041468425
3738.227663745113, 0.7846562278983013
3871.381661602815, 0.7844644197168235
3886.96351241595, 0.7844288953491673
3841.6344918686473, 0.7835389390526709
3865.715534034402, 0.7833315745017053
3901.128831336982, 0.7828981889182326
3171.614906903831, 0.7828212991181356
3854.383278897576, 0.782590390278296
3892.6296399843627, 0.7823290834175327
3925.2098735027366, 0.7818938507289686
3987.5372767552776, 0.7818154108728447
3969.1223621579356, 0.7814753662067445
3954.9570432369037, 0.7813745153489347
3912.4610864738074, 0.7796214829958241
3942.208256207975, 0.7740768209689519
664.3534578811568, 0.7718545807154993
1691.339079655981, 0.7651247991392153
705.4328827521499, 0.7636544719812889
1682.839888303362, 0.7632610214940043
898.0812200781857, 0.7564889797374916
1103.4783444331506, 0.7449967275310109
388.12973892103173, 0.7392866028742271
868.3340503440186, 0.7371714128025434
1063.8154514542607, 0.733319880034425
1593.5983791008598, 0.7320956004168386
722.4312654573882, 0.729895413806046
1280.5448309460512, 0.7290145166058651
2868.477081993745, 0.720768989069708
534.0325238076621, 0.7191447031820005
1170.0553433620012, 0.7186489715006535
1736.6681002032838, 0.7159308798460795
800.3405195230648, 0.7155400523920484
1131.808982275215, 0.7101020822877705
1158.7230882251756, 0.7081334598250566
1009.9872395543389, 0.6959046735632473
2930.8044852462863, 0.693550110553686
813.0893065519936, 0.6935158977026565
842.8364762861606, 0.690569521141645
1182.8041303909304, 0.6863614331803379
2960.5516549804533, 0.680166365124137
1555.352018014073, 0.6747379906047879
1323.0407877091475, 0.6685774333488295
732.3469887021106, 0.657596172144119
1364.1202125801406, 0.6573945892481251
1371.2028720406565, 0.6569412356664839
1252.2141931039873, 0.6535415658337926
1357.0375531196246, 0.6535176641858926
623.2740330101637, 0.6485016954847316
1426.4476158326815, 0.6460664278449675
1395.2839142064108, 0.6408358826016167
1443.4459985379199, 0.6210564385771764
596.3599270602031, 0.6186059125171376
631.7732243627834, 0.6040012846311205
937.7441130570755, 0.5988681327744997
641.6889476075057, 0.595076323071002
521.2837367787329, 0.5713289390511457
1228.1331509382326, 0.5691921715154538
458.9563335261919, 0.5644986639760778
1464.6939769194682, 0.5472071777943853
475.95471623143067, 0.505870938975655
1505.7734017904609, 0.46156543551542695
1920.8172461767003, 0.42513841496559923
1045.4005368569192, 0.3958444002937075
772.0098816810005, 0.39001435062858464
2031.3067337607504, 0.35995274857220183
1865.5725023846753, 0.21455201493848736
##END=

##END=

