##TITLE=S. Graessle SG-V2558 42-51
##JCAMP-DX=4.24
##DATA TYPE=INFRARED SPECTRUM
##DATE=21/3/2017
##SAMPLING PROCEDURE=Diamant-ATR
##ORIGIN=Angelika Moesle
##XUNITS=1/CM
##YUNITS=TRANSMITTANCE
##RESOLUTION=4
##FIRSTX=3997.4121
##LASTX=373.82813
##DELTAX=-1.4160156
##MAXY=1.0006739
##MINY=0.3088901
##XFACTOR=1
##YFACTOR=9.3195018e-010
##NPOINTS=2560
##FIRSTY=0.98651314
##XYDATA=(X++(Y..Y))
3997+1058547071+1058427663+1058512534+1058824899+1059100042+1059104391
3989+1058849843+1058485608+1058084278+1057626731+1057216511+1057149996
3980+1057584136+1058240909+1058710033+1058932667+1059114688+1059314873
3972+1059440485+1059507128+1059623273+1059795957+1059894451+1059762188
3963+1059366358+1058895700+1058601562+1058528331+1058570095+1058737151
3955+1059111043+1059620076+1060092333+1060428683+1060608785+1060638653
3946+1060522763+1060198949+1059651159+1059144620+1059056423+1059322932
3938+1059462678+1059246375+1058941365+1058921538+1059251556+1059606325
3929+1059563410+1059093966+1058631686+1058624011+1059109444+1059611569
3921+1059563410+1058936824+1058276725+1058155335+1058645692+1059349794
3912+1059846355+1059962757+1059765961+1059414710+1059004298+1058614289
3904+1058463863+1058727813+1059107973+1059073372+1058611603+1058167998
3895+1057912107+1057636580+1057314749+1057326837+1057908333+1058590625
3887+1058893781+1059069982+1059603063+1060328974+1060580260+1060145162
3878+1059509814+1059188111+1059056040+1058768873+1058412249+1058377073
3870+1058770792+1059371475+1059980728+1060439172+1060524618+1060170936
3861+1059626919+1059144812+1058728708+1058360189+1058136979+1058190447
3853+1058651960+1059426926+1059928604+1059845396+1059437479+1059066720
3844+1059046382+1059556183+1060434119+1061159966+1061297281+1060879387
3836+1060240585+1059600057+1059105414+1059049452+1059547484+1060158784
3827+1060300129+1059949198+1059620715+1059732512+1060220631+1060662189
3819+1060568364+1059866949+1058920387+1058130775+1057790333+1057896949
3810+1058205477+1058456188+1058463543+1058280178+1058276085+1058651448
3802+1059057447+1058958186+1058305441+1057756819+1057812654+1058317146
3794+1058715661+1058646779+1058353857+1058369462+1058850674+1059322548
3785+1059263772+1058852593+1058764460+1059227956+1059758478+1059872066
3777+1059786939+1060070396+1060770596+1061366099+1061306555+1060473708
3768+1059369940+1058735488+1058760495+1058988117+1058957994+1058698457
3760+1058549181+1058752948+1059227508+1059643036+1059715435+1059414710
3751+1059037172+1059033271+1059365783+1059555927+1059572236+1059671497
3743+1059780479+1059679811+1059558933+1059625384+1059796533+1059964419
3734+1060198694+1060445439+1060447422+1060240649+1060105380+1060195496
3726+1060483941+1060768166+1060784923+1060600855+1060564527+1060748659
3717+1060947117+1061192264+1061640666+1062060927+1061999016+1061587582
3709+1061501240+1061727519+1061711914+1061346720+1060943408+1060740728
3700+1060758316+1060856490+1060773922+1060321875+1059661711+1059188686
3692+1059078616+1059151783+1059158371+1059091536+1059174040+1059448543
3683+1059660240+1059562067+1059198983+1058825667+1058565362+1058391208
3675+1058421459+1058799572+1059313786+1059718761+1060037586+1060460341
3666+1061065693+1061634334+1061836118+1061562255+1061100166+1060833658
3658+1060777823+1060619850+1060201827+1059784765+1059633315+1059682817
3649+1059748821+1059761868+1059780096+1059867653+1059993968+1059966082
3641+1059566735+1058923329+1058535750+1058716301+1059301570+1060006567
3632+1060685597+1061206974+1061400891+1061222899+1060900940+1060727361
3624+1060787161+1060957798+1060916034+1060342916+1059439845+1058968227
3615+1059287116+1059981496+1060519757+1060738298+1060837751+1061022331
3607+1061257372+1061403961+1061417840+1061311416+1061084689+1060797970
3598+1060598616+1060593883+1060724931+1060801423+1060752305+1060759084
3590+1060946286+1061134447+1061093515+1060886166+1060674981+1060416531
3581+1060093868+1059869188+1059859786+1059967425+1059978106+1059798195
3573+1059604086+1059677189+1060018527+1060284652+1060153988+1059724453
3564+1059416117+1059369940+1059378127+1059352352+1059479115+1059824418
3556+1060036435+1059784125+1059275540+1059038324+1059298180+1059848082
3547+1060413973+1060831035+1061006149+1060957414+1060822018+1060695511
3539+1060543165+1060301025+1060004840+1059783741+1059761037+1059980153
3530+1060332939+1060546619+1060370162+1059801457+1059098955+1058663344
3522+1058782112+1059244649+1059478219+1059293895+1059098123+1059172889
3513+1059263836+1059114304+1058906253+1058947569+1059263260+1059626663
3505+1059785660+1059642077+1059375760+1059303041+1059489987+1059683457
3496+1059659089+1059437223+1059177686+1059033974+1059090768+1059283982
3488+1059410041+1059340008+1059138672+1058930428+1058814155+1058907979
3479+1059236334+1059602615+1059771142+1059730721+1059688637+1059816551
3471+1060020382+1060025818+1059767432+1059528425+1059537891+1059639263
3462+1059554392+1059280720+1059021311+1058863913+1058678758+1058284975
3454+1057725224+1057370008+1057581513+1058222681+1058717388+1058683235
3445+1058311965+1057989814+1057791164+1057604090+1057487049+1057588037
3437+1057857615+1058098669+1058223513+1058284911+1058317273+1058284464
3428+1058169597+1058034648+1057996977+1058114082+1058279283+1058306785
3420+1058140816+1057879169+1057608055+1057362333+1057207365+1057178777
3411+1057211842+1057241327+1057231477+1057045938+1056575343+1056063944
3403+1055954706+1056281653+1056544132+1056324568+1055738787+1055155628
3394+1054744705+1054460225+1054271232+1054175425+1054084606+1053893439
3386+1053665624+1053589004+1053689992+1053745314+1053581521+1053277150
3377+1052966639+1052690537+1052515871+1052473659+1052331995+1051813113
3369+1051036356+1050365000+1049918070+1049568929+1049283361+1049139394
3360+1049076525+1048858048+1048352341+1047730168+1047197215+1046620516
3352+1045747312+1044713705+1043893905+1043296932+1042557270+1041496097
3343+1040274968+1038999028+1037541962+1035840452+1034085219+1032460394
3335+1030893386+1029204220+1027328876+1025235695+1022748603+1019659740
3326+1016023727+1012233129+1008691260+1005440203+1002249585+998970962+995572676
3316+991963141+988081469+984054167+980039656+975997388+971727114+967115757
3306+962321868+957626728+953075299+948451919+943607375+938562519+933356811
3296+928087722+922937593+917936291+912942408+907977178+903312930+899213676
3287+895810849+893138090+891102470+889539683+888432717+888059721+888858222
3277+891025210+894195682+897706787+901290932+905255237+909885972+915047678
3267+920485165+926125524+931933386+937806996+943707020+949604614+955311232
3257+960627650+965576762+970298828+974876991+979375911+983817206+988037658
3247+991802929+995095430+998150076+1001196407+1004268512+1007283057+1010194375
3237+1012944202+1015340731+1017268136+1019006932+1021034686+1023496579
3229+1026068989+1028263926+1029752075+1030603981+1031310385+1032359662
3220+1033757312+1035105460+1036077988+1036685835+1037215782+1038002068
3212+1039131099+1040335535+1041267067+1041791194+1041975582+1041970529
3203+1041964645+1042082902+1042312443+1042621547+1043020638+1043450620
3195+1043841077+1044235243+1044597815+1044704111+1044530724+1044464145
3186+1044850125+1045624003+1046470089+1047029072+1047031567+1046568775
3178+1046122611+1046098819+1046437599+1046775483+1046888879+1046926869
3169+1047205402+1047775322+1048351573+1048688690+1048825814+1048951233
3161+1049222219+1049678807+1050177287+1050482489+1050520544+1050482233
3152+1050608676+1050924304+1051269799+1051585618+1052011507+1052625813
3144+1053254573+1053641001+1053681933+1053458724+1053155056+1052949499
3135+1052899037+1052954999+1053105298+1053396366+1053784840+1054075268
3127+1054074181+1053776845+1053378522+1053139451+1053223426+1053589004
3118+1053993403+1054157005+1053964175+1053508034+1052991007+1052656065
3110+1052722516+1053233276+1053947674+1054511902+1054760374+1054760502
3101+1054604575+1054338771+1054103089+1054089339+1054269505+1054347661
3093+1054076803+1053520890+1052940673+1052466113+1051936805+1051132995
3084+1050167182+1049462633+1049285920+1049523392+1050005051+1050751556
3076+1051708671+1052524441+1052851581+1052681072+1052165579+1051362152
3067+1050409898+1049691087+1049479261+1049612036+1049742508+1049708355
3059+1049509897+1049180902+1048820569+1048543956+1048329316+1048059482
3050+1047728249+1047471654+1047374568+1047359410+1047338560+1047394970
3042+1047714435+1048374150+1049229126+1049908412+1049998527+1049443445
3033+1048684597+1048204153+1048110648+1048305396+1048697196+1049073199
3025+1049191519+1049141761+1049201560+1049309200+1049136964+1048622559
3016+1047967768+1047233031+1046365264+1045495066+1044838357+1044373838
3008+1043831291+1042904492+1041409372+1039396200+1037122724+1034771157
2999+1032244220+1029371596+1026172599+1022775465+1019211083+1015409932
2991+1011286503+1006766733+1001831946+996512331+990737023+984321954+977292132
2981+970029250+962835314+955516662+947696396+939399331+931030891+922911626
2971+915081511+907469041+900077478+893070552+886765681+881449391+877128591
2961+873558069+870661717+868899193+868998518+871293931+875547448+881343415
2951+888172093+895056733+900626356+903803031+904205448+901909459+897123948
2941+890096300+881120717+870638373+859359509+848089664+837354818+827339040
2931+818186296+810133610+803339916+797872689+793948421+791999143+792448376
2921+795489655+800996088+808556753+817688583+828004895+839117150+850490606
2911+861551568+871902481+881427070+890280688+898770583+907152710+915484695
2901+923628519+931386747+938644960+945360434+951443567+956818760+961596597
2892+965974255+969947577+973303204+975849264+977475560+978046823+977365554
2882+975204642+971335762+965641807+958354110+950287162+942837846+937533644
2872+935239447+935544649+936841183+937127070+935008818+930230982+923501884
2862+915978954+908839573+903057805+899266568+897676280+898209489+900896254
2852+906129208+914362635+925521004+938801078+953060781+967284412+980688051
2842+992567150+1002295634+1009628484+1014926098+1018911061+1022166147
2833+1024913928+1027201602+1029145316+1030944744+1032707588+1034337657
2825+1035654210+1036621366+1037412193+1038248686+1039203690+1040142321
2816+1040843417+1041199593+1041335949+1041530954+1041990804+1042675334
2808+1043366836+1043915203+1044366035+1044829467+1045304411+1045692693
2799+1045927799+1046018809+1046021240+1046037293+1046199551+1046568135
2791+1047048196+1047448246+1047614214+1047522372+1047320652+1047281063
2782+1047616581+1048284163+1048991590+1049430015+1049524735+1049494867
2774+1049659364+1050143326+1050781744+1051301138+1051557157+1051595467
2765+1051555366+1051546476+1051598729+1051691339+1051810235+1051985348
2757+1052279934+1052693927+1053073255+1053197588+1053011729+1052708061
2748+1052529814+1052540878+1052603812+1052557891+1052397167+1052251153
2740+1052152916+1051929642+1051460838+1050941444+1050687087+1050749062
2731+1050908314+1050968370+1050901855+1050806879+1050848451+1051140670
2723+1051598281+1051998204+1052223652+1052358281+1052542925+1052823440
2715+1053137788+1053376027+1053459683+1053401738+1053279197+1053105873
2706+1052796194+1052352461+1052007605+1052008757+1052303854+1052610911
2698+1052742982+1052706335+1052562879+1052380730+1052261131+1052251793
2689+1052260875+1052185917+1052084610+1052100983+1052251729+1052390963
2681+1052376189+1052222373+1052110960+1052237786+1052591852+1052954999
2672+1053170598+1053290901+1053431542+1053646629+1053936482+1054211368
2664+1054308263+1054186681+1053998584+1053898427+1053925225+1054052883
2655+1054175105+1054101874+1053770513+1053387795+1053198931+1053199634
2647+1053194454+1053084640+1053000920+1053135613+1053492429+1053896828
2638+1054263685+1054668596+1055092375+1055318015+1055246063+1055104207
2630+1055181339+1055530479+1056056973+1056689187+1057321401+1057750168
2621+1057835998+1057675722+1057539813+1057650523+1058018083+1058469875
2613+1058831999+1059070558+1059260958+1059450398+1059584388+1059561491
2604+1059330607+1058951022+1058604504+1058534279+1058865000+1059436135
2596+1059899311+1060024795+1059865606+1059629605+1059491586+1059514291
2587+1059653909+1059797876+1059863943+1059888055+1059989043+1060235021
2579+1060544700+1060720518+1060605268+1060252929+1059925342+1059834523
2570+1059894579+1059848657+1059655636+1059603958+1059977275+1060696854
2562+1061374349+1061659021+1061487425+1061059490+1060645113+1060394466
2553+1060279279+1060199653+1060144074+1060222550+1060497372+1060814471
2545+1060913476+1060758892+1060593947+1060530566+1060350591+1059986549
2536+1059856140+1060262587+1060781469+1060808523+1060456312+1060318485
2528+1060555893+1060784667+1060727553+1060463539+1060069053+1059452317
2519+1058694491+1058272823+1058669036+1059795701+1061011842+1061716902
2511+1061783673+1061446045+1060991759+1060649910+1060593052+1060823808
2502+1061062240+1060952618+1060482023+1060021213+1059859978+1059904812
2494+1059926429+1059910632+1060057541+1060562672+1061413875+1062308056
2485+1062814915+1062743411+1062352122+1062152961+1062479525+1063193092
2477+1063791856+1063853383+1063352408+1062543162+1061658574+1060820099
2468+1060146249+1059833436+1060037714+1060595738+1060995788+1060926651
2460+1060739321+1060982230+1061626787+1062173043+1062313237+1062081905
2451+1061659341+1061370896+1061499641+1061847247+1061914913+1061642649
2443+1061464912+1061545050+1061508723+1061101637+1060619018+1060457847
2434+1060619978+1060872927+1061068699+1061112957+1060961444+1060773986
2426+1060752688+1060807819+1060660910+1060206816+1059572619+1059015683
2417+1058865448+1059253858+1059832093+1060046668+1059724389+1059185297
2409+1058827777+1058788508+1058987222+1059349090+1059854414+1060387878
2400+1060711820+1060669864+1060320340+1059871682+1059568782+1059557206
2392+1059749972+1059925726+1060011748+1060123864+1060327695+1060535043
2383+1060638589+1060600087+1060429514+1060198438+1060048907+1060090031
2375+1060297955+1060606675+1061089357+1061918431+1063053985+1064100832
2366+1064651117+1064730040+1064730552+1064928178+1065186245+1065155865
2358+1064709510+1064071092+1063421674+1062601938+1061552981+1060726658
2349+1060596889+1061115644+1061872574+1062474728+1062759400+1062802443
2341+1062808967+1062960544+1063249630+1063500852+1063603055+1063590008
2332+1063567687+1063681403+1063867709+1063598259+1062412754+1060729152
2324+1059597627+1059598522+1060296676+1060847153+1060885207+1060623751
2315+1060344196+1060091886+1059828639+1059647257+1059678276+1059900143
2307+1060170041+1060345603+1060343364+1060216985+1060180530+1060401693
2298+1060757357+1060917249+1060701011+1060260156+1059893811+1059808429
2290+1060077687+1060608401+1061063711+1061105666+1060806540+1060563951
2281+1060597465+1060742583+1060662637+1060183536+1059602935+1059587905
2273+1060456504+1061695925+1062477606+1062525318+1062332871+1062605456
2264+1063501748+1064486812+1065012474+1065124078+1065261906+1065792428
2256+1066788813+1067919826+1068637231+1068795460+1068842085+1069133856
2247+1069436244+1069332378+1068852318+1068493776+1068680977+1069296115
2239+1069873646+1070240758+1070615354+1070922475+1070572119+1069365252
2230+1068200022+1068225732+1069450059+1070688649+1070875786+1070005397
2222+1068764697+1067704995+1066992963+1066632182+1066513670+1066326020
2213+1065905056+1065754821+1066606855+1068308812+1069768629+1070156783
2205+1069624214+1068874447+1068561058+1068877453+1069264648+1068708607
2196+1066690255+1063865407+1061747218+1061620583+1063578624+1066534136
2188+1069035874+1070040765+1069395248+1068054392+1067450383+1068197847
2179+1069564158+1070362660+1070221124+1069742278+1069314151+1068239163
2171+1065760897+1062527748+1060158848+1059751123+1061267094+1063625121
2162+1065238369+1065475905+1065625756+1067216748+1069545547+1070469916
2154+1069219111+1066941286+1065115700+1064313681+1064352438+1064918137
2145+1065659014+1066217677+1066508426+1066622589+1066494099+1065993317
2137+1065207158+1064447350+1064111257+1064375719+1064901764+1065092995
2128+1064634105+1063695409+1062780826+1062329034+1062320336+1062461041
2120+1062706955+1063139816+1063467083+1063251101+1062521992+1061670022
2111+1060950571+1060445887+1060275314+1060549625+1061222899+1062119000
2103+1063052578+1063884274+1064562857+1065222764+1066052349+1066899522
2094+1067317544+1067194299+1066890056+1066654695+1066460074+1066359918
2086+1066440631+1066500879+1066267052+1065807778+1065369801+1064948900
2077+1064286051+1063246624+1062098086+1061407735+1061655888+1062855079
2069+1064413709+1065325671+1064806660+1063136234+1061746962+1061965631
2060+1063671809+1065552206+1066440247+1066027214+1064634808+1062880854
2052+1061340260+1060103206+1058894996+1057857487+1057772808+1059013700
2043+1060760299+1061923100+1062576036+1063710951+1065567044+1067120493
2035+1067514404+1067108149+1066637299+1066235074+1065834959+1065834128
2026+1066670876+1067947584+1068619707+1068392148+1068386904+1069554181
2018+1070919853+1070723313+1069038241+1067570494+1066971218+1066280291
2009+1064996740+1063951812+1063766337+1063873529+1063728347+1063792240
2001+1064643762+1065943238+1066855711+1067137697+1067356558+1068184160
1992+1069715608+1071264325+1071857845+1071346637+1070711609+1070822958
1984+1071310885+1071189751+1070240375+1069062800+1068014994+1066854944
1975+1065747274+1065904992+1068241338+1071661817+1073741823+1073300392
1967+1071601058+1070714167+1071271360+1072217794+1072193682+1070824557
1958+1068961812+1067678901+1067134436+1066669533+1065848710+1065061273
1950+1064979472+1065716895+1066759584+1067484280+1067517729+1066805889
1941+1065633303+1064438652+1063528290+1063131373+1063441372+1064320652
1933+1065254487+1065774840+1065680120+1064933551+1063666948+1062110237
1924+1060336457+1058425297+1056856498+1056212964+1056569395+1057540069
1916+1058680037+1059694521+1060427915+1060791766+1060760619+1060508757
1907+1060423566+1060736827+1061220277+1061447196+1061276815+1060966624
1899+1060865956+1061079508+1061425643+1061624101+1061458836+1060883224
1890+1060134289+1059637792+1059557398+1059586242+1059395139+1058946865
1882+1058314140+1057487689+1056407201+1055102032+1053786950+1052778094
1873+1052278719+1052319012+1052872878+1053887363+1055194450+1056504159
1865+1057495108+1057979709+1058140049+1058488038+1059309245+1060248004
1856+1060716553+1060622216+1060408728+1060420624+1060553207+1060636095
1848+1060805709+1061250401+1061803308+1062022680+1061723810+1061199939
1839+1060753200+1060423630+1060118044+1059758606+1059330287+1058830016
1831+1058150986+1057026239+1055272349+1053116362+1051119372+1049903296
1822+1049747177+1050360651+1051309196+1052446478+1053794881+1055205642
1814+1056370681+1057108232+1057444518+1057477327+1057285649+1056988569
1805+1056824200+1057013448+1057506556+1058026909+1058391400+1058553530
1797+1058418965+1058013862+1057621614+1057437290+1057266142+1056914891
1788+1056597792+1056544388+1056687971+1056814286+1056820490+1056741951
1780+1056571634+1056270461+1055918634+1055636072+1055418747+1055161896
1771+1054758712+1054219363+1053713016+1053363172+1053081378+1052729999
1763+1052334169+1052014065+1051817206+1051713340+1051644394+1051521981
1754+1051305423+1051060788+1050862713+1050708897+1050507049+1050162769
1746+1049702215+1049240254+1048877427+1048686196+1048693679+1048803621
1737+1048876468+1048936523+1049144575+1049550445+1049848293+1049723129
1729+1049265965+1048819418+1048593906+1048421350+1048004607+1047294238
1720+1046449815+1045553651+1044472715+1042979322+1041201000+1039580332
1712+1038380437+1037677231+1037426264+1037401512+1037315299+1037034080
1703+1036543147+1035781612+1034659296+1033142239+1031253144+1028935282
1695+1026164029+1023242862+1020319072+1016811356+1012031793+1006119809
1686+999155414+988997012+972583113+952104753+932170603+912774202+892427657
1677+869378166+841304349+808956739+776369100+744218670+711376482+683268256
1667+668071393+667205096+680586351+709321738+748241559+786916424+819942744
1657+846986727+869754232+893298302+921184854+943169143+953294351+958004010
1647+961899688+965112052+966003675+964127115+959589693+952367616+942151908
1637+927412593+907109795+887174557+876491388+876484353+885640487+902776011
1627+924360762+945308501+963476290+979248765+991977275+1000773204+1006920421
1617+1012650640+1018533076+1023137781+1025985270+1027862852+1029314482
1609+1030495446+1031414123+1032055227+1032519171+1032913337+1033213998
1600+1033411625+1033537620+1033590832+1033721113+1034192027+1034987459
1592+1035827405+1036487760+1036829290+1036812277+1036514814+1035932550
1583+1034993919+1033717787+1031992294+1029241571+1023744987+1011822718
1575+991375505+966239420+940606390+918031587+906529962+912513833+931202487
1565+953540905+972917224+986268419+994717573+1001232287+1005964394+1006979837
1555+1005358466+1002225217+997435229+990236305+979531774+964320009+943320785
1545+914652680+878408752+838881533+803981596+786855089+793225772+812297784
1535+836828005+865134945+891034484+906532328+911744623+910335269+903647872
1525+892499800+878236260+860551858+839200167+817409667+797638223+778850116
1515+760924724+745524414+733151888+723165465+715366753+710297657+709179754
1505+712267146+717508989+724517450+734984189+750614552+772147305+798068525
1495+822883802+840769413+850768882+854316955+851589833+842335909+828886029
1485+815330364+804696570+798403659+796675032+798992830+805054985+815252017
1475+829233443+843924471+853553758+853746780+846651529+837268220+827697262
1466+817614649+806986419+797486197+790657519+786844473+787342953+795329123
1456+809602960+822288619+830195163+834901815+837912778+839998732+841444926
1446+841986577+841152451+838841304+835672304+833274688+834631022+844115510
1436+863850051+888142737+910047975+928684504+944894380+957831966+966762715
1426+972721963+977155136+980631257+983124617+984772850+985827180+985979205
1416+984435925+980476354+973167295+961512174+945819389+928650479+913421445
1406+902117895+894991177+891871296+893327019+900762520+914693804+932433721
1396+949537331+963342172+972804340+977506003+977832951+973719819+963403379
1386+944786677+918226335+886638662+854145167+825963774+806979384+798645736
1376+798054646+800236024+801389487+801311204+803029022+809977875+823277840
1366+840460245+857708654+873261629+887256422+899624791+909712649+917089054
1357+921684165+923900656+924998987+926765669+930320457+935228958+939761519
1347+941894929+939976286+932495376+917110096+889791865+846655750+789817381
1337+730807164+685062630+664126531+671541566+701622863+742371403+781851293
1327+812886635+833404456+844366925+847752291+845428162+838787900+828633975
1317+814882346+796378847+771593374+740259482+704708975+669337036+638696884
1307+616097777+603234702+600595840+608280645+626093089+652458810+683717809
1297+715300621+743912508+768650973+790292773+809773725+827218289+841965663
1287+853180122+860507152+864495760+866577685+868466588+871270651+874954632
1277+878502257+880685234+881097948+880690095+881095837+883231102+886596131
1267+889951246+892495579+894403350+896400276+898884106+901441295+903184376
1257+903421528+901892575+898557542+893416175+886344141+876705260+863280899
1248+845338686+824179249+803326230+786918854+777844074+776884145+782822927
1238+793238244+805736445+818661623+830600650+839738300+844303863+843451957
1228+837304868+826513740+812519714+798403019+788943154+788981848+800816305
1218+822599450+849272163+875296609+896887627+912590709+922736576+928495639
1208+930997953+931003133+929039720+925320179+919378391+910363730+898459368
1198+886145363+877436415+875208669+879193311+886603166+894288675+900105491
1188+902944154+902405573+898640494+892074935+882948541+871016486+855699192
1178+836601790+814057558+789344548+764448557+741423689+721610737+705237771
1168+691711142+680225186+670081750+660623548+651194766+641324489+630958739
1158+620642171+611592781+605370926+603093037+604717222+609001887+614446346
1148+620985811+631017643+648011055+673224080+703518801+732334518+752713041
1138+759861120+751958734+729618205+694954141+650871655+600728934+548217313
1129+497059116+450348226+410026119+377086301+352285862+336653676+331444866
1119+337687795+355615970+384219286+421147552+463144595+506783155+548974883
1109+587246500+620250563+648345742+673357814+697312551+721187214+744713504
1099+767049876+787413049+805309213+820674859+834032193+846352339+858561263
1089+871041877+883479575+895162966+905527629+914443029+921977919+928061755
1079+932566560+935672946+937961964+940078745+942360792+944779130+947130058
1069+949204244+950845186+952048599+953055281+954137943+955100175+955045683
1059+952685162+946675452+935572470+917617466+890692442+852993879+805337418
1049+754304225+712424671+692630331+700411263+730785354+772539105+814995550
1039+851769232+880601451+901641672+916100600+925591356+931707299+935527892
1029+937316127+936921513+934710715+931943044+929964409+929144610+928887055
1020+928578399+928150080+927712679+927099268+926051142+924672296+923437736
1010+922665008+922021666+920710997+918268483+914976749+911175343+906289995
1000+898977931+888417495+875414098+862261298+851501445+844633177+841782554
990+842413297+846198075+853115589+862573535+872563219+880452303+885218371
980+888371574+892046154+896621055+900813942+903730248+906194124+910031666
970+916201652+923563091+929440410+931656773+930578843+929477250+932295446
960+940327921+951174372+961156573+968206286+972216384+973762286+973548223
950+972563670+971694112+971055822+970086108+968165290+964795145+959269141
940+950633297+938341100+923059494+906700982+891368211+878041000+866389652
930+856203492+849049529+847925615+854645374+867693413+883088287+897154264
920+908079701+915149433+917464289+914456012+908198149+904347368+908879802
910+923171611+943175091+963388029+980434782+993226418+1001781484+1006748121
901+1009168506+1010003016+1009840565+1008970688+1007578218+1005770412
892+1003305066+999383037+992980567+983508422+971214307+957122556+942649621
882+929174286+917851804+909647669+905264766+904807602+907476971+911835059
872+916744006+921978751+927522855+932439861+935200753+935415136+934879305
862+936583437+942598136+952723536+964811454+976078421+984267591+988380531
852+989144752+988822218+989954574+993784058+999720985+1006213186+1012006978
843+1016685041+1020353865+1023079068+1024674153+1025027003+1024459898
834+1023516278+1022495845+1021557534+1021143157+1021775371+1023358688
826+1025030777+1025837849+1025463445+1024253573+1022581356+1020365377
817+1017339960+1013742256+1010609903+1009109602+1009072763+1008034551
809+1001824144+986100851+958661551+923116736+890372466+872397635+872759119
799+885789634+904593794+926131344+949079656+971247693+990313309+1005005424
789+1015140610+1021402182+1024813963+1026011940+1025238893+1022839294
780+1019368225+1015399699+1011469804+1008101641+1005691490+1004213701
772+1003095799+1001606434+999452750+997076175+995489149+995489405+996458288
762+995535390+987279577+963592116+915584148+839287340+742609834+647202128
752+581351337+566605050+606005378+682139352+767550786+839993616+890840694
742+922648380+941833019+953863120+962308565+969053715+974417333+977643127
732+977663401+973637570+965386427+953940508+941934391+933207600+931200248
722+936990331+948506218+961422570+970907058+973127386+966794118+955287248
712+946618147+948086149+959815333+974918371+986117928+990807440+990034840
702+985040062+975270838+957662991+927840017+885689606+841823487+814982886
692+818653245+850153553+893663176+932776466+959672197+974853007+981940391
683+983794118+981690959+975776225+965389816+949907578+930614275+912002498
673+899794596+896963800+903275515+916036515+927848651+932773141+932469089
663+929316718+923627560+915453740+905605145+895043686+884087677+872405885
653+859771712+846643279+833977510+822785180+813729523+806845010+801693730
643+797755008+794724346+792654765+791693237+791593208+791670340+791025015
633+788403678+782131808+771345285+758400409+749600707+751452771+764974858
623+784824842+804618927+821557528+835866029+848133474+858535169+867510305
613+875712457+883370209+890315928+896362413+901259082+904730598+906916133
603+908280526+908895088+908387526+906896626+905734146+906803121+911207961
593+918168902+925247012+929840269+930471076+926764518+918953142+907883801
583+895272204+884031331+878191938+881040515+892556914+909270579+926693206
573+941860201+953969289+963298490+970243889+975161791+978237223+979295198
564+978403255+976898925+977151362+980796266+987399944+994868127+1000925421
554+1004530416+1006349286+1007727749+1009174007+1010283659+1011000936
545+1012042985+1013806789+1015570656+1016238942+1015635892+1014667585
537+1014109625+1013731064+1012961854+1011826427+1010633375+1009268279
528+1007432908+1005272380+1003237911+1001399982+999452750+997594738+996933743
518+998515206+1001858297+1004970375+1005815118+1003173698+996858338+988448262
508+981587861+980120689+984939842+993138797+1000623992+1005199085+1007447426
498+1009155587+1011523655+1014754182+1018374846+1021706745+1024273335
490+1025858315+1026403164+1026101671+1025371092+1024381614+1022857394
481+1020703645+1018359752+1016152216+1013808324+1010781563+1006457565
473+1000133571+992067774+984461764+979803271+978721504+980366028+984115118
463+989834847+996811074+1003965037+1010836566+1016914135+1020922889+1022367100
453+1022346954+1022469111+1023807473+1026290344+1028763941+1030100001
445+1030448310+1030994310+1032422084+1034094749+1034781070+1033777523
436+1031538711+1029603184+1029363665+1030650286+1032041413+1032915703
428+1034390486+1037160523+1039501281+1039156362+1036391505+1033011319
419+1029767105+1026646904+1024173115+1022412957+1020554753+1018160527
411+1016189503+1015980300+1017130437+1017676373+1016722840+1015623804
402+1016084997+1018104564+1019370911+1016009081+1006582217+994616777+984276289
392+977894222+976646295+979876886+984461124+986389041+983074091+974652630
382+963505582+952212521+942450587+934787207+928361841+921492870+914191423
##END=
