##TITLE=X7330
##JCAMP-DX=5.0
##DATA TYPE=LINK
##BLOCKS=1


$$ === CHEMSPECTRA SPECTRUM ORIG ===
##TITLE=X7330
##JCAMP-DX=5.00
##DATA TYPE=INFRARED SPECTRUM
##DATA CLASS=XYDATA
##ORIGIN=ComPlat
##OWNER=
##XUNITS=1/CM
##YUNITS=TRANSMITTANCE
##XFACTOR=1
##YFACTOR=8.7284341e-010
##FIRSTX=3997.453
##LASTX=373.96442
##MAXX=3997.453
##MAXY=0.9372084733740931
##MINX=373.96442
##MINY=0.7215049866402389
##NPOINTS=2559
##XYDATA= (X++(Y..Y))
2559A024031577A023947173A023029315A021905774A020949676A020422971A020726511
2552A021844793A023020506A023449081A022996879A022178653A021675576A021687390
2545A021709856A021299241A020780663A020591574A020440862A019901456A019326609
2538A019381785A019902959A019933961A019116828A018480795A019094771A020447896
2531A021352369A021695584A021943947A021619102A019620110A016008704A012723715
2524A011653165A011933760A011055988A008849811A008216577A011046563A015579037
2517A018868465A019097230A015663851A009524563A003910820A002614237A005836948
2510A009751279A010922143A009578374A008500176A008773533A008526331A006407903
2503A004191551A005230825A010281330A016443562A020643609A021987104A020548689
2496A015525772A006057655I93928972I84247045I81111538I83795799I90125131
2489I98805753A006992105A010745961A008353767A002476569I99233577A001074960
2482A003289878A001676235I97719292I95176865I93826131I92743153I95318699
2475A002661629A008727029A008330754A002452532I95357965I89812713I87704598
2468I90056843I93160733I92561507I89744495I90737264I97130582A003861652A006236706
2460A002555373I92030091I76193170I66962353I75619620I92278795A005500494
2453A011915869A011665457A006294887I98053766I88903666I80517092I75944124
2446I78346424I85775943I92910253I97720112A001445149A004549926A005612418
2439A004202887A002031400I99554120I94311248I86154600I81651354I84538771
2432I89874105I95311734A003254914A012691278A018843130A018760024A012721257
2425A004371490I98917267I96519952I92596266I86803471I85007704I89041812
2418I94753207A001160729A009469865A017708049A022663838A024039840A023608328
2411A022195793A019655347A017181617A016461590A016512396A015124376A013261755
2404A014350947A018474717A021980755A021846091A017607529A011603793A007836282
2397A007762189A009122826A010336165A011181979A010051814A005260530I98949226
2390I96054160I97050959I96883175I90906550I78417444I65574402I61817474I65628281
2382I69235726I71398950I76641890I85594093I92544299I93381917I86720570I74110594
2374I63397861I64921569I78390470I93544580A002447410A003299985I98508496
2367I93100094I91543676I94178974I98859631A004252259A009513296A012780462
2360A011578527A004481980I93462771I86169145I89854028A000954363A011309404
2353A016762671A016795313A013487310A011257642A012986487A016734537A019281744
2346A019122633A015530143A007768472I96656323I87288520I87397030I97188968
2339A008847216A017042037A020328256A018586641A012475625A002792879I90301382
2332I79825199I79441899I85683072I88419504I87335433I91133539A002270818
2325A013708836A020828328A023862564A024517240A023442661A020013926A014458091
2318A009468294A006480835A001565540I89579579I71295562I59323054I66455862
2311I84852076A001170426A010990158A015603825A017867091A019521980A020239276
2304A019029625A015860929A011162722A004055454I93528258I84444261I86859536
2297I98734597A008986386A012552380A009333016A001407522I93869152I91864492
2290I93756887I94863492I94808521I95923594I98043045I99565797A001880620
2283A007219915A013444221A016298177A014593233A011019385A008794496A008292035
2276A008238291A008688241A010580840A012587685A010927060A003411157I94004157
2269I91741506I98890020A008291762A014608461A017647819A019193174A020597310
2262A022197978A023631410A024192122A022700987A017254412A006289629I92029135
2255I83297912I87376680I99256316A010013368A016524210A020222136A022636592
2248A023281912A021259293A017626308A015218955A015411936A015788339A013123609
2241A008030151A005113301A007734806A014179135A020413001A023837161A024286291
2234A023539084A023635917A024790460A025427791A024201614A021214769A017584379
2227A014386184A012282575A012071497A014558543A019212568A023974488A027145027
2220A028641352A029082082A028430888A026232223A023021052A020795755A021164578
2213A022956452A023227487A020951246A018528391A018902814A021921754A025147538
2206A027040477A027915724A028566576A028911772A028321150A026887855A025725868
2199A025685100A026091140A025470403A023615772A022284226A023348220A026520739
2192A029705550A031235882A031110232A030446337A030206305A030511143A030920255
2185A031056012A030806966A030174687A029328738A028699738A028606730A028971387
2178A029632004A030484374A031168345A031159673A030218802A028397154A026010765
2171A024063331A023873627A025480510A027356788A028304419A028596350A028956569
2164A029418604A029709989A029907819A030122584A030149217A029911574A029703706
2157A029657749A029473371A028844098A027780787A026648164A026149048A026859925
2150A028543154A030334414A031539354A031899299A031454745A030589947A029929535
2143A029883167A030363982A031016405A031593711A031996473A031999136A031326159
2136A030222285A029451588A029413415A029766668A030107015A030362753A030469282
2129A030317683A030093699A030230411A030964096A032068175A032998051A033324126
2122A033096864A032787588A032861817A033378074A033921236A033944522A033228728
2115A032043933A030945317A030381532A030379414A030668819A031077318A031497835
2108A031607710A031161790A030483418A030188209A030565158A031501590A032653334
2101A033485149A033605541A033207081A032792095A032487668A032046664A031427157
2094A030916090A030678516A030593020A030616101A030919368A031473592A031823704
2087A031582512A030998309A030773983A031343709A032472166A033516766A033988431
2080A033863942A033435845A032973058A032562716A032109284A031423810A030588240
2073A030254380A031040510A032529733A033528922A033427582A032705369A032140970
2066A032103890A032504398A032932427A033001739A032794963A032738694A032994022
2059A033257272A033137973A032544620A031825890A031594667A032195122A033302820
2052A034194182A034345508A033698549A032647939A031941638A032196488A033220807
2045A034172467A034549826A034597081A034638463A034569015A034217468A033794493
2038A033732146A034177862A034778317A035061166A034942481A034671446A034414616
2031A034176769A033936395A033634836A033248327A032973058A033061901A033534863
2024A034285483A035264322A036266310A036722678A036088216A034542587A033089967
2017A032726197A033532609A034745880A035553794A035624268A035140994A034630337
2010A034506941A034636620A034639897A034556791A034752641A035254147A035710993
2003A035950137A036052433A035943513A035391474A034433668A033483169A032986101
1996A033047628A033396648A033752155A034153619A034697874A035177323A035432379
1989A035720895A036152133A036207378A035508520A034551123A033989728A033761442
1982A033538550A033440216A033662902A033881014A033695271A033430655A033822150
1975A034916804A035856651A035922208A035339507A034855141A034866339A035155403
1968A035244245A034950266A034657516A034872349A035456894A035665309A035083974
1961A034187490A033774758A034105749A034779136A035283989A035443714A035379729
1954A035308846A035405473A035597157A035533854A035121259A034926160A035501213
1947A036491387A037067259A036990026A036634792A036284543A035975472A035758930
1940A035686273A035758453A036057827A036650771A037379335A038024792A038528552
1933A038822531A038718187A038233958A037738802A037496790A037220907A036316775
1926A034619753A032820708A031974689A032507266A033851787A035168992A036144348
1919A036786323A036866424A036176375A035154447A034609851A034800784A035274907
1912A035622629A035950820A036533316A037259353A037579077A037054626A035953825
1905A034979971A034292380A033377732A032136531A031374165A031793658A033085460
1898A034308155A034733179A034305765A033688442A033712206A034501410A035346472
1891A035495681A034816900A033811565A033226952A033441923A034033023A034163589
1884A033450937A032250094A031140689A030382966A029780189A028897295A027579611
1877A026313827A025820856A026210097A026847292A027116346A027013300A026925072
1870A027144617A027728547A028516043A029095398A028949945A027873659A026232154
1863A024716846A023816675A023517164A023499682A023521534A023443959A023049460
1856A022201939A021127634A020170101A019346822A018484755A017644608A017064845
1849A016786845A016577611A016180448A015623492A015350204A015910643A017417142
1842A019418251A021339258A022913499A024216569A025401091A026419468A027038839
1835A027095314A026520125A025162288A022964373A020310706A017809456A015727700
1828A013845275A011666345A008650546A004572325I99826111I95245563I91703879
1821I89963630I90538615I93330907I97435078A001432584A004033670A004699682
1814A003742627A001712018I98801792I94963397I90343175I85363211I80477690
1807I75960240I71881677I68319575I65588059I64108807I63981518I64823440I66095711
1799I67489468I68974251I70641842I72642473I75199240I78451246I82210290I85980739
1791I89230014I91594209I92987692I93702461I94229507I94783186I95154945I95110080
1783I94661770I93885200I92784945I91465623I90203048I89273991I88842821I89003503
1775I89820977I91286639I93206691I95201312I96991343I98659207A000431824
1768A002234215A003676592A004519606A004965868A005374230A005807175A006086609
1761A006199830A006278976A006248793A005934190A005387409A004623131A003242623
1754A000875901I97860716I95062892I93101390I91992054I91453741I91403822
1747I92061435I93546833I95568292I97705703I99875619A002269247A004923529
1740A007556506A009797988A011439424A012527387A013348276A014233355A015231383
1733A016074193A016564090A016770729A016699505A016044351A014497766A012132273
1726A009342644A006588457A004307709A002928635A002749038A003757035A005629968
1719A007941650A010355832A012652969A014631064A016037317A016712958A016835944
1712A016872956A017194660A017848176A018682654A019503133A020113832A020433624
1705A020611786A020898869A021374836A021910964A022387272A022778494A022991552
1698A022886661A022595073A022498445A022743394A023107368A023398685A023597333
1691A023618367A023396499A023169305A023248861A023599861A023995248A024404019
1684A024856904A025138251A025035955A024784246A024857451A025368927A025985157
1677A026385597A026535216A026568472A026623717A026757562A026910800A026987214
1670A026975127A026925550A026851253A026722598A026545391A026410113A026445486
1663A026694873A027064106A027409643A027610136A027596000A027460107A027491247
1656A027882263A028435190A028775606A028827436A028838567A028932668A028887598
1649A028478622A027871815A027472263A027454780A027639363A027786933A027811722
1642A027727933A027592313A027534610A027709153A028178564A028863560A029563033
1635A030009568A029991403A029507106A028825524A028358298A028362805A028689085
1628A028878720A028623460A028085966A027672483A027586304A027746644A028045267
1621A028428840A028783322A028986342A029073751A029143404A029169422A029137258
1614A029221184A029531758A029808802A029702614A029278683A028948852A028958344
1607A029184855A029404401A029524656A029524382A029376266A029141834A028976644
1600A028946735A029018506A029287150A029917516A030771729A031428727A031668213
1593A031650321A031605388A031607232A031613446A031551645A031453994A031530476
1586A031922449A032413029A032647803A032588256A032491219A032491423A032455572
1579A032258015A031957549A031658653A031414250A031346850A031627855A032187679
1572A032645822A032669245A032280550A031785600A031542222A031745924A032284170
1565A032840306A033179765A033252833A033109156A032904360A032879299A033143710
1558A033587581A034088951A034593189A034937496A034900552A034514521A034072357
1551A033781519A033648016A033646991A033753520A033921577A034228531A034843873
1544A035648032A036158006A036030034A035379182A034544363A033898905A033852537
1537A034527564A035390928A035709149A035456416A035334249A035785154A036380556
1530A036355631A035458874A034071810A032787588A032131410A032374651A033276939
1523A034189197A034632181A034656082A034623986A034801671A035121395A035283784
1516A035179782A035114293A035363066A035645642A035335478A034160994A032568043
1509A031390281A031132289A031586062A032219638A032817840A033550842A034518413
1502A035416877A035753126A035480248A035277092A035772930A036586376A036725205
1495A035892434A034726828A033819555A033231323A032961654A033160713A033699573
1488A034042377A033850489A033543945A033996216A035519172A037228282A037705478
1481A036480052A034625830A033676628A034143444A035301334A036193719A036423304
1474A036023410A035143043A034162155A033677789A033980851A034801125A035747800
1467A036634655A037216195A037160336A036621134A036296494A036437167A036311790
1460A035339848A034305355A034452925A035625428A036378576A035928490A035008720
1453A034705659A035247045A036078177A036649132A036877351A036883360A036574766
1446A035888678A035207028A034927663A034832401A034470680A033932981A033748945
1439A034224501A035199995A036291987A037164433A037639580A037685879A037379676
1432A036857547A036247463A035694536A035433198A035661211A036297791A036990094
1425A037371687A037293565A036866629A036294377A035677122A035027841A034410518
1418A033964052A033895218A034503117A036019996A038397712A041333819A044334594
1411A046776296A048422923A049841809A051640785A053463184A054405079A054145380
1404A053125569A051969386A051034593A050312859A049535059A048255890A046118752
1397A043570657A041891252A042150133A044531332A048361259A052403629A055382006
1390A056514971A055909189A054529227A053195632A051783917A049958171A048051914
1383A046593558A045554489A044578723A043493151A042234604A040676821A038850461
1376A037168940A036146533A035830360A035744659A035368324A034487274A033232006
1369A032045025A031433234A031487318A031840093A032178801A032455163A032663919
1362A032964590A033885316A035697540A037608168A038317406A037530729A036310698
1355A035759682A035810625A035584114A034717676A033919528A034056309A035068541
1348A036176580A036901183A037405831A037995360A038802318A039812706A040774951
1341A041293939A041261434A040939525A040551718A040084492A039465325A038800474
1334A038517967A039047199A040102793A040759927A040637487A040339342A040283210
1327A039927566A038753356A037369501A036915796A037478147A037799237A037045066
1320A036214275A036830027A038730752A040305608A040658042A040501253A040851502
1313A041308279A040091594A036394828A032209326A030417930A031517706A033684686
1306A035380821A036278944A036456697A036377142A036928088A038234368A039186916
1299A038910759A037978698A037622781A038282101A039508415A040940959A042494577
1292A043599953A043433535A042397198A042165839A043548805A045217147A045120315
1285A042581644A038841857A036026005A035464201A036701099A038322118A039383107
1278A039452282A038319796A036910402A037304355A040357848A044276618A046521378
1271A046054220A043377812A040086882A038485803A039733355A042100897A042459750
1264A039642259A035360949A032315786A032339073A035680673A041118780A046304427
1257A048563186A046822391A042837723A039692383A039218874A040934540A042777357
1250A042950398A041717119A041082451A042483241A045436283A048363717A049907775
1243A049578217A047925923A046138692A045094502A044806190A044736469A044427602
1236A043761181A042801258A041670273A040602182A039853542A039483490A039508688
1229A040237525A041919115A044037405A045511400A045706020A044924329A044028869
1222A043796895A044280579A044705671A044419271A043674455A042822768A041468688
1215A039497694A038075735A038361588A039840363A041019695A041369260A041567227
1208A042092634A042609027A042781659A042830553A043070039A043555702A044311513
1201A045240160A045874623A045873257A045457111A044796152A043546484A041776051
1194A040702292A041463429A043520602A045209909A045744671A045908152A046787359
1187A048557108A050647469A052286720A052629388A051264246A048899094A046791730
1180A045717971A045981152A047341584A048484177A048180979A047253697A047414652
1173A048241823A047871361A046578466A046484501A047960955A049346995A049942192
1166A050679018A051825709A051998887A049913716A046411024A043968093A043670153
1159A043900147A043282824A043187358A045479236A049111470A051236316A050887911
1152A049068721A046298281A042632245A039345890A038410755A039986840A041583753
1145A040666032A037790633A036100166A037310159A039879150A041790870A042777016
1138A043304881A043428960A043207434A042829665A042047564A040727013A040007531
1131A041495456A045004567A047880717A047281422A043555020A040635097A041771749
1124A045635615A048583604A049215813A048723458A048138435A046946948A044165991
1117A040082307A036753476A036274915A038383372A040495585A040230696A037264543
1110A033144256A030385766A030938625A034242940A038042137A040930920A042581917
1103A042884568A042163995A041225310A040588183A040363584A040352932A039489226
1096A036533043A032279936A029364657A028829553A029399962A030476930A032857310
1089A036105629A038076486A037456910A035226832A033507957A033291894A033859572
1082A034212825A034069898A033513967A032573095A031342753A030118077A029407952
1075A029661300A030308874A029670041A027220280A025296747A026562941A030247824
1068A033676970A035697950A036630900A036902480A036935327A037172354A037598676
1061A037820338A037152551A034271689A028125368A020515364A016859572A020613289
1054A028502113A035269034A038573144A039090493A038859817A039404344A040712399
1047A041804254A042095639A041701618A040385778A037292336A032137009A025848240
1040A020419761A019039253A023395270A030154748A034876515A036510713A036766861
1033A037216059A037136776A034528930A029019257A023546801A021589738A022451600
1026A023798305A026121460A030641231A035784676A038893414A039349714A038647646
1019A038011066A036802575A033968627A030324648A028325861A029200834A031584287
1012A033156889A032140355A028149474A023100813A020300940A020948993A022782864
1005A022802941A019512830A014299390A012565014A018269444A027258180A033250990
998A034352201A032420882A029577920A026583427A024553296A024749761A025850152
991A024563335A018934090A010552706A005010392A006664120A013290368A020868140
984A026982502A029600250A027818618A023900669A021654270A021533469A021961907
977A023149365A024562106A022652639A014574932A002930820I95679464I96956720
970A002589381A007604103A010643324A012427550A013865011A015549127A016556783
963A014009918A006231038I98274473I98949226A007095836A016995874A025888393
956A031794819A033673760A032697448A030235669A024977842A014008347I98079101
949I87346906I91304054A004045074A016040253A023155989A024583480A020875788
942A014142533A008346938A005527946A002637182I95872651I87204663I83625830
935I88078475I99617491A013476316A022389458A023569336A019310698A013275617
928A005712733I94363010I83924112I85997537I97969499A009824074A017443775
921A019923718A018204570A015118298A011825456A007201750A003827782A008012806
914A018133892A025604384A026656291A024490472A025039916A028852293A031036208
907A027750263A017317579A000670900I89582379I95116499A002453078A001730524
900I97900528A002233259A015184196A026703478A032172587A031476665A024898901
893A014063182A006749683A012813172A026420151A035933339A038176118A035290545
886A031031018A027271838A023800491A022375049A025269773A029368891A029423180
879A025225864A023682830A029305042A036492890A039744964A038864528A036754296
872A036030444A036598394A036780791A035887586A034665164A033570167A031586745
865A027406637A021311943A015328898A011393330A009754011A009537675A010063423
858A011156234A012898873A015470323A018834389A022161239A023563941A020986961
851A014427566A009133888A012181372A019706904A022770299A019438259A015260132
844A016368650A020652350A023040105A021547604A014689997I98888449I74764314
837I63163770I74518819I88980490I97959529A002157733A004088232A006589891
830A009247929A007470395I97880042I82375615I66098306I56005355I63369727
823I84636012A001096402A006349449A005094727A006174700A011884320A015423614
816A012353185A004999807I98047347I91870229I85058169I81003438I82557876
809I86071152I90235075I97745856A006763137A010822648A005614808I90944723
802I71226113I62543443I80180159A002528468A009417556A001350023I85643328
795I72829172I72816812I85116282I97767094A001171587I94004226I82770251
788I79770842I89479401A003592803A014247013A019604950A021539410A022028351
781A020441750A014641649A004129819I91867974I84838214I89131064I99887160
774A007089007A006579784A000858419I96766608I97674017I98235207I91792244
767I76546832I60693660I60280723I72731383I83950539I89248861I89606348
760I88080523I88822062I93563427I99534180A003092731A002662244I97796116
753I87916701I74360733I64410844I65034176I72247290I79560242I85885477
746I92518622I98179621I99920416I97688494I94591297I92150346I88555193
739I84434427I85711206I93415038A000400275A001627272I98295301I95387192
732I96150241I99025708A001280643A003368136A006868642A009909639A009190772
725A004752536A000157580I98769902A002098800A010088417A019474998A025362918
718A025640576A022859074A022497626A026791296A032235480A035080013A034883276
711A033112639A030459380A026471230A022076016A020781004A024456396A029993452
704A033833827A035680947A035913672A033062379A026691459A020907883A020647024
697A024495388A027134579A026146453A023142263A020899074A020416620A020677412
690A020521784A019764198A018872084A018245269A017414957A014993810A010668522
683A007464454A009811919A017977923A027680951A035198288A039654072A041819961
676A042680115A042809111A042340928A041199155A039229596A036309673A032830541
669A030139178A029773975A031728306A034272645A036126047A037813509A040267162
662A043066966A045047588A045921195A046306407A046606191A046693122A046442983
655A045945233A045294108A044494592A043491170A042187418A040515593A038545965
648A036628919A035446173A035564584A036734697A038034830A038918203A039679954
641A040797759A042283977A043780096A044845456A045097712A044502446A043638467
634A043322636A043856852A044875844A045873735A046510861A046520627A045858166
627A044986675A044523752A044564042A044736400A044789119A044709562A044473355
620A044075305A043714677A043616479A043706824A043694941A043448490A043063142
613A042564572A041791758A040631000A039145328A037439497A035624949A033969720
606A032850618A032429964A032484800A032645003A032760341A032965205A033406277
599A033998674A034483382A034658813A034526676A034254003A034016634A033832871
592A033464253A032530143A030887750A028928501A027388747A026853165A027483121
585A029096081A031328549A033727639A035778666A036957794A036914841A035634579
578A033289504A029917311A025391121A019824564A014009440A009328509A007043596
571A007592562A010526279A014932829A019856045A024603829A028878515A032533421
564A035296759A036964281A037680894A037757922A037299916A036098322A033767656
557A030161235A025970953A022694499A021496662A022107429A023138098A023423405
550A022881813A022301230A022629490A024380391A027422003A031246808A035402059
543A039547612A043301671A046418536A049029661A051332056A053171390A054324363
536A055004169A055636925A056278831A056615968A056324994A055049785A052365798
529A048357503A044073871A040947583A039873960A041024748A044050926A048094799
522A052044503A055215110A057633253A059579595A061180809A062530657A063860564
515A065309087A066590577A067056915A066132639A063766463A060698697A058350276
508A058038064A059966241A063157130A066417809A069084247A070994463A072284901
501A073202622A073741822A073542969A072337004A070247804A067508230A064110702
494A059802009A054147224A046458348A035751761A020875788A000800306I75144200
487I45015373I13587505H85228700H63097684H47379721H36328895H29039571
480H26614463H30519712H40448772H54153676H68888293H82678147H94715734
473I05191986I14720879I23644879I31926631I39602805I46889943I53806348
466I60119974I65703534I70626067I74966446I78796442I82279534I85605223
459I88797205I91633133I93849827I95494404I97000426I98872060A001309597
452A004074028A006676890A008805219A010573739A012316651A014220108A016205578
445A018063624A019641826A020948310A022094249A023148683A024076647A024804050
438A025317779A025668711A025924381A026246768A026921521A028060700A029397913
431A030564817A031216284A030695383A028180681A023596651A018079262A013422778
424A011178017A011900368A014788809A018183196A020672358A021557643A020179456
417A015510408A007266487I96908032I86212918I75419400I64846521I57845235
410I59085685I69190383I83149795I94479646I99520591I98338254I93685185
403I89170603I86727399I85534136I84250118I83835064I86828260I94133495
396A003953295A013765174A022013260A028110277A032181055A034849541A036516108
389A036969403A035886630A033130325A028338222A020728559A009570248I94858644
382I77668940I59733259I42407936I26221928I11578748H99472259H91191873
375H87672588H89351992H96181123I07302082I20824793I34220012I45110634
368I52046090I55065235I55767576I56576446I59330292I63983908I68438942
361I69819724I66220132I57592092I45489769I32195890I19813176I09958618
354I04108120I03554442I08451435I17206627I27408293I37374980I46598355
347I54994967I62333253I68462502I73596250I78039265I81852940I84974448
340I87481980I89624718I91711801I93968374I96414379I98895483A001175206
333A002999996A004267146A005142392A005812365A006227828A006294068A006122323
326A005939312A005910358A006042427A006141854A006035325A005863239A005848899
319A005785664A005143758A003723165A001892707A000135455I98624722I97330939
312I96241201I95177822I93580431I90805620I86445984I80011761I70763531
305I58678280I45344111I32880954I22060736I12850679I06947599I07824348
298I17020474I31593864I46447028I58314851I66796960I72814012I77224044
291I80446618I82742731I84667153I86852775I89166711I90643163I90612980
284I89436516I87768994I85524985I82016353I76919412I70750625I64571525
277I59635744I57153342I57794702I61239281I66427386I72281434I78200083
270I84068882I89872193I95250958I99645489A003038032A006265865A010157797
263A014401002A017750592A019572513A020706229A022366376A024553296A025986659
256A025166249A020684309A010764876I94218103I73073233I53164236I40046335
249I33932520I29632772I21680851I09273211H96950728H90933608H94380645
242I05758297I20917119I36102299I49478875I60702879I69723165I76307348
235I80622733I83538285I85525327I85641553I82726752I77513585I72591052
228I70356672I71625393I75840600I81861203I88595619I95256967A001137853
221A005544676A008332803A010075510A011348123A012310163A013183771A014468881
214A016216231A017583355A017786785A017239730A017181207A018185313A018787954
207A017511926A014907562A011585834A007366734A001518217I92915512I80525490
200I64720871I48626778I37487656I35150093I40391189I47289292I49855756
193I46685490I41221912I37926064I38443072I40853430I41810553I39529259
186I35443457I33025793I34858094I41270055I51185526I62721948I73496413
179I82074944I89019072I95531553A001737011A007026728A010985037A013394711
172A014429752A015052606A016184546A017636825A018628979A018990700A019209973
165A019574084A019892101A020080849A020602363A022066388A024405658A026477581
158A026459758A022990459A016379098A008276807I99585190I89646023I78220365
151I66727784I56901633I50205117I49029199I55411385I67540957I80656672
144I91869204A001410527A009766166A016285270A020360761A022479256A024087914
137A026201766A028017337A027849349A025456745A022261418A019113482A014770986
130A006950997I94749520I79659396I63861195I48241498I33079467I20228162
123I13407362I15673154I26412178I41152941I54919031I65391663I72485410
116I76230114I76552706I74153889I69851205I63662818I56055956I49829397
109I49387164I56672322I67788978I75705253I75055426I63450648I42426715
102I18802925I01441751H95272622H99988994I12371707I28209720I43825593
95I56672322I64719847I67123513I66158331I66102745I68003539I67580768
88I59888683I44221116I24623240I07043066H96387080H94841247I01649278
81I14222992I29364810I44540089I58544299I70264073I78120733I81862910
74I83161541I83522169I83433532I84133209I87360223I92223482I95541864
67I95460192I93075169I91384019I92583496I95443530I96016329I92647755
60I89214512I89864272I93291437I97201260A001873450A006568107A007953942
53A004596908I99363255I96094313I96672097A001119552A006836820A009231607
46A006342825A001635125A000207294A003119295A007985421A012506833A014693275
39A012580379A006188563I98122874I90290525I81178870I70055932I64970532
32I76679380I97419167A012442369A018217817A018383143A016621930A013285451
25A007409824I99471628I90131277I78603870I63944642I46489299I28830252
18I18240643I22768950I39149032I56666313I69338362I78313100I86533051
11I92356507I91435918I85873390I84934227I91210089I98238144A001714408
4I99780768I88561885I69986210I60486133
##END=


$$ === CHEMSPECTRA PEAK TABLE EDIT ===
##TITLE=X7330
##JCAMP-DX=5.00
##DATA TYPE=INFRAREDPEAKTABLE
##DATA CLASS=PEAKTABLE
##$CSTHRESHOLD=0.93
##MAXX=3997.453
##MAXY=0.9372084733740931
##MINX=373.96442
##MINY=0.7215049866402389
##$CSSOLVENTNAME=- - -
##$CSSOLVENTVALUE=0
##$CSSOLVENTX=0
##NPOINTS=19
##PEAKTABLE= (XY..XY)
398.0454621657541, 0.8014802940367127
490.1200351524626, 0.7810562854401323
514.2010773182169, 0.781432808266121
526.9498643471461, 0.8286663296359893
546.7813108365908, 0.7972615965671844
582.1946081391711, 0.8283538822447286
634.6062881469898, 0.8143854147800742
643.1054794996089, 0.8186625840296383
651.6046708522281, 0.8162395960359372
718.1816697810787, 0.7776455284903233
797.5074557388584, 0.7916232350024727
872.5836460203282, 0.7886615402759273
903.7473476465984, 0.7747991686734451
954.7424957623393, 0.8360489011696514
1052.4831963174352, 0.7215049866402389
2808.9827425254202, 0.8777574904673109
2845.8125717201033, 0.8672108057104205
2927.9714214620885, 0.8428071740728412
2956.3020593041524, 0.8726916321322785
##END=


$$ === CHEMSPECTRA PEAK TABLE AUTO ===
##TITLE=X7330
##JCAMP-DX=5.00
##DATA TYPE=INFRAREDPEAKTABLE
##DATA CLASS=PEAKTABLE
##$CSTHRESHOLD=0.93
##MAXX=3997.453
##MAXY=0.9372084733740931
##MINX=373.96442
##MINY=0.7215049866402389
##NPOINTS=71
##PEAKTABLE= (XY..XY)
3902.545363229085, 0.8563567404182646
3881.297384847537, 0.8665093189186718
3869.9651297107116, 0.8621114493909993
3864.299002142299, 0.863891960044528
3852.966747005473, 0.8440067175341438
3838.801428084441, 0.8518463971616229
3820.3865134870994, 0.8568279152564772
3800.555066997654, 0.8597574832356307
3758.0591102345584, 0.8693993095590856
3749.5599188819388, 0.8395160438037463
3735.394599960907, 0.8408954741819461
3724.0623448240813, 0.8654623633237752
3711.3135577951525, 0.8607712393585845
3690.065579413604, 0.8617482784506533
3674.483728600469, 0.8548994070200356
3670.2341329241594, 0.8617892261535466
3648.9861545426115, 0.8373388057449742
3629.1547080531664, 0.85926568572617
3617.822452916341, 0.8657423854551978
3613.572857240031, 0.8683120617666966
3586.6587512900705, 0.8656350379355755
3566.8273048006254, 0.85826510255596
2952.052463627834, 0.8640832305851783
2925.1383576778735, 0.8414049153480965
2889.725060375293, 0.8631049398356596
2848.6456355043, 0.865340292681513
1749.4168872322125, 0.8690722586247323
1733.8350364190774, 0.8713372951292729
1716.8366537138386, 0.8617992402859895
1698.421739116497, 0.8585513236212804
1684.2564201954651, 0.858811677099302
1653.0927185691944, 0.8637504581622725
1647.4265910007816, 0.8710108997003205
1558.1850817982795, 0.8406911493952558
1541.1866990930412, 0.8344429740364606
1521.3552526035965, 0.8562623860456436
1507.1899336825645, 0.8401497010612606
1497.2742104378417, 0.849116743491409
1488.7750190852225, 0.8551865227498513
1473.1931682720874, 0.8596095450060698
1464.6939769194682, 0.8700211651008534
1456.194785566849, 0.8381747008205854
1449.1121261063327, 0.8624395730499035
1436.363339077404, 0.8417796497179381
1419.3649563721656, 0.8592571021840761
1410.8657650195464, 0.8688171509356047
1052.4831963174352, 0.7215049866402389
954.7424957623139, 0.8360489011696514
937.7441130570755, 0.8587339521393282
903.7473476465984, 0.7747991686734451
872.5836460203282, 0.7886615402759273
797.5074557388584, 0.7916232350024727
763.5106903283813, 0.8354449869241762
718.1816697810787, 0.7776455284903233
695.5171595074276, 0.8469694265047316
651.6046708522281, 0.8162395960359372
643.1054794996089, 0.8186625840296383
634.6062881469898, 0.8143854147800742
582.1946081391711, 0.8283538822447286
546.7813108365908, 0.7972615965671844
526.9498643471461, 0.8286663296359893
514.2010773182169, 0.781432808266121
501.45229028928816, 0.8432564143561605
490.1200351524626, 0.7810562854401323
474.5381843393275, 0.8583834775792242
464.62246109460466, 0.8653230077634648
457.5398016340887, 0.863429367875566
444.79101460515994, 0.8694343568405274
419.29344054730245, 0.8422681697003942
398.0454621657541, 0.8014802940367127
383.88014324472215, 0.8596933493203941
##END=

##END=

