##TITLE=CHS- 295- 1
##JCAMP-DX=4.24
##DATA TYPE=INFRARED SPECTRUM
##DATE=10/10/2019
##SAMPLING PROCEDURE=Diamant-ATR
##ORIGIN=Fabienne
##XUNITS=1/CM
##YUNITS=TRANSMITTANCE
##RESOLUTION=4
##FIRSTX=3997.453
##LASTX=373.96442
##DELTAX=-1.4165319
##MAXY=1.0181152
##MINY=0.97955978
##XFACTOR=1
##YFACTOR=9.4819364e-010
##NPOINTS=2559
##FIRSTY=0.99897212
##XYDATA=(X++(Y..Y))
3997+1053552861+1053768475+1053928206+1053871128+1053658971+1053521431
3989+1053674435+1054124773+1054574797+1054636904+1054259108+1053831840
3980+1053689082+1053623832+1053200398+1052468568+1051975169+1052051483
3972+1052465110+1052794755+1052860570+1052789034+1052819333+1053022815
3963+1053238995+1053362329+1053524322+1053804055+1053973152+1053780796
3955+1053309211+1052855667+1052635904+1052751255+1053187072+1053680407
3946+1053868048+1053661863+1053228309+1052739185+1052369875+1052326941
3938+1052596050+1052831151+1052696754+1052264394+1051955305+1052059718
3929+1052403946+1052627984+1052577883+1052337816+1052120253+1052113904
3921+1052295636+1052457441+1052477054+1052449835+1052479694+1052557705
3912+1052663752+1052731453+1052661552+1052563739+1052737299+1053228434
3904+1053605853+1053454295+1052882006+1052278161+1052005720+1052251068
3895+1052834357+1053355728+1053563925+1053539912+1053468124+1053343785
3887+1053127416+1052916391+1052848815+1052956057+1053170916+1053333727
3878+1053259739+1052954045+1052616480+1052455430+1052443234+1052218191
3870+1051562925+1051001134+1051239693+1052179029+1053055629+1053221457
3861+1052835740+1052525897+1052566442+1052736734+1052634333+1052130500
3853+1051840521+1052295196+1052957754+1053369747+1053432231+1053120062
3844+1052548590+1052065941+1051923372+1051967626+1051956940+1051930915
3836+1051968443+1051966306+1051857493+1051655960+1051403572+1051315126
3827+1051700466+1052513765+1053257791+1053495720+1053146652+1052498049
3819+1052037716+1051929784+1051938584+1051799095+1051594985+1051606488
3810+1051926138+1052371635+1052600702+1052454927+1052217688+1052171548
3802+1052189841+1051996731+1051710901+1051617740+1051630124+1051443866
3793+1051097941+1051014838+1051393766+1051871071+1051951094+1051611831
3785+1051281684+1051329396+1051717816+1052088634+1052112773+1051873271
3776+1051745977+1051860385+1052048403+1052189212+1052348880+1052634396
3768+1053009237+1053322852+1053483022+1053543746+1053598121+1053610568
3759+1053481702+1053266528+1053076499+1052796200+1052185063+1051217503
3751+1050289985+1049858505+1049909800+1050444875+1051725422+1053468564
3742+1054574797+1054636904+1054019606+1052948828+1051677019+1050794132
3734+1050719264+1051036211+1051148921+1051013455+1050917403+1051039480
3725+1051225046+1051184626+1050981899+1050992397+1051304566+1051530678
3717+1051341402+1050919100+1050750318+1051038600+1051325310+1051106993
3708+1050747552+1050788726+1051179660+1051533821+1051579961+1051410047
3700+1051384462+1051669287+1052073799+1052303997+1052209265+1051873083
3691+1051600894+1051771310+1052362961+1052768604+1052621069+1052102275
3683+1051513956+1051119502+1051082414+1051296456+1051417779+1051257545
3674+1051038914+1050850896+1050424005+1049883524+1049951917+1050749752
3666+1051411933+1051340459+1050804881+1050517417+1050778920+1051202856
3657+1051224229+1050637733+1049781626+1049115108+1048778863+1048753593
3649+1049227630+1050328016+1051518482+1052195372+1052243964+1051831532
3640+1051189529+1050612652+1050341720+1050308780+1050254971+1050188338
3632+1050429348+1051094295+1051731834+1051789037+1051520368+1051395526
3623+1051355546+1051124217+1050661746+1050291116+1050375288+1050923061
3615+1051743966+1052626664+1053263260+1053370564+1052952285+1052331970
3606+1051841652+1051455433+1050985293+1050522257+1050453361+1050993717
3598+1051809970+1052259428+1051996165+1051398166+1051190410+1051601585
3589+1052252828+1052602148+1052330084+1051605860+1050912940+1050619692
3581+1050741643+1050977373+1051067013+1051084677+1051224920+1051505533
3572+1051841652+1052170039+1052327004+1052047963+1051396532+1050887921
3564+1050741140+1050747301+1050810288+1050965869+1051122079+1051110261
3555+1050897665+1050634276+1050547276+1050689782+1050814436+1050752518
3547+1050744032+1051050292+1051409921+1051371073+1050952857+1050591027
3538+1050637733+1050988562+1051182615+1051027599+1050943365+1051376856
3530+1052101646+1052399923+1051865979+1050780491+1049718387+1049101593
3521+1049074625+1049527164+1050149364+1050595805+1050753021+1050793126
3513+1050885595+1050978944+1050970898+1050939467+1051008866+1051096181
3504+1051017478+1050829837+1050880378+1051383331+1052078828+1052430851
3496+1052121008+1051388297+1050818208+1050726556+1050901248+1051008741
3488+1051035394+1051152064+1051308526+1051217440+1050691857+1049906028
3479+1049314818+1049274273+1049725051+1050279424+1050618812+1050693240
3471+1050554568+1050288225+1050173189+1050572043+1051449838+1052184246
3462+1052073107+1051071476+1049914577+1049386669+1049592539+1050102658
3454+1050630253+1051208262+1051799347+1052194932+1052306071+1052227557
3445+1052046643+1051815439+1051622392+1051526906+1051518922+1051578641
3437+1051666584+1051672618+1051505973+1051216686+1050943742+1050756101
3428+1050642322+1050633962+1050791995+1051000380+1050949840+1050479512
3420+1049857625+1049560291+1049776471+1050251640+1050626607+1050833986
3411+1051024267+1051195187+1051187895+1051020496+1050906277+1050939907
3403+1051023010+1051054001+1050986802+1050792372+1050542436+1050420673
3394+1050514965+1050704492+1050828832+1050837506+1050708138+1050420673
3386+1050107436+1050015344+1050172937+1050309095+1050234604+1050095429
3377+1050108693+1050218637+1050197327+1050004343+1049864791+1049961095
3369+1050202419+1050381951+1050460339+1050603411+1050988185+1051597876
3360+1052147724+1052236295+1051654640+1050559220+1049372588+1048562620
3352+1048436961+1048979768+1049839144+1050558968+1050891001+1050921489
3343+1050923878+1051094358+1051407910+1051682425+1051718444+1051408475
3335+1050857936+1050402821+1050326067+1050518234+1050611017+1050481209
3326+1050357372+1050363973+1050294699+1049984982+1049631953+1049569595
3318+1049864414+1050259623+1050479700+1050499250+1050462853+1050403135
3309+1050229072+1050007172+1050025590+1050469328+1051157093+1051718004
3301+1051941162+1051846995+1051502264+1051002203+1050568335+1050374093
3292+1050308718+1050160365+1049883587+1049476560+1048895345+1048333931
3284+1048211415+1048630573+1049185827+1049489447+1049614792+1049904457
3275+1050469580+1050974418+1050984853+1050493152+1049920361+1049657852
3267+1049818651+1050302494+1050834238+1051067893+1050894647+1050534767
3258+1050227941+1050004972+1049808656+1049639685+1049565697+1049700723
3250+1050118248+1050690537+1051141818+1051310160+1051214045+1050867177
3241+1050276281+1049618249+1049132143+1048852599+1048680862+1048619321
3233+1048743661+1049074437+1049543193+1049922498+1049915835+1049597757
3224+1049506922+1049948397+1050481397+1050481712+1049975930+1049524398
3216+1049432054+1049489635+1049493847+1049626987+1050083234+1050596811
3207+1050678845+1050213923+1049572298+1049212291+1049269872+1049486115
3199+1049553440+1049487309+1049520626+1049723479+1049972033+1050172120
3190+1050292248+1050293568+1050192801+1050129940+1050251199+1050513834
3182+1050669164+1050554757+1050335874+1050280744+1050393329+1050481900
3173+1050457699+1050366298+1050265092+1050203676+1050224232+1050324684
3165+1050445567+1050485421+1050369253+1050118814+1049772825+1049317207
3156+1048827518+1048539739+1048624476+1049021005+1049538856+1049962666
3148+1050096938+1049894776+1049526723+1049248940+1049211223+1049352849
3139+1049460091+1049372902+1049149556+1049028171+1049230018+1049728885
3131+1050211848+1050431171+1050515531+1050691480+1050844673+1050717441
3122+1050395718+1050203614+1050234227+1050303249+1050264086+1050142890
3114+1050039797+1050043129+1050176960+1050370259+1050536778+1050689217
3105+1050877989+1051051423+1051097752+1050992962+1050817202+1050693868
3097+1050745666+1050961343+1051092786+1050871200+1050370762+1050008806
3088+1050105110+1050471843+1050573238+1050184001+1049712101+1049661184
3080+1049977439+1050215620+1050178846+1050070411+1050131009+1050363973
3071+1050589707+1050671113+1050627236+1050477123+1050119945+1049559411
3063+1049116742+1049121394+1049490704+1049846059+1049982971+1050020939
3054+1050121202+1050267921+1050362841+1050380065+1050335056+1050212037
3046+1050005161+1049785963+1049675076+1049751893+1049987748+1050253714
3037+1050425702+1050491267+1050564689+1050766662+1051033571+1051108313
3029+1050856993+1050499501+1050327387+1050281750+1050051049+1049563183
3020+1049153139+1049184633+1049624033+1050097504+1050332291+1050389369
3012+1050439846+1050517040+1050573992+1050591782+1050523577+1050251262
3003+1049702484+1049020313+1048553317+1048558534+1048918038+1049298349
2995+1049540553+1049711158+1049870135+1050030934+1050255034+1050538601
2986+1050680416+1050491141+1050078394+1049714930+1049488692+1049326007
2978+1049297846+1049573178+1050035334+1050261697+1049967569+1049280433
2969+1048596125+1048293260+1048448904+1048718642+1048683754+1048363853
2961+1048156851+1048256297+1048442995+1048474615+1048360647+1048196014
2952+1048004475+1047846945+1047849019+1047991526+1048043575+1047863603
2944+1047672191+1047817212+1048266418+1048557969+1048354424+1047824755
2935+1047355559+1047131835+1047119452+1047183884+1047134475+1046903775
2927+1046712865+1046834816+1047241151+1047675837+1047976879+1048158548
2918+1048280750+1048378437+1048468454+1048526601+1048466191+1048203305
2910+1047776415+1047367754+1047177975+1047266484+1047485367+1047570167
2901+1047383657+1047099399+1047051561+1047387052+1047911252+1048263086
2893+1048222730+1047879821+1047526667+1047429861+1047702364+1048266544
2884+1048883716+1049316641+1049487121+1049409047+1049087952+1048598200
2876+1048136798+1047901446+1047961164+1048199722+1048367876+1048321107
2867+1048190419+1048190482+1048356561+1048590279+1048793195+1048847759
2859+1048628813+1048118568+1047477509+1047006490+1046989455+1047456702
2850+1048113917+1048569787+1048626927+1048381014+1048093298+1047957518
2842+1047992154+1048134347+1048303569+1048389500+1048373157+1048424577
2833+1048687777+1049014467+1049104484+1048879818+1048578524+1048459717
2825+1048495296+1048459088+1048307341+1048302375+1048660935+1049234544
2816+1049672499+1049798284+1049695757+1049490641+1049215749+1048919169
2808+1048729014+1048689726+1048676588+1048603292+1048579782+1048731717
2799+1048980773+1049127492+1049074814+1048880635+1048660935+1048514846
2791+1048482787+1048500388+1048448087+1048331354+1048328714+1048555517
2782+1048901820+1049210091+1049435889+1049539044+1049462856+1049327579
2774+1049367936+1049608066+1049862654+1050034831+1050110893+1049938968
2765+1049377931+1048655781+1048270818+1048457516+1048878184+1048971219
2757+1048595811+1048163326+1048060296+1048211037+1048352852+1048410433
2748+1048398238+1048279305+1048130261+1048179795+1048520252+1048954120
2740+1049215749+1049244162+1049178535+1049131892+1049077957+1049014656
2731+1049068779+1049290428+1049498436+1049478949+1049215875+1048829341
2723+1048451356+1048219838+1048227507+1048423131+1048658107+1048832798
2714+1048917661+1048889562+1048759753+1048639500+1048651695+1048776726
2706+1048868692+1048837261+1048745672+1048694440+1048678914+1048626676
2697+1048542253+1048528361+1048640380+1048788229+1048842604+1048806522
2689+1048797910+1048864669+1048919609+1048909363+1048916215+1049013021
2680+1049134532+1049169986+1049101530+1049011073+1049018553+1049178472
2672+1049395595+1049508745+1049453930+1049247682+1048872464+1048349144
2663+1047888622+1047773146+1048037163+1048394969+1048550300+1048480084
2655+1048363350+1048364356+1048535276+1048756484+1048747244+1048360961
2646+1047881267+1047744293+1047980588+1048210220+1048159365+1047922756
2638+1047730777+1047700353+1047866558+1048261075+1048792064+1049140630
2629+1049016793+1048518303+1048018808+1047737944+1047662950+1047805142
2621+1048215123+1048769748+1049208897+1049394086+1049361524+1049152888
2612+1048772263+1048327079+1048049358+1048067777+1048273836+1048555706
2604+1048993723+1049558783+1049823303+1049399807+1048570855+1048050113
2595+1048147547+1048522326+1048725997+1048680737+1048581227+1048550362
2587+1048519623+1048362093+1048036786+1047652012+1047487253+1047802628
2578+1048467260+1048969144+1048997495+1048800613+1048769245+1048951354
2570+1049162945+1049279364+1049252774+1049093735+1048926398+1048846125
2561+1048749884+1048524086+1048298226+1048263904+1048399998+1048572992
2553+1048756673+1048998500+1049311424+1049635851+1049786340+1049542313
2544+1048973104+1048539927+1048666719+1049259312+1049787221+1049815257
2536+1049379314+1048831164+1048459591+1048368568+1048572301+1048984168
2527+1049358884+1049448650+1049234984+1048907540+1048609138+1048308661
2519+1048018745+1047975245+1048342543+1048835878+1048955440+1048546654
2510+1047893211+1047362725+1047172381+1047378251+1047857757+1048324376
2502+1048533327+1048577141+1048833364+1049427717+1049952106+1050017418
2493+1049800359+1049639308+1049448084+1049010507+1048506862+1048291311
2485+1048403267+1048617561+1048749821+1048702927+1048412885+1047917727
2476+1047402202+1047094307+1047123915+1047465440+1047963490+1048394152
2468+1048585439+1048554260+1048490707+1048536407+1048669233+1048862469
2459+1049170426+1049554948+1049791809+1049691734+1049340277+1049062745
2451+1049138681+1049474171+1049606746+1049201857+1048471786+1047919361
2442+1047814446+1048085566+1048494982+1048739512+1048627179+1048315450
2434+1048149559+1048229581+1048415902+1048682120+1049096941+1049512203
2425+1049647229+1049468891+1049208205+1049031880+1048911940+1048747244
2417+1048478638+1048136232+1047832613+1047657670+1047598957+1047641389
2408+1047872970+1048325696+1048737438+1048727505+1048298100+1047922190
2400+1047967576+1048257618+1048394844+1048310232+1048263715+1048439852
2391+1048766102+1049091221+1049338454+1049434569+1049260129+1048833364
2383+1048426903+1048327771+1048552500+1048919609+1049277667+1049531375
2374+1049610203+1049587762+1049758744+1050421428+1051436449+1052059781
2366+1051594733+1050335999+1049349329+1049172249+1049312115+1049076700
2357+1048368065+1047669173+1047594243+1048251897+1048979139+1049039360
2349+1048391575+1047610398+1047291691+1047395664+1047262964+1046658930
2340+1046208026+1046552506+1047656287+1048955755+1049897605+1050320787
2332+1050445629+1050487181+1050389243+1050067456+1049660115+1049304823
2323+1048901757+1048353921+1047822743+1047466886+1047230465+1047124543
2315+1047334060+1047835693+1048250703+1048268053+1047978136+1047704941
2306+1047707330+1048041878+1048491713+1048614229+1048091790+1047180616
2298+1046629448+1046934262+1047764974+1048333994+1048221787+1047590974
2289+1046762588+1046009825+1045758694+1046425400+1047783895+1048923130
2281+1049208960+1048868943+1048319536+1047590974+1046853046+1046737129
2272+1047594871+1048976813+1050132140+1050589770+1050263080+1049430797
2264+1048539487+1047735241+1046803322+1045794462+1045373543+1046114174
2255+1047614233+1048815008+1049154333+1048957641+1048857377+1049240076
2247+1049981462+1050463042+1050193556+1049373908+1048470780+1047640760
2238+1047023337+1046954818+1047431935+1047897108+1047840659+1047296029
2230+1046729272+1046631334+1047188473+1048285591+1049611209+1050574809
2221+1050569717+1049755476+1049092855+1049219018+1049813874+1050252017
2213+1050258869+1049823743+1049140567+1048839587+1049617369+1051201096
2204+1052181983+1051434186+1049444752+1047780689+1047548103+1048686268
2196+1050400558+1051805507+1052204927+1051252642+1049377239+1047741087
2187+1047007873+1046547100+1045751842+1045419809+1046609710+1048942051
2179+1051114725+1052073547+1051186952+1048726625+1046465192+1046313382
2170+1048181995+1050104796+1050560540+1049989005+1049804319+1050654077
2162+1052059466+1053069018+1052800412+1051116359+1049150436+1048242405
2153+1048309981+1047953621+1046244423+1043841174+1042199741+1042292084
2145+1044204701+1047232790+1050117179+1051750881+1051920354+1051151121
2136+1049965306+1048615550+1047363793+1046621968+1046700356+1047575447
2128+1048970024+1050491141+1051617363+1051863842+1051219137+1050136792
2119+1048948148+1047711668+1046712111+1046543517+1047465251+1048939851
2111+1049950471+1049825629+1048862217+1048043575+1048077709+1048853605
2102+1049707890+1049928658+1049200599+1047878187+1046715442+1046293518
2094+1046773212+1047871335+1048875104+1049088958+1048520063+1047840407
2085+1047630514+1047882147+1048177092+1048177281+1047948152+1047762711
2077+1047632274+1047305835+1046725814+1046148874+1045863987+1046125301
2068+1047116309+1048497433+1049412505+1049566012+1049778169+1050757233
2060+1051985290+1052470013+1051983216+1051048469+1050277790+1049994474
2051+1050047655+1049868123+1049049795+1047857631+1046906729+1046523715
2043+1046547414+1046480467+1045806028+1044379769+1042781208+1042279638
2034+1043853935+1046840222+1049139184+1049249631+1047764157+1046676783
2026+1047219024+1048419485+1048337640+1046777486+1045589723+1046099402
2017+1047641200+1048932056+1049656783+1050233787+1050885972+1051320155
2009+1051210714+1050853976+1050736803+1050446132+1049202737+1047598077
2000+1047476126+1049560040+1052081405+1052640116+1050921426+1048712922
1992+1047640320+1047606564+1047501334+1046745113+1045812629+1045598146
1983+1046341481+1047178918+1046928793+1045460417+1044337024+1045544903
1975+1049034520+1052252891+1052876348+1051345488+1049833675+1049287662
1966+1048660307+1047049110+1045263284+1044775984+1045995429+1047896668
1958+1049095495+1049049795+1048318530+1047871272+1048109391+1048633214
1949+1048987437+1049184947+1049361524+1049494790+1049573052+1049502145
1941+1048934382+1047807971+1046793076+1046719717+1047708147+1049110771
1932+1050232593+1050834049+1050961846+1050612212+1049810039+1048835627
1924+1048014156+1047250392+1046178607+1044880208+1044051256+1044275797
1915+1045422135+1046986437+1048501205+1049515786+1049755727+1049344237
1907+1048568152+1047590408+1046573627+1045774786+1045401579+1045541068
1898+1046125364+1046789116+1047042195+1046800745+1046398559+1046036918
1890+1045746750+1045781010+1046405536+1047378314+1048136421+1048364733
1881+1048160183+1047788735+1047517426+1047529621+1047757431+1047917224
1873+1047857883+1047737126+1047745550+1047747121+1047446833+1046938914
1864+1046647804+1046786161+1047079409+1047036600+1046537419+1046010579
1856+1045935523+1046329348+1046827272+1047091667+1046997438+1046600909
1847+1046121089+1045844311+1045858895+1045925402+1045844751+1045747505
1839+1045883411+1046312942+1046743416+1046803951+1046531762+1046336515
1830+1046463746+1046668108+1046636803+1046387118+1046056908+1045778747
1822+1045715383+1045870084+1045955638+1045740276+1045452623+1045476447
1813+1045797542+1046101602+1046250835+1046356567+1046465003+1046487256
1805+1046347515+1046018060+1045590289+1045373166+1045599215+1046033272
1796+1046218838+1045971291+1045542891+1045412266+1045680055+1045909561
1788+1045828470+1045625114+1045615370+1045826647+1046066463+1046304393
1779+1046642900+1046965316+1046957081+1046479084+1045801817+1045474561
1771+1045731789+1046216638+1046497377+1046434201+1046188099+1046017745
1762+1046024157+1046089030+1046066211+1045934894+1045763031+1045690427
1754+1045816841+1046046724+1046109837+1045828721+1045376435+1045039624
1745+1044913964+1044910507+1044942001+1045078912+1045404031+1045775226
1737+1046014414+1046153651+1046288992+1046330669+1046191557+1046004167
1728+1045945392+1046028746+1046051187+1045800685+1045352799+1045025732
1720+1045012845+1045172261+1045183891+1045066026+1045106383+1045317974
1711+1045480659+1045410254+1045117761+1044819044+1044739084+1044818792
1703+1044785162+1044471170+1044019009+1043842683+1044165224+1044801631
1694+1045293646+1045394036+1045271645+1045187977+1045245620+1045331552
1686+1045222047+1044781139+1044293838+1044138131+1044275231+1044526362
1677+1044760897+1044877191+1044806094+1044591046+1044396491+1044389073
1669+1044535854+1044602110+1044540883+1044521019+1044645233+1044788179
1660+1044781076+1044650701+1044533654+1044564896+1044857389+1045304647
1652+1045476573+1045341798+1045109400+1044882219+1044774475+1044821118
1643+1044918616+1044984495+1044954824+1044773469+1044488268+1044304336
1635+1044363300+1044532334+1044725003+1044971734+1045228334+1045366943
1626+1045309362+1045089473+1044850789+1044777618+1044862167+1044925217
1618+1044892340+1044873042+1044899569+1044829856+1044668868+1044591046
1609+1044660131+1044693573+1044541951+1044323886+1044226262+1044241035
1601+1044234874+1044195712+1044229217+1044339350+1044384987+1044295221
1592+1044193071+1044230348+1044393473+1044516807+1044467209+1044302450
1584+1044202312+1044233491+1044271397+1044182196+1043992355+1043874868
1575+1043954827+1044127130+1044292392+1044461615+1044539626+1044319800
1567+1043892783+1043649384+1043808486+1044173647+1044348213+1044091865
1558+1043766495+1043858838+1044110283+1044312194+1044487388+1044631340
1550+1044674400+1044630272+1044634923+1044819861+1045212178+1045622222
1541+1045566401+1044779378+1043972868+1043679746+1043692947+1043781707
1533+1043888320+1043989527+1044032775+1044022592+1044041953+1044145486
1524+1044263853+1044280889+1044182574+1044093939+1044088282+1044086585
1516+1043986698+1043791388+1043609342+1043559870+1043698668+1044013854
1507+1044412960+1044650639+1044641209+1044569988+1044584383+1044720603
1499+1044869207+1044794025+1044399319+1043908310+1043568105+1043459732
1490+1043574831+1043844694+1044121347+1044265991+1044253167+1044173207
1482+1044149571+1044230537+1044364871+1044464381+1044454951+1044306662
1473+1044063514+1043802263+1043552452+1043314963+1043120847+1043029698
1465+1043067226+1043161644+1043213819+1043179811+1043052203+1042885369
1456+1042816724+1042870031+1042962059+1043090988+1043301259+1043564585
1448+1043711303+1043578226+1043261090+1043046231+1043079924+1043201309
1439+1043143791+1042870345+1042691756+1042894546+1043342999+1043780764
1431+1044062697+1044136559+1044062886+1043970040+1043939363+1043936723
1422+1043818356+1043485317+1043093314+1043002354+1043264611+1043565779
1414+1043689301+1043624303+1043444897+1043213190+1042969854+1042783785
1405+1042740662+1042845075+1043032024+1043304402+1043676163+1043992418
1397+1044037301+1043821624+1043550755+1043381721+1043329232+1043328101
1388+1043294721+1043221739+1043189554+1043177234+1043056037+1042834325
1380+1042709106+1042797426+1042962940+1042991479+1042836588+1042646496
1371+1042573137+1042634049+1042734816+1042772784+1042765995+1042845829
1363+1043074770+1043320054+1043432953+1043433330+1043387253+1043262725
1354+1042992799+1042629523+1042321440+1042144109+1042081059+1042154355
1346+1042393479+1042663783+1042752857+1042660074+1042604567+1042702694
1337+1042839103+1042934401+1043044785+1043175411+1043236889+1043200744
1329+1043135808+1043074330+1042985004+1042876191+1042807798+1042825965
1320+1042952190+1043145426+1043249335+1043144860+1042941630+1042840360
1312+1042847715+1042817479+1042706717+1042613808+1042619466+1042707911
1303+1042813770+1042883169+1042914662+1042931823+1042943075+1042967403
1295+1043032401+1043069678+1042939869+1042679498+1042549124+1042698545
1286+1042944395+1043000782+1042777247+1042401023+1042101049+1042049251
1278+1042205839+1042389833+1042522345+1042665040+1042835708+1042936664
1269+1042849601+1042529825+1042090802+1041791960+1041811070+1042049000
1261+1042253047+1042257951+1042067104+1041809813+1041648636+1041646750
1252+1041733122+1041824711+1041923529+1042051640+1042161333+1042186980
1244+1042169253+1042225954+1042349917+1042337910+1042042462+1041618526
1235+1041369658+1041389899+1041504307+1041553087+1041586529+1041746260
1227+1042042211+1042305034+1042363620+1042253047+1042172836+1042223063
1218+1042282404+1042211999+1042064464+1041992047+1042036113+1042094323
1210+1042060063+1041944273+1041836277+1041762667+1041675604+1041612303
1201+1041718664+1042029261+1042362300+1042537495+1042566536+1042519705
1193+1042349602+1042016815+1041675415+1041529137+1041559373+1041587347
1184+1041544224+1041509399+1041553024+1041691633+1041907750+1042101363
1176+1042127513+1041967217+1041767004+1041665043+1041655865+1041647568
1167+1041587787+1041517822+1041523857+1041627578+1041749592+1041816853
1159+1041851552+1041894990+1041899453+1041793406+1041617017+1041491609
1150+1041463070+1041452761+1041396688+1041370412+1041490037+1041684404
1142+1041687673+1041343634+1040826725+1040473131+1040445472+1040642919
1133+1040890278+1041125882+1041362178+1041540829+1041552710+1041409889
1125+1041273040+1041273920+1041409826+1041595204+1041714515+1041667935
1116+1041481991+1041294350+1041173280+1041088668+1041080622+1041250787
1108+1041542841+1041749340+1041781336+1041733373+1041643293+1041384933
1099+1040888078+1040325595+1039979921+1039972064+1040207165+1040525809
1091+1040804535+1040939373+1040849670+1040575658+1040335716+1040385691
1082+1040749846+1041173154+1041413535+1041462441+1041391974+1041168251
1074+1040773922+1040386131+1040258145+1040451192+1040765561+1040957100
1065+1040992176+1041017698+1041068238+1040941761+1040477217+1039855205
1057+1039466911+1039490358+1039734951+1039940130+1040062647+1040190255
1048+1040360169+1040591561+1040923595+1041266314+1041364189+1041044854
1040+1040421899+1039805230+1039481117+1039556299+1039902351+1040240356
1031+1040354637+1040238784+1040037628+1039910145+1039937301+1040053280
1023+1040075408+1039907882+1039654049+1039440886+1039269023+1039101498
1014+1038923161+1038694974+1038445918+1038352192+1038550142+1038972884
1006+1039466408+1039930450+1040305291+1040552210+1040656874+1040596465
997+1040356963+1040012672+1039722505+1039611806+1039660775+1039747649
989+1039835466+1040024301+1040352123+1040668315+1040796615+1040702323
980+1040494692+1040346968+1040320189+1040242996+1039952640+1039606903
972+1039503496+1039691640+1040008712+1040337413+1040610986+1040754498
963+1040781842+1040813399+1040905176+1040959803+1040843321+1040564657
955+1040335465+1040402538+1040753555+1041067107+1041023293+1040589487
946+1039961566+1039383871+1039078239+1039176429+1039613440+1040148955
938+1040512796+1040539198+1040266632+1039950125+1039857845+1039995197
929+1040109604+1039986396+1039679256+1039423788+1039366207+1039440886
921+1039513679+1039542407+1039531783+1039469174+1039418193+1039525875
912+1039793223+1039988156+1039949497+1039823397+1039818242+1039898830
904+1039918066+1039888395+1039938433+1040119033+1040360483+1040541084
895+1040572954+1040451004+1040185729+1039777257+1039347977+1039095401
887+1039011481+1038902479+1038731120+1038638399+1038660966+1038726531
878+1038858288+1039125323+1039446229+1039611114+1039509153+1039281281
870+1039161531+1039175297+1039136952+1038948242+1038699123+1038442021
861+1038070385+1037536190+1037066616+1036957678+1037182093+1037523492
853+1038036754+1038840372+1039537504+1039558625+1039037505+1038674796
844+1038856591+1039419262+1040033605+1040428436+1040507516+1040468668
836+1040596465+1040884181+1041010720+1040713575+1040101369+1039542281
827+1039259720+1039171714+1039112436+1038988474+1038793415+1038719867
819+1039073273+1039834775+1040526123+1040706095+1040401909+1040015564
810+1039947359+1040226463+1040436420+1040154801+1039418696+1038606340
802+1038066802+1038022988+1038475211+1038966849+1038876141+1038232818
793+1037846599+1038359044+1039500793+1040475834+1040752486+1040368027
785+1039795989+1039588547+1039900968+1040367524+1040564028+1040392731
776+1039934787+1039293665+1038739732+1038595968+1038771477+1038772357
768+1038393806+1038055675+1038169329+1038498910+1038512048+1038111685
759+1037626396+1037269155+1037026699+1036968427+1037238793+1037732694
751+1038108856+1038154808+1037914803+1037538202+1037272487+1037466163
742+1038205725+1039035305+1039390283+1039226403+1038943968+1038815291
734+1038762802+1038608603+1038323527+1038010290+1037747404+1037551465
725+1037503062+1037748284+1038252745+1038702078+1038860488+1038926870
717+1039275372+1039868846+1040197421+1039872303+1039104830+1038438249
708+1038174672+1038232881+1038390412+1038429197+1038160277+1037563409
700+1036905880+1036613827+1036987348+1037959309+1039058878+1039706286
691+1039675924+1039198493+1038619352+1038150282+1037921655+1037933725
683+1037902105+1037532355+1037037826+1037021608+1037750107+1038827109
674+1039569312+1039500416+1038524306+1036841762+1035097676+1034379109
666+1034989869+1036512809+1038630102+1040621232+1041398386+1040685728
657+1039367464+1038407510+1037974836+1037658015+1037191333+1036752436
649+1036573847+1036536193+1036468114+1036618667+1037327428+1038398269
640+1039335782+1040029079+1040676298+1041234569+1041500221+1041575152
632+1041722687+1041869657+1041747517+1041430696+1041237775+1041114001
623+1040608534+1039523046+1038210691+1037224021+1036922601+1037310204
615+1038045555+1038629033+1038701386+1038280090+1037750924+1037495079
606+1037498599+1037526824+1037589999+1037870423+1038259974+1038346912
598+1037878155+1037059136+1036384383+1036200325+1036450450+1036956358
589+1037774623+1038955094+1040180386+1040986016+1041127014+1040611363
581+1039737717+1039118345+1039153799+1039492495+1039368847+1038505008
572+1037482821+1037241748+1038194787+1039673536+1040422779+1039870103
564+1038683785+1037866337+1037553225+1037098676+1036361690+1036252375
555+1037581387+1039762673+1041184657+1040876323+1039600868+1039146444
547+1040439626+1042547112+1043788685+1043500089+1042331498+1041273040
538+1040744943+1040466970+1040023421+1039406690+1038950317+1038942522
530+1039425422+1040137452+1040566920+1040241550+1039113442+1037598234
521+1036310961+1035735341+1035869864+1036205291+1036207869+1035769600
513+1035309078+1035525761+1036710319+1038331196+1039673976+1040652537
504+1041587347+1042470170+1042739782+1041729476+1039423851+1036833275
496+1035449699+1035938194+1037335034+1037953274+1037235336+1036326111
487+1036629165+1038229298+1039846153+1040251042+1039578364+1038896570
479+1038844773+1039321450+1040261226+1041855513+1043857392+1045415157
470+1045825453+1044804837+1042418875+1039472128+1037127969+1035734461
462+1034693918+1033570650+1033079893+1034739053+1038853573+1043558990
453+1046684452+1047031383+1044479593+1040327356+1037263624+1037867469
445+1042206907+1047335254+1049850899+1049045898+1047073374+1046239834
436+1046883408+1047451045+1046365557+1043486574+1040015627+1037761925
428+1037947554+1039877583+1041044288+1039753809+1037444538+1036584408
419+1036927127+1036233076+1035291854+1036211452+1038463016+1040081379
411+1040316103+1040536558+1042642724+1046856943+1050763770+1051113342
402+1047002090+1040832760+1037265572+1040849607+1049505916+1054636904
394+1055706802+1054254016+1053947756+1054708566+1054854404+1054048145
385+1053333790+1053428082+1054784753+1058885068+1066380141+1073741823
377+1073540793+1063152090+1054636904
##END=
