##TITLE=SAM15.1,15-20
##JCAMP-DX=4.24
##DATA TYPE=INFRARED SPECTRUM
##DATE=24/7/2018
##SAMPLING PROCEDURE=Diamant-ATR
##ORIGIN=Angelika Moesle
##XUNITS=1/CM
##YUNITS=TRANSMITTANCE
##RESOLUTION=4
##FIRSTX=3997.453
##LASTX=373.96442
##DELTAX=-1.4165319
##MAXY=1.0276701
##MINY=0.72122353
##XFACTOR=1
##YFACTOR=9.5709241e-010
##NPOINTS=2559
##FIRSTY=0.98706448
##XYDATA=(X++(Y..Y))
3997+1031315758+1031335562+1031495365+1031534910+1031412350+1031261578
3989+1031223215+1031311710+1031295083+1030888976+1030230087+1029879531
3980+1030163202+1030831307+1031513425+1032145161+1032779325+1033259978
3972+1033337014+1033037276+1032712751+1032612237+1032558616+1032277001
3963+1031905893+1031859684+1032286031+1032974688+1033671939+1034160562
3955+1034281317+1034140073+1033995031+1033855593+1033496692+1032897589
3946+1032308139+1031909319+1031756118+1031914612+1032322089+1032667103
3938+1032635840+1032193488+1031607338+1031200546+1031103581+1031251240
3929+1031510560+1031729650+1031807807+1031836891+1032018552+1032342080
3921+1032609372+1032758213+1032844529+1032840294+1032746132+1032769859
3912+1033081243+1033512448+1033676983+1033427315+1033045434+1032915151
3904+1033117052+1033402031+1033592224+1033688629+1033685951+1033658051
3895+1033730479+1033846438+1033744429+1033279532+1032716177+1032333610
3887+1032157305+1032248540+1032668286+1033142088+1033217131+1032752173
3878+1032176050+1031980812+1032255142+1032785055+1033258732+1033519672
3870+1033555107+1033322628+1032861967+1032332116+1031888954+1031677337
3861+1031740984+1031959700+1032221263+1032561917+1033110949+1033793441
3853+1034004310+1033594155+1033348348+1033493266+1033753521+1033830433
3844+1033623861+1033292735+1033016102+1032780633+1032681302+1033049482
3836+1033781047+1034400390+1034807992+1035144037+1035292630+1035000178
3827+1034326717+1033737952+1033767783+1034561438+1035575616+1035634654
3819+1034537835+1033556291+1033558719+1034224085+1034672042+1034645698
3810+1034416395+1034207768+1034023242+1033838342+1033876580+1034353620
3802+1034967047+1035003105+1034561189+1034473441+1034910562+1035281669
3793+1035183396+1034803321+1034354181+1033829063+1033289185+1032990381
3785+1033078316+1033367405+1033650764+1033978901+1034405746+1034693776
3776+1034603163+1034267990+1034017326+1034107004+1034587657+1035199464
3768+1035555998+1035618088+1035646922+1035738781+1035672954+1035220077
3759+1034546803+1034279885+1034778410+1035662118+1036317955+1036244655
3751+1035300352+1034300934+1034047841+1034207581+1034247189+1034196185
3742+1034451208+1034934787+1035319222+1035431320+1035194668+1034637852
3734+1034130358+1034101399+1034441057+1034777601+1034906576+1034835144
3725+1034786444+1035121244+1035930531+1036810066+1037252916+1037126432
3717+1036627471+1035950958+1035216652+1034688607+1034832093+1035518944
3708+1035936821+1035953822+1036061997+1036492890+1036828438+1036428060
3700+1035423037+1034642086+1034538022+1034963061+1035542733+1036018092
3691+1036358871+1036544269+1036356504+1035805168+1035262924+1034878427
3683+1034571589+1034382517+1034538645+1035108602+1035740151+1035950895
3674+1035894037+1036133117+1036477321+1036219059+1035147089+1034111301
3666+1033745861+1033919177+1034256718+1034477676+1034597247+1034798962
3657+1035008274+1034843365+1034259520+1033735025+1033650640+1034108437
3649+1034714265+1034571091+1033790700+1033193777+1033056270+1033177025
3640+1033328171+1033488035+1033687881+1033867052+1033994719+1034162617
3632+1034472756+1034845296+1034948177+1034689977+1034569534+1034806373
3623+1035210362+1035570758+1035682856+1035385173+1034986477+1035043087
3615+1035474665+1035672456+1035208805+1034212999+1033119730+1032402426
3606+1032327632+1032709700+1033253625+1033843947+1034403815+1034786195
3598+1034796657+1034204841+1032994616+1031694588+1030887855+1030533126
3589+1030375005+1030621123+1031630318+1032874235+1033445749+1033110825
3581+1032204386+1031276026+1030730792+1030565572+1030483305+1030295229
3572+1030132562+1030155666+1030182819+1029778829+1028831724+1027985943
3564+1027783730+1027983825+1027987936+1027401351+1026522189+1026037800
3555+1026058663+1025952232+1025168665+1023886573+1022601554+1021432245
3547+1020153951+1018553562+1016570669+1014205895+1011427042+1008188711
3538+1004468856+1000310261+995812071+991020370+985876556+980250969+974006350
3529+967356434+961329099+957298483+955860637+956584978+958787459+962142995
3519+966453172+971255958+975968443+980313930+984384030+988250049+991619410
3509+994058605+995657624+997076290+998827824+1000815326+1002590588+1003930037
3499+1004929331+1005735940+1006423476+1006976992+1007373072+1007750781
3490+1008292527+1008863542+1009121057+1009102810+1009206003+1009496648
3482+1009651282+1009655952+1009922559+1010599757+1011354676+1011867028
3473+1012161597+1012436487+1012800494+1013252001+1013726613+1014080532
3465+1014177310+1014082151+1014026164+1014142622+1014416702+1014882283
3456+1015593733+1016433411+1017218784+1017947671+1018682413+1019259096
3448+1019363098+1018925355+1018255381+1017678262+1017288907+1017047772
3439+1016832979+1016433473+1015756525+1015032246+1014587776+1014447342
3431+1014357726+1014212372+1014232674+1014641770+1015322642+1015946344
3422+1016293787+1016313466+1016069964+1015818615+1015895713+1016357683
3414+1016907338+1017261194+1017399885+1017442357+1017499341+1017653351
3405+1017876676+1017979495+1017793910+1017412714+1017140190+1017186026
3397+1017456681+1017658084+1017617355+1017487446+1017570149+1017906569
3388+1018161281+1018049432+1017746953+1017656340+1017815271+1017853571
3380+1017598548+1017403808+1017704231+1018435049+1019141829+1019525329
3371+1019587917+1019387760+1019039383+1018856975+1019095931+1019578638
3363+1019874391+1019755878+1019268375+1018578535+1017978062+1017766072
3354+1017882530+1017962493+1017954210+1018243548+1018956991+1019666698
3346+1020043784+1020251290+1020448645+1020502452+1020409784+1020467577
3337+1020805802+1021135932+1021158600+1021018976+1021135309+1021615089
3329+1022079114+1022173276+1022016027+1021936002+1022013349+1022151978
3320+1022388878+1022856328+1023474425+1023883397+1023786619+1023288840
3312+1022814727+1022741241+1023133086+1023720917+1024135867+1024273623
3303+1024328614+1024418915+1024435917+1024362305+1024428693+1024780432
3295+1025197811+1025310781+1025031220+1024671136+1024611537+1024941293
3286+1025453146+1025870712+1026063707+1026133831+1026232228+1026295751
3278+1026203706+1026146037+1026452190+1027076017+1027603750+1027746613
3269+1027595405+1027454971+1027535433+1027772707+1027963087+1028041743
3261+1028105701+1028249062+1028500847+1028807934+1029017309+1029029577
3252+1028956776+1028940957+1028878369+1028572902+1028161626+1028129865
3244+1028733887+1029572569+1030005579+1029887752+1029589882+1029376459
3235+1029190189+1029100635+1029460159+1030307746+1031006430+1030935247
3227+1030333778+1030003711+1030309864+1030910959+1031343534+1031455819
3218+1031299504+1030977222+1030678480+1030604371+1030754146+1030928210
3210+1030946582+1030767100+1030480813+1030296536+1030461072+1031087140
3201+1032006595+1032744824+1032786549+1032130775+1031442990+1031337991
3193+1031732515+1032163283+1032386421+1032448137+1032538314+1032967152
3184+1033880628+1034864539+1035246234+1034905704+1034429224+1034326343
3176+1034420506+1034279324+1033941722+1033833235+1034152279+1034720680
3167+1035339898+1035941367+1036422144+1036630335+1036522659+1036190599
3159+1035785052+1035499015+1035497894+1035744261+1035969018+1035901012
3150+1035509166+1035030818+1034786195+1034892377+1035134696+1035177418
3142+1034889450+1034423744+1034059798+1034021374+1034368069+1035003416
3133+1035728941+1036252564+1036322003+1036032229+1035806289+1035899143
3125+1036134799+1036271932+1036330535+1036375187+1036280402+1035953200
3116+1035614601+1035609058+1035947346+1036257048+1036230331+1035941616
3108+1035693941+1035712002+1035967648+1036159710+1035966901+1035426525
3099+1034904147+1034619604+1034421128+1034086702+1033623736+1033152986
3091+1032678001+1032136878+1031608023+1031269549+1031134408+1030999641
3082+1030723880+1030402781+1030165817+1029906684+1029409341+1028692847
3074+1028026236+1027618759+1027490344+1027560530+1027640805+1027489971
3065+1027137110+1026968340+1027266521+1027864254+1028377166+1028600054
3057+1028613568+1028602857+1028616869+1028571158+1028446853+1028320556
3048+1028238226+1028264071+1028509691+1028895122+1029112530+1029019302
3040+1028785951+1028528810+1028086271+1027238746+1025950364+1024438532
3031+1023103878+1022236612+1021769411+1021515011+1021538738+1022049159
3023+1023079154+1024503176+1026188323+1027910463+1029327385+1030235007
3014+1030717154+1030900185+1030731976+1030120169+1029132832+1027979342
3006+1026909987+1026124054+1025616124+1025169475+1024608174+1023929295
2997+1023082393+1021818548+1019920289+1017457740+1014688104+1011823745
2989+1009016743+1006437239+1004168620+1002054073+999840009+997507245+995313919
2979+993514929+992201947+991386931+991006856+990812116+990424319+989541420
2969+987989794+985644450+982449215+978511640+974077034+969459895+965059106
2959+961276849+958247831+955770398+953609829+951690583+949890534+947911876
2949+945523935+942763516+939746828+936412653+932584997+928237890+923568812
2939+918817716+914163397+909802652+905913155+902501819+899469686+896780637
2929+894384600+892118721+889840823+887510923+885172866+883151735+882185448
2919+883007564+885827208+890321039+895894189+901855012+907640028+913031953
2910+918079798+922859479+927393105+931653523+935552175+939046090+942280684
2900+945496284+948769116+951917768+954663926+956855322+958538850+959807491
2890+960613290+960837113+960556743+960086428+959714511+959553028+959663444
2880+960089604+960670336+961031790+960886062+960197717+959027412+957402548
2870+955350714+952878388+949886549+946216639+941757123+936460357+930357792
2860+923693553+917111830+911665164+908428016+907932542+910027782+914240309
2850+919996366+926529139+933042981+939135145+944794985+950016458+954737911
2840+959057242+963170001+967171410+971128477+975163515+979284557+983294871
2830+986965341+990209650+993124765+995926598+998753528+1001507532+1003979796
2820+1006066567+1007797862+1009299231+1010768029+1012331363+1013941654
2812+1015521866+1017051446+1018416180+1019408124+1019997761+1020415327
2803+1020892554+1021471479+1022058064+1022535167+1022846800+1023066076
2795+1023360396+1023835257+1024434858+1025016025+1025483661+1025837082
2786+1026115273+1026333864+1026501825+1026699553+1027027441+1027406146
2778+1027588928+1027506349+1027379678+1027367161+1027351903+1027214084
2769+1027088721+1027239805+1027789335+1028598124+1029417188+1030152926
2761+1030835106+1031342226+1031489947+1031401763+1031397777+1031539706
2752+1031646261+1031672978+1031733636+1031840939+1031882539+1031804382
2744+1031690665+1031698013+1031914238+1032261369+1032580413+1032800063
2735+1032932028+1032965657+1032907989+1032878594+1032989011+1033172167
2727+1033292050+1033372885+1033555294+1033884302+1034296575+1034708100
2718+1034972527+1034922270+1034600423+1034275525+1034119148+1034096417
2710+1034218231+1034586847+1035125105+1035583712+1035874731+1036116303
2701+1036340810+1036415480+1036253934+1035942986+1035665294+1035569699
2693+1035678559+1035894224+1036074826+1036113874+1036027185+1035986082
2684+1036131311+1036356193+1036444750+1036360116+1036223543+1036107210
2676+1036010681+1035934641+1035887685+1035884882+1035928040+1035943422
2667+1035836742+1035655890+1035581532+1035706708+1035909045+1036003146
2659+1035964036+1035911537+1035902070+1035890176+1035889428+1035977675
2650+1036121472+1036199380+1036198197+1036206479+1036271808+1036402963
2642+1036615763+1036872592+1037107562+1037357479+1037716256+1038145592
2633+1038493844+1038696430+1038808964+1038844338+1038713245+1038375642
2625+1038003476+1037892001+1038123608+1038407590+1038428266+1038282289
2616+1038338525+1038729063+1039209529+1039447800+1039288122+1038860467
2608+1038528221+1038578852+1038954007+1039414357+1039835099+1040156883
2599+1040234293+1040003433+1039698090+1039665519+1039966316+1040318180
2591+1040451452+1040376284+1040260948+1040202781+1040191571+1040205833
2582+1040310271+1040635169+1041185447+1041740457+1042070836+1042149741
2574+1042080676+1041997661+1042050160+1042280522+1042556906+1042762793
2565+1042910514+1043028030+1043099337+1043093483+1042956785+1042706121
2557+1042526577+1042612395+1042981323+1043507437+1043952965+1044022902
2548+1043652853+1043143242+1042844563+1042899740+1043303792+1043901960
2540+1044385664+1044571000+1044552815+1044442772+1044234020+1044046131
2531+1044150133+1044571996+1044950888+1044952757+1044591240+1044049556
2523+1043487820+1043185590+1043502206+1044400611+1045275724+1045547998
2514+1045223910+1044711496+1044367168+1044361252+1044643054+1044881512
2506+1044755402+1044385228+1044183701+1044301217+1044523109+1044638508
2497+1044631844+1044579843+1044538056+1044486490+1044383173+1044282845
2489+1044234830+1044108283+1043786935+1043470133+1043493175+1043941631
2480+1044596284+1045140459+1045362413+1045254924+1044943166+1044600768
2472+1044481321+1044762252+1045215689+1045391933+1045264141+1045296151
2463+1045731341+1046199663+1046211993+1045770451+1045307983+1045185921
2455+1045432039+1045850663+1046177492+1046183969+1045846429+1045418712
2446+1045219177+1045324051+1045528692+1045626467+1045648513+1045730718
2438+1045840948+1045832603+1045726982+1045769828+1046205268+1047003781
2429+1047781742+1048117040+1047967203+1047600890+1047228849+1046970027
2421+1046951094+1047136056+1047280414+1047284151+1047357388+1047702651
2412+1048188410+1048433282+1048208961+1047713238+1047328492+1047120861
2404+1046779210+1046109361+1045427804+1045316951+1045952175+1046805242
2395+1047169188+1046879352+1046360461+1046121692+1046358468+1046902768
2387+1047435857+1047778255+1047931456+1047866812+1047499006+1046932162
2378+1046509926+1046481901+1046726275+1046925312+1046967535+1047049243
2370+1047316908+1047551069+1047426142+1047127338+1047422031+1048755253
2361+1050449182+1051315577+1050978659+1050075396+1049295816+1048738314
2353+1048159140+1047501870+1047011254+1046911860+1047194098+1047664662
2344+1048066098+1048212075+1048130368+1048058127+1048166862+1048370258
2336+1048510381+1048508761+1048235491+1047567759+1046759282+1046461474
2327+1047070915+1048185296+1048957279+1049051192+1049026904+1049480030
2319+1050186996+1050572365+1050477954+1050091464+1049635473+1049358092
2310+1049422237+1049659886+1049718675+1049483642+1049158558+1048973720
2302+1049015944+1049288342+1049664494+1049816076+1049551026+1049207009
2293+1049311136+1049870257+1050386531+1050484804+1050175288+1049667982
2285+1049255585+1049211617+1049616417+1050375571+1051352943+1052312005
2276+1052903386+1052929293+1052541308+1052113965+1051956654+1052031386
2268+1051922028+1051283566+1050316034+1049563855+1049347256+1049567467
2259+1049857801+1049784688+1049201653+1048523832+1048391557+1049063772
2251+1050364984+1051950052+1053306939+1053880259+1053549445+1052730630
2242+1051958771+1051728472+1052499583+1054160131+1055609063+1055553014
2234+1053827822+1051632690+1050412563+1050573113+1051355309+1051941458
2225+1052269782+1052589511+1052914720+1053254253+1053706383+1054148174
2217+1054334880+1054171341+1053697041+1053241299+1053295480+1053504979
2208+1052641574+1050577846+1049039111+1049291332+1050488914+1051332142
2200+1051946939+1053047743+1054259899+1054419825+1053160464+1051332889
2191+1049983850+1049588267+1050140040+1051211699+1051947935+1051647138
2183+1050356389+1048699453+1047527155+1047683594+1049299303+1051201735
2174+1051752760+1050533754+1048756997+1047837293+1047849998+1047815247
2166+1047573115+1048450221+1051243958+1054508134+1056075890+1055659756
2157+1054629076+1053816488+1053121603+1052510668+1052314994+1053041889
2149+1055064266+1057893625+1059831679+1059352397+1057076180+1055302786
2140+1055318106+1056263219+1056897072+1057174702+1057568914+1057953784
2132+1057876312+1057238722+1056262969+1055254335+1054579877+1054521088
2123+1054945691+1055298551+1055094906+1054382335+1053645476+1053376316
2115+1053777503+1054644146+1055472552+1055888561+1055922938+1055668849
2106+1055000245+1054051894+1053518307+1053832680+1054478739+1054782650
2098+1054909197+1055300295+1055727140+1055792531+1055707710+1055686286
2089+1055367803+1054617990+1053992731+1053737770+1053384287+1052939008
2081+1053352277+1055067504+1056969686+1057526192+1056533251+1055191186
2072+1054675534+1055097272+1055856676+1056572610+1057335500+1058180223
2064+1058708205+1058487746+1057691848+1057019508+1057051145+1057823875
2055+1058841727+1059338571+1058820304+1057464662+1055796392+1054262016
2047+1053363487+1053524783+1054498668+1055634846+1056717964+1057790495
2038+1058622886+1059049358+1059246152+1059397983+1059562518+1059585063
2030+1058940871+1057389432+1055687283+1054925887+1055603334+1057541014
2021+1059837657+1061153815+1061082197+1060712895+1060978194+1061356588
2013+1061154936+1060830474+1061228049+1062194585+1062551057+1061477779
2004+1059574849+1058136255+1057609892+1057267868+1056345299+1055039853
1996+1054206839+1054490572+1055780573+1057078048+1057373614+1057152282
1987+1058011079+1060472009+1063168718+1064572313+1064580907+1063882659
1979+1062734275+1061232782+1059986250+1059276793+1058335790+1056709743
1970+1055476663+1055919451+1057552597+1058526482+1057922023+1056635634
1962+1056107776+1056848247+1058015189+1058553261+1058457479+1058331929
1953+1058359331+1058319100+1057998499+1057286302+1056481436+1056326865
1945+1057100094+1058198532+1059093450+1059883867+1060536901+1060663572
1936+1060165109+1059388019+1058706586+1058269154+1058074352+1058118444
1928+1058412017+1058785553+1058877598+1058593492+1058385985+1058689273
1919+1059346418+1059847871+1059859330+1059462502+1058912349+1058364687
1911+1057860369+1057413845+1057093493+1057057746+1057411104+1057947308
1902+1058150081+1057662952+1056727803+1055967777+1055811338+1056231333
1894+1056879385+1057344966+1057329895+1056831930+1056289873+1056165818
1885+1056446935+1056802785+1056921360+1056679726+1056236066+1055925803
1877+1055954077+1056255247+1056627289+1056860827+1056891342+1056973423
1868+1057414094+1057988659+1058343512+1058622513+1059056084+1059557536
1860+1059907906+1060056249+1060138703+1060291780+1060416707+1060235606
1851+1059706751+1059149374+1058855801+1058872741+1059150993+1059578710
1843+1059959471+1060258399+1060533787+1060649498+1060388060+1059768904
1834+1059077258+1058607815+1058527478+1058782066+1058976992+1058759272
1826+1058281485+1057964994+1057935475+1057901970+1057723111+1057676154
1817+1058045829+1058716301+1059323376+1059599262+1059519672+1059374692
1809+1059540722+1060031712+1060549107+1060869708+1060972216+1060900099
1800+1060655725+1060314698+1060146177+1060377223+1060888516+1061220949
1792+1060950045+1060244200+1059617447+1059261348+1059060069+1058804859
1783+1058392213+1057916792+1057519341+1057238224+1057013156+1056804778
1775+1056694672+1056796806+1056940167+1056632769+1055693386+1054442121
1766+1053385782+1052783191+1052351240+1051565182+1050280287+1048650628
1758+1046526367+1043836196+1040929489+1037720740+1033146447+1025761976
1749+1015456849+1004407700+994424793+985497664+977213792+969543097+962536896
1740+956486332+951821177+947457816+939690966+924359914+903853038+883285630
1730+863056259+844720415+831457326+824285905+822432049+824709698+830168446
1720+839663913+856107415+879247540+900740756+915513994+925705467+933745276
1710+940850746+947744476+954950274+962174071+968235347+972955056+977616100
1700+983144286+988796092+994091238+999173959+1003372162+1006592246+1009675258
1690+1013077377+1016407255+1019255048+1022001330+1025251182+1028482787
1681+1030964704+1032990381+1034826924+1036533308+1038219639+1039910765
1673+1041412944+1042685508+1043869514+1044863825+1045508266+1046017565
1664+1046616294+1047263724+1047822471+1048347714+1048956407+1049653658
1656+1050461762+1051490325+1052567963+1053100928+1053312918+1053608857
1647+1054007055+1054326410+1054548116+1054837952+1055207129+1055553014
1639+1055816196+1056003773+1056092206+1056065178+1056031175+1056076637
1630+1056239802+1056540101+1056905168+1057201979+1057369753+1057410606
1622+1057357048+1057271480+1057159755+1056969562+1056726309+1056545955
1613+1056396491+1056115249+1055556626+1054706548+1053735030+1052813956
1605+1051999251+1051396910+1051153657+1051136219+1050886863+1050055592
1596+1048792868+1047812133+1047936811+1049334427+1051359544+1053152493
1588+1054263635+1054870336+1055523370+1056624424+1058053303+1059361863
1579+1060303239+1060988159+1061623008+1062200190+1062566128+1062712603
1571+1062735895+1062868544+1063376972+1064131019+1064762381+1065100544
1562+1065269439+1065433725+1065480931+1065158711+1064807470+1064649038
1554+1064643682+1064859658+1065263336+1065672744+1066008166+1066339728
1545+1066705293+1067105733+1067606936+1068081485+1067944352+1067340516
1537+1066987158+1066973706+1067125910+1067315107+1067569570+1067942982
1528+1068329721+1068510323+1068356749+1067964156+1067545158+1067421725
1520+1067736223+1068146378+1068336820+1068296091+1068173032+1068118602
1511+1068244028+1068550928+1068634254+1067385231+1064927166+1063035321
1503+1061320219+1058399063+1053083739+1045202362+1037282373+1033714349
1494+1035238324+1039138222+1043512357+1047719715+1051303993+1053834299
1486+1055289210+1055761392+1055239513+1053740759+1051363156+1048015654
1477+1043254842+1036458638+1026624510+1012971693+998737647+989255383+984755138
1468+983095523+983429140+985651737+988668860+991095911+992350415+990829242
1458+982000137+965999983+952869046+945815079+942627566+941911507+943390892
1448+947378787+953777852+961639612+969995040+978004707+984923908+990882800
1438+996860687+1002691414+1005890635+1005248935+1002495616+1001200695
1429+1005086517+1013986494+1024198517+1032704593+1038329558+1041442027
1421+1043214985+1044370593+1044869679+1044739832+1044241493+1043380766
1412+1041970757+1039798231+1036770956+1033126394+1029615415+1027618074
1404+1028302247+1031215493+1034951104+1038420918+1040910370+1042001459
1395+1041623813+1040036253+1037690971+1034639658+1030139973+1023018871
1387+1013082421+1002161065+992459649+985488820+982744158+984986807+990882987
1377+997765569+1003396761+1006509853+1006832136+1004694609+1000160797+993458382
1367+986014873+979632747+975168310+972826454+972538548+973698329+975321823
1357+976242461+975317837+972233517+968085882+964802588+964034590+966341509
1347+971074421+977040538+983190869+989003723+994725029+1001077823+1008151781
1337+1014787934+1019695345+1022372749+1022943702+1021935690+1020146603
1329+1018425895+1017433016+1017414084+1018044948+1018515013+1017999174
1320+1016353635+1014454877+1013560209+1014133156+1015563965+1016865861
1312+1017370988+1017068074+1016614512+1017054622+1019160886+1022717202
1303+1026634536+1029918828+1032309011+1033950129+1034906825+1035273511
1295+1035378945+1035514148+1035599530+1035258004+1034047032+1031548113
1286+1027478013+1022009924+1016094812+1011299935+1008970347+1009234588
1278+1010803527+1011759351+1010531689+1006323210+999160009+990127507+981562642
1268+976374363+976521149+981758565+989745564+997386739+1002207586+1003158802
1258+1000985092+997859669+996215749+997538196+1001877332+1008171398+1014940200
1248+1020962429+1025671488+1029061401+1031319308+1032644434+1033266205
1239+1033398045+1033200628+1032901076+1032868132+1033452475+1034779407
1231+1036653814+1038595729+1040063593+1040774420+1040773486+1040253039
1222+1039510201+1038997912+1038993117+1039060625+1038148643+1035496649
1214+1031374859+1026741777+1022185732+1017440987+1012099756+1006612174
1205+1002370377+1000862968+1002730586+1007368214+1013245711+1018732234
1197+1022794487+1025061549+1025453519+1023996865+1021016423+1017239709
1188+1013462621+1010234940+1008074246+1007693860+1009507235+1012960421
1180+1016800969+1020054682+1022488085+1024227850+1025332640+1025772003
1171+1025490450+1024321888+1022009924+1018447443+1013817599+1008448966
1163+1002661708+996785706+991127984+985773363+980438609+974555258+967629456
1153+959770125+951861595+944905588+939123624+933938147+928735668+923289625
1143+917543844+911451554+905073975+898500286+891609359+884191819+876492228
1133+869603356+865129018+864211432+866766026+871645973+877450294+883090267
1123+887841239+891235947+893040853+893340778+892633750+891657187+890919021
1113+890439116+889963321+889223099+887917528+885656071+882092655+877099365
1103+870784249+863395419+855299498+846991899+838871316+830910474+822821840
1094+814773374+807824343+803489629+802796550+805582752+810546710+816021525
1084+820728281+823829416+824637270+822689875+817938031+810412504+799857771
1074+786405859+771880545+759834407+753556844+753841262+758738522+765319249
1064+771591643+777106938+782370634+788066034+794699010+802489962+811287991
1054+820638789+830059337+839265404+848204926+856963285+865641182+874275548
1044+882844710+891312859+899643937+907707661+915067158+920799799+923505601
1034+921644459+914432371+902976119+890316742+879592678+871830997+865844765
1024+860351267+855686299+853229604+853901571+857940532+865541415+876531712
1014+889434840+901818705+911857848+919113219+923777439+925817129+925292821
1004+923163079+921031344+919929232+919853316+920515692+921753257+923073027
994+923839093+924484841+926848619+932655868+941870218+952755703+963261050
984+972141285+979065468+984075013+987059441+987686008+985749262+981519422
975+975868302+970280392+966604317+966256813+969365172+974763574+980849449
965+986356772+990473455+992548019+991879478+987856895+980425655+970607594
955+960664295+953512241+951346877+954220515+959805249+964840140+967271738
945+967414103+967309664+968978184+973007119+978453536+983816938+988091243
935+991166907+993547188+995696609+997475733+998133936+996842378+993221605
925+987688499+981817479+978151431+978724440+983272078+989075030+992679050
915+991828037+986281168+977633039+968734931+962769001+961897936+966175791
905+973695963+981816669+988245378+991232422+989371529+982165357+971588454
895+962513666+959707225+963579347+969879641+974120690+975512390+976476372
885+979418888+984472401+989803108+993504840+994965169+994574818+992744876
875+989634275+985538766+981070656+976906580+973542948+971282114+970277963
866+970463423+971445217+972534812+973072759+972941417+972599580+972345553
856+971837063+970657353+968911797+966982524+965294138+964589975+965805431
846+969400857+975104975+982119708+989256878+995318216+999847794+1003302785
836+1006219021+1008487577+1009674635+1009755844+1009188876+1008480229
827+1008162679+1009098388+1012130209+1017217725+1023342398+1029399875
819+1034817271+1039369518+1042995958+1045939595+1048571661+1050917877
810+1052672339+1053645476+1053813997+1053049113+1051348583+1049440671
802+1048677158+1050010380+1053173542+1056879136+1059597518+1060183169
793+1058377516+1055299049+1053188987+1053947892+1057605533+1062365970
785+1066206331+1068320628+1069137202+1069443603+1069834577+1070632592
776+1071766403+1072776657+1073311615+1073527715+1073732980+1073741823
768+1072771675+1069851890+1064120432+1054722989+1040868271+1022416156
759+1000133270+975066363+948558807+923750224+905798254+898604101+901353933
749+909193772+916772670+920646972+919611247+914395441+907147668+900403216
739+896077532+895099226+897496571+902586578+909306742+916628811+923783356
730+930506883+937410950+945629556+955593843+966463198+976935913+986136188
720+993769952+1000064828+1005541138+1010387144+1014071315+1015675316+1014320858
710+1009061832+998543718+980685162+952696353+912919356+864677200+818060530
700+785646394+774946805+785215687+811024311+846508755+885970880+923642548
690+955258046+979495177+997145105+1009383305+1017245812+1022024372+1025274910
680+1028194570+1031129364+1033853351+1036239984+1038374272+1040155451
671+1041365613+1042286064+1044039717+1047324631+1050884123+1053658803
663+1055603832+1056719209+1056987124+1056673996+1056202685+1055759150
654+1055070120+1053573982+1050817736+1046595618+1040698131+1032935204
646+1024007888+1016423198+1013640795+1017387616+1025920346+1035356899
637+1042626656+1046988710+1049285229+1050597899+1051563936+1052235654
629+1052242504+1051327409+1049833015+1048381966+1047102676+1045735825
620+1044482256+1044017671+1044531454+1045346346+1045742551+1045645648
612+1045208714+1044019726+1040869641+1034512302+1025262392+1016073887
603+1011283058+1013469534+1021449433+1031398275+1039839022+1045450473
595+1048538032+1049889438+1050270198+1050209914+1049819937+1048812049
586+1046579053+1042386579+1036223668+1029934957+1026844472+1029187138
578+1036114372+1044740704+1052409282+1057932984+1061682670+1064806473
569+1067909228+1070402541+1071531121+1071453649+1070634211+1069071313
561+1066728833+1064053672+1061848450+1060882413+1061252212+1062064924
552+1062388764+1062297840+1062383408+1062750966+1063062599+1063144306
544+1063184038+1063501027+1064181090+1064960546+1065449419+1065241664
535+1064011572+1062007007+1060100341+1058844093+1057750264+1055539189
527+1050922735+1044004281+1037096913+1032613295+1030653445+1029347189
518+1026479903+1020701800+1011697572+999825872+986258748+972870671+960751856
509+949329358+938325049+929441576+924406248+922704348+922189506+921004254
499+918417463+914322515+908738030+901671233+893208129+883978521+875445791
489+869251492+866156959+865423836+865371461+865487981+867499646+873272829
479+882551822+893255334+903595898+913440426+922892175+929919799+931518445
469+927353373+920441147+915191089+914460956+917883252+922713627+925519072
459+923625920+916923069+909019833+903935368+903221116+906811871+913258266
449+920361495+926621309+931512653+935486348+939561492+943841527+947680206
439+951903943+958350774+966923050+974858297+979555524+980616658+979539207
429+979019009+981251383+986236329+992027884+996301940+998480756+1000837185
419+1006514773+1013303815+1015390462+1013170792+1009649102+1006506241
411+1004365913+1003000120+1000964105+996209521+988365261+980028018+974803991
401+974596423+978442326+982084273+982103703+981617820+984119042+988982175
391+994119263+998377065+1001798427+1005078546+1008623154+1010211897+1005692969
381+995404469+985320673+981854596+987566437+998338017+1005363649
##END=
