##TITLE=X9479
##JCAMP-DX=4.24
##DATA TYPE=INFRARED SPECTRUM
##DATE=5/11/2018
##SAMPLING PROCEDURE=ATR platinum Diamond 1 Refl
##ORIGIN=ComPlat
##XUNITS=1/CM
##YUNITS=TRANSMITTANCE
##RESOLUTION=4
##FIRSTX=3997.453
##LASTX=373.96442
##DELTAX=-1.4165319
##MAXY=0.95432758
##MINY=0.42077431
##XFACTOR=1
##YFACTOR=8.8878682e-010
##NPOINTS=2559
##FIRSTY=0.95432758
##XYDATA=(X++(Y..Y))
3997+1073741823+1073192779+1072736751+1072578013+1072693629+1072949877
3989+1073224902+1073426761+1073484972+1073388133+1073240461+1073171118
3980+1073120552+1072835803+1072184018+1071360351+1070702531+1070390018
3972+1070409600+1070694350+1071183305+1071774398+1072206954+1072093014
3963+1071379330+1070703202+1070731637+1071222403+1071434791+1071176063
3955+1070667860+1069731527+1067960529+1065736186+1064475269+1065186069
3946+1066890540+1067706897+1067298216+1067075634+1068011229+1069499422
3938+1070580879+1070648411+1069197505+1066288651+1063343515+1062329658
3929+1063465905+1064969858+1065335016+1064817223+1064721323+1065329248
3921+1065462637+1064356031+1062986271+1063257876+1065729815+1068966943
3912+1071393212+1072496666+1072166045+1069825281+1064876641+1057956015
3904+1051500873+1048101923+1048232293+1051066842+1055705517+1060395161
3895+1062845439+1061996825+1059359374+1058467504+1060508497+1062446347
3887+1061755264+1059228534+1057126111+1055740658+1054789974+1056085496
3878+1060050726+1063168347+1062493828+1058595594+1054083466+1050797651
3870+1049756902+1051147384+1052619416+1051798901+1049876005+1050535502
3861+1054564240+1058714363+1060201684+1058394271+1053351877+1045768468
3853+1040831162+1044418827+1052622635+1059924647+1064218955+1064856052
3844+1061932444+1056447233+1049983776+1044145277+1040841422+1041708345
3836+1045725749+1050208436+1053974087+1057142676+1059492091+1060337487
3827+1059698779+1058476222+1056785901+1053291118+1048010583+1044860503
3819+1046289346+1049508434+1052933203+1057567989+1062758861+1066182825
3810+1066504057+1063785125+1059675240+1056793345+1055217970+1052510707
3802+1048823922+1048001597+1051067647+1054972318+1058574536+1062518909
3793+1066337271+1068947897+1070231213+1070557005+1069877121+1068258289
3785+1066670037+1065849321+1064951282+1063166335+1061919434+1063357464
3776+1066834878+1069679084+1070023184+1067581892+1063686810+1060740937
3768+1059928671+1060485159+1061767536+1063219583+1063236282+1060638733
3759+1056807764+1054708694+1054695281+1053941025+1049887272+1042423101
3751+1035525679+1034400028+1037120100+1038651147+1038445465+1039987912
3742+1044621089+1048723462+1049232268+1045312910+1038379274+1033285174
3734+1035253873+1043138864+1051403632+1056444148+1057463706+1055300122
3725+1052148634+1050642803+1051911634+1055249020+1059171665+1062257364
3717+1063632758+1062808353+1059247580+1053130703+1047674799+1047820326
3708+1053455422+1060134085+1064353952+1064862557+1062752087+1061231368
3700+1062501406+1065109751+1066695320+1066476963+1064324847+1059621322
3691+1052424799+1045901387+1045285481+1050716907+1057181505+1061726829
3683+1063851182+1063402598+1060350229+1054780384+1046795135+1038909675
3674+1036602442+1039273022+1041181431+1041643562+1045468093+1053930295
3666+1062301894+1067104471+1068264324+1067434488+1065792720+1063153861
3657+1059489543+1056341743+1054606088+1051931887+1045137876+1034207423
3649+1026082616+1029040963+1039459658+1049469202+1056115875+1059732378
3640+1061440269+1061843385+1060912350+1058798996+1056248258+1053806429
3632+1050694710+1045557757+1040093335+1040107553+1045983137+1051765168
3623+1053802741+1051431731+1045828490+1040384187+1038585895+1039577085
3615+1040486123+1041070643+1042598940+1044488639+1045216809+1045684774
3606+1048105343+1051790719+1053811929+1052838510+1050437389+1048984471
3598+1048796225+1048675177+1048443139+1049015052+1050073238+1049584952
3589+1046210078+1041809073+1040892524+1044572133+1049176204+1051970582
3581+1052747036+1052269481+1051377947+1050899520+1051419258+1052702708
3572+1053385878+1051506104+1045743454+1037275418+1031264367+1032439444
3564+1038516418+1044509496+1048448102+1050927083+1052707201+1053403649
3555+1052282424+1049734704+1047424319+1046590861+1046491407+1045566139
3547+1043751283+1042882818+1044524585+1047944996+1051026671+1052239638
3538+1051623732+1050528327+1050198578+1050461666+1050212594+1048839682
3530+1046733504+1044779156+1043585704+1043211024+1043594489+1044763195
3521+1046422131+1047910592+1048813125+1049229586+1049382020+1049182172
3513+1048356292+1047051717+1046126517+1046293236+1046929797+1046615272
3504+1044924146+1043112911+1042757947+1043868441+1045120708+1045625758
3496+1045716025+1046098753+1046724115+1046934961+1046423405+1045551386
3488+1044871569+1044569719+1044334328+1043806341+1043235636+1043369292
3479+1044372755+1045372931+1045453273+1044595404+1043410938+1042364153
3471+1041577371+1041058840+1040826266+1040934908+1041389326+1041947089
3462+1042220571+1042127689+1042039233+1042311106+1042814615+1043075288
3454+1042809853+1042041178+1040717557+1038784871+1036756016+1035483966
3445+1035126118+1035167362+1035431389+1036071169+1036807319+1037058939
3437+1036669438+1035972788+1035361442+1035049801+1035044302+1035182787
3428+1035285795+1035240193+1034901994+1034072090+1032743708+1031363352
3420+1030616874+1030786275+1031450735+1031886845+1031661648+1030888546
3411+1029999560+1029313372+1028882426+1028580576+1028094973+1026994068
3403+1025155404+1022963385+1020871625+1019049660+1017504463+1016176416
3394+1014937831+1013777441+1012826421+1012031458+1011064544+1009705984
3386+1008163134+1006891353+1006111008+1005593283+1005017614+1004384540
3377+1003915770+1003739730+1003855816+1004208299+1004645885+1005000044
3369+1005281909+1005621114+1006013767+1006370475+1006810475+1007561579
3360+1008532583+1009393403+1010128815+1011053278+1012199718+1013132228
3352+1013481559+1013371039+1013242212+1013405376+1013828275+1014318907
3343+1014724705+1014873316+1014634639+1014163455+1013754908+1013428043
3335+1013010040+1012536173+1012216887+1012098789+1011981965+1011651814
3326+1011146026+1010724334+1010498801+1010301703+1010039152+1009860094
3318+1009818649+1009666886+1009099131+1008019217+1006601372+1005228796
3309+1004280123+1003838983+1003635447+1003360355+1003008409+1002801252
3301+1002804203+1002810104+1002611262+1002200033+1001749772+1001554217
3292+1001843660+1002498731+1003097133+1003356197+1003416755+1003613853
3284+1004009860+1004278983+1004139828+1003745632+1003445794+1003341779
3275+1003313478+1003346943+1003609762+1004185632+1004842312+1005243885
3267+1005446482+1005863077+1006580046+1007140357+1007214462+1007010389
3258+1006825497+1006654822+1006456584+1006464296+1006962037+1007844920
3250+1008645249+1009055808+1009236074+1009453961+1009660112+1009670574
3241+1009573870+1009677146+1010121103+1010740295+1011257887+1011532845
3233+1011623782+1011667976+1011708013+1011674817+1011567114+1011537673
3224+1011678237+1011835030+1011814911+1011668178+1011588574+1011662611
3216+1011859575+1012122596+1012378642+1012601828+1012907433+1013426836
3207+1014054679+1014433048+1014259087+1013587787+1012816429+1012403992
3199+1012615441+1013362925+1014163723+1014487168+1014330509+1014200675
3190+1014380940+1014600169+1014618544+1014668774+1015027091+1015538580
3182+1015842912+1015807301+1015662110+1015900452+1016891977+1018370111
3173+1019601252+1020233186+1020553680+1020773445+1020698066+1020355375
3165+1020272820+1020804495+1021697170+1022529153+1023120916+1023393258
3156+1023276301+1022947089+1022900011+1023572853+1024891511+1026241220
3148+1026997555+1027119610+1027070319+1027152001+1027226240+1027188215
3139+1027336424+1027972852+1028860832+1029411687+1029361054+1029005688
3131+1028758896+1028731199+1028808791+1028847821+1028701960+1028341295
3122+1028024490+1028060100+1028362755+1028557976+1028544764+1028619942
3114+1028987111+1029450717+1029730973+1029844108+1029971058+1030085132
3105+1029972802+1029616363+1029269312+1029089785+1028955189+1028749843
3097+1028572998+1028509422+1028437799+1028244188+1028025898+1027904783
3088+1027810358+1027581204+1027112837+1026356434+1025416614+1024697163
3080+1024651024+1025289530+1026145454+1026754788+1026994001+1026933175
3071+1026540589+1025719805+1024662022+1023933249+1023961416+1024539431
3063+1025073654+1025210731+1025014907+1024724994+1024575578+1024687305
3054+1024930139+1025007664+1024786960+1024436623+1024205726+1024181248
3046+1024259175+1024256627+1024128536+1024097084+1024382168+1024796483
3037+1024873538+1024391758+1023515447+1022539145+1021768994+1021452994
3029+1021507717+1021513820+1021184474+1020630266+1020012214+1019152266
3020+1017682448+1015439260+1012535502+1009103088+1005144028+1000677771
3012+995925491+991280311+987131463+983768860+981417098+980227603+980128953
3002+980740701+981552565+982114820+981964868+980564326+977515578+972737814
2992+966301986+958200047+948316112+936595256+923372057+909532616+896141021
2982+883951865+873428150+864956291+858760750+854778621+852729647+852238612
2972+853115393+855698657+860533491+867475577+875486981+883456807+890889189
2962+897791038+904257647+910185809+915210498+918993518+921607765+923470102
2952+924871114+925710205+925710541+924803313+923243765+921359699+919264586
2942+916879963+914182759+911334060+908578176+906133397+904226597+903121601
2932+903015441+903963710+905933349+908794186+912232033+915840890+919344324
2922+922605863+925508547+928011872+930252847+932429709+934634403+936847748
2912+939009991+941061177+943026792+945110571+947633948+950779534+954367267
2902+957926028+960994961+963320570+964857853+965737987+966221108+966513167
2893+966601824+966350137+965710759+964778115+963698201+962587035+961464134
2883+960263573+958977373+957712701+956509726+955270872+954032757+953134583
2873+952925883+953437238+954497100+956036664+958071689+960480321+963055470
2863+965761258+968706192+971876055+975063288+977988506+980411556+982306822
2853+983988693+985856596+988046469+990456375+992905581+995174655+997169307
2843+999020311+1000763947+1002171128+1003202556+1004257389+1005656657
2834+1007215736+1008524469+1009399104+1009977454+1010531662+1011193573
2826+1011830135+1012245724+1012444029+1012623958+1013004608+1013689722
2817+1014580318+1015415721+1016025189+1016524808+1017175184+1018090526
2809+1019178890+1020286099+1021275277+1022042008+1022590582+1023055328
2800+1023554679+1024052688+1024420931+1024625808+1024805604+1025116373
2792+1025524116+1025874520+1026135596+1026380644+1026585722+1026679878
2783+1026729773+1026851291+1027022570+1027147240+1027205048+1027248438
2775+1027333004+1027465789+1027598909+1027716537+1027888755+1028149831
2766+1028416674+1028638920+1028911531+1029296808+1029644596+1029755854
2758+1029668001+1029603017+1029662703+1029761822+1029833445+1029902855
2749+1029989165+1030127852+1030434732+1030967077+1031582111+1032062818
2741+1032333283+1032505501+1032793871+1033327491+1033949634+1034310969
2732+1034243369+1033920059+1033604662+1033402802+1033303751+1033308512
2724+1033434657+1033651941+1033868018+1034015825+1034136538+1034290246
2715+1034396943+1034302653+1034020586+1033771582+1033742141+1033927436
2707+1034214666+1034486741+1034611276+1034469438+1034106226+1033776142
2698+1033729198+1033972234+1034316468+1034610405+1034827957+1034963826
2690+1034982671+1034897032+1034784768+1034667945+1034454014+1034100056
2681+1033767357+1033684131+1033875864+1034144787+1034300976+1034322369
2673+1034306274+1034348390+1034474669+1034658086+1034894148+1035227518
2664+1035666109+1036094306+1036338348+1036348340+1036288118+1036397095
2656+1036722149+1037033723+1037093342+1036949627+1036825091+1036766008
2647+1036620079+1036345658+1036110468+1036066005+1036215824+1036526728
2639+1037003679+1037608184+1038196527+1038605745+1038786882+1038768507
2630+1038521045+1038038863+1037563185+1037437174+1037677930+1037947322
2622+1037980786+1037815275+1037620658+1037541926+1037688727+1038094391
2614+1038661810+1039212061+1039589894+1039745480+1039755137+1039738505
2605+1039737634+1039744742+1039831656+1040104468+1040492091+1040749345
2597+1040731976+1040529781+1040328793+1040286812+1040462852+1040724196
2588+1040819761+1040651366+1040346028+1040057524+1039849293+1039749235
2580+1039794771+1040049208+1040584772+1041374103+1042196898+1042723409
2571+1042720727+1042228552+1041550546+1041048781+1040952545+1041319447
2563+1041981157+1042492377+1042422967+1041809207+1041131671+1040816542
2554+1040945571+1041363172+1041842068+1042181071+1042311978+1042292396
2546+1042173426+1041995307+1041880965+1041939175+1042072362+1042030180
2537+1041682727+1041185455+1040868314+1040947985+1041357673+1041871844
2529+1042306144+1042535298+1042492847+1042299303+1042266040+1042598739
2520+1043135511+1043476258+1043382571+1042982071+1042577614+1042386083
2512+1042482318+1042783296+1043039007+1043057651+1042955044+1042990051
2503+1043177291+1043213974+1042859144+1042393594+1042478562+1043327914
2495+1044336541+1044866740+1044953386+1044877537+1044660321+1044317361
2486+1044021949+1043811371+1043611389+1043545466+1043831289+1044443573
2478+1045085969+1045430337+1045348990+1044980613+1044547051+1044153660
2469+1043833233+1043648877+1043628960+1043640763+1043421869+1042836410
2461+1042111728+1041685409+1041778694+1042233179+1042697053+1042888585
2452+1042845732+1042935328+1043363189+1043753965+1043542784+1042720324
2444+1041900145+1041672801+1042050902+1042549917+1042739370+1042613359
2435+1042417267+1042303998+1042240623+1042096438+1041802635+1041514533
2427+1041475368+1041647519+1041731280+1041635648+1041620291+1041848171
2418+1042086512+1042038630+1041763403+1041517282+1041300468+1040867711
2410+1040150272+1039393668+1038865614+1038654567+1038750065+1039092287
2401+1039497951+1039705779+1039621011+1039436990+1039389443+1039450470
2393+1039432765+1039335189+1039357588+1039588754+1039874174+1040003940
2384+1039914948+1039713893+1039583858+1039705577+1040186016+1040955429
2376+1041828790+1042828094+1044239501+1046083798+1047889937+1049360023
2367+1050735551+1052137703+1053195017+1053679882+1053894684+1054135105
2359+1054157571+1053380580+1051529040+1048920359+1046210346+1044099339
2350+1043119416+1043446549+1044858693+1046758921+1048337783+1049119871
2342+1049319584+1049377728+1049372162+1049110549+1048621124+1048183538
2333+1047903148+1047658167+1047384886+1047046822+1046525273+1045872416
2325+1045370115+1045157324+1045077854+1044971157+1044791898+1044493267
2316+1044073788+1043530847+1042662449+1041348016+1040091592+1039700347
2308+1040334963+1041324611+1041904101+1041818730+1041317770+1040801319
2299+1040431936+1040094341+1039787528+1039809056+1040333957+1041053475
2291+1041467857+1041404483+1041116447+1040966092+1041134219+1041629881
2282+1042447177+1043530511+1044614248+1045326121+1045491163+1045279915
2274+1045119903+1045393519+1045985149+1046257558+1045810584+1045110112
2265+1044935949+1045334974+1045579552+1045127280+1044243323+1043626143
2257+1043651627+1044110740+1044603451+1044998116+1045327530+1045382320
2248+1044783180+1043544863+1042249341+1041469198+1041192698+1041004586
2240+1040825797+1041323538+1043261455+1046297796+1048868452+1049627470
2231+1048545209+1046459686+1044390459+1043427570+1044107051+1045589209
2223+1046518299+1046741887+1047040518+1047392196+1046939253+1045583978
2214+1044297041+1043763220+1043660815+1043373584+1042759690+1042124805
2206+1041957416+1042722604+1044331243+1045780942+1046031690+1045352812
2197+1044980345+1045422692+1046096808+1046522792+1046839933+1047278927
2189+1047928297+1048678127+1048934308+1048181594+1047131120+1047159890
2180+1048324035+1049281493+1049291016+1048871470+1048569955+1048443743
2172+1048571095+1048830629+1048499271+1047168474+1045761896+1045661905
2163+1047023886+1048716219+1049611308+1049475640+1049004322+1049045766
2155+1049573418+1049768571+1049075542+1047730864+1046231471+1044683524
2146+1042915276+1041161111+1040349650+1041239441+1043131822+1044112551
2138+1043089908+1041012097+1039580907+1039448056+1040097896+1040722050
2129+1040699249+1039813012+1038449757+1037388285+1037194674+1037780469
2121+1038537006+1038918527+1038861792+1038553302+1037997418+1037198899
2112+1036578165+1036608477+1037017695+1036990736+1036317089+1035712517
2104+1035792791+1036321582+1036747432+1036942719+1037102664+1037352071
2095+1037755320+1038445264+1039466565+1040602678+1041540218+1042131713
2087+1042312045+1041946820+1041125031+1040399410+1040251134+1040494506
2078+1040671284+1040762757+1041101626+1041902492+1043102248+1044238964
2070+1044394215+1042837148+1039954113+1037320015+1036476699+1037446160
2061+1038769379+1039250488+1039162301+1039379719+1040065839+1040854969
2053+1041524123+1041766421+1041159770+1040196545+1040358972+1042116423
2044+1044060040+1044982223+1045369578+1046017607+1046740277+1047290059
2036+1047962097+1048692881+1049058307+1049279883+1049823026+1050464147
2027+1050856667+1051051551+1050809387+1049611778+1047579436+1045318946
2019+1043135645+1041191155+1039883764+1039523904+1040060542+1041214091
2010+1042710332+1044481866+1046286529+1047059228+1045755056+1042998501
2002+1040604221+1039575274+1039677210+1040527232+1041828924+1042855724
1993+1042841507+1041740937+1040252543+1039650116+1041478989+1046010498
1985+1050932984+1053215203+1052363369+1050313591+1048341606+1045964292
1976+1043105869+1041221803+1041280617+1042265436+1042425583+1041233673
1968+1039853652+1039953911+1041937566+1044474757+1045856589+1045511014
1959+1044180016+1042884226+1042068338+1041658986+1041510710+1041597288
1951+1041815511+1041780169+1040990436+1039200124+1036755479+1034770484
1942+1034459178+1035657592+1036910931+1037303920+1037138677+1037071279
1934+1037335305+1037748011+1038023237+1038027059+1037677997+1036622829
1925+1034653593+1032621788+1031874774+1032358700+1032744177+1032538831
1917+1032631378+1033488643+1034217282+1033805314+1032424220+1031407949
1908+1031876517+1033601108+1035534196+1036861640+1037220896+1036555565
1900+1035167832+1033661598+1032700318+1032696160+1033310926+1033508494
1891+1032763156+1031957798+1032329594+1033739525+1035170179+1036156809
1883+1036728721+1036819390+1036463890+1036077138+1035943347+1035738537
1874+1034846533+1032803931+1029422752+1025459333+1023410427+1025330103
1866+1029719237+1033524522+1035278485+1035343671+1034738159+1034262683
1857+1034284479+1034707378+1035122967+1035116730+1034400028+1032867171
1849+1030627940+1027849858+1025020943+1023664662+1025072313+1027940393
1840+1030092979+1030904239+1031049363+1031254576+1031258935+1029992787
1832+1027084603+1024170249+1023383132+1024246232+1025105040+1026069337
1823+1028040116+1030552159+1032377008+1033059507+1033045357+1032754639
1815+1031902873+1030061057+1027757714+1026474733+1027051742+1028690760
1806+1029852558+1029310287+1026755458+1023308759+1020982749+1020625639
1798+1021086227+1020747559+1018715150+1015522150+1013952274+1016321808
1789+1020563538+1023292798+1023497541+1022242459+1020732470+1019301414
1781+1018207886+1017712693+1017028182+1014651874+1009770699+1003346473
1772+998574141+997989353+1000154144+1002440654+1003403410+1002080929+997978488
1762+992338966+987769164+984789491+981698494+977803546+973254534+966927214
1752+957108665+944130312+931409414+921496441+912607384+901540727+886746243
1742+867626402+842858051+813142335+782958720+752729838+714839218+665787181
1732+620166217+587948785+562762968+540544049+522052352+507752390+497860173
1723+492673627+491354398+493418931+501111685+518052116+542757662+569410581
1713+595229271+620122023+643883826+666443056+689432093+713721950+736001796
1703+753926978+770709610+789769027+808506208+825766327+844324583+861797561
1693+873638861+879897308+882717907+883327912+881252918+875328981+867891099
1683+865551408+867744567+869142896+867597833+862801425+855433088+847791066
1673+841296894+834828943+828702007+826316578+827879010+829249978+828207283
1663+826213972+826269500+828537971+830270139+829341452+825062233+818638075
1653+816687885+823099972+829171715+831460707+834271113+843265190+856175877
1643+866973343+874139218+877978637+878581667+877171870+878446670+886759186
1633+897489791+904839016+908100554+908764879+908603928+908312071+907723057
1623+907745523+909512162+911497694+911116106+908182170+906129776+907561033
1613+909944047+910449500+908768568+906190937+904132776+902897075+901863836
1604+900609089+899375869+898484401+897694400+896513623+894938650+893554270
1594+892872173+892878008+893375816+894297663+895454766+896451523+897067898
1584+897430172+897578582+896937997+894498717+890024145+886026993+886345475
1574+889185456+889771452+886946560+883646796+883266750+884766210+885485862
1564+884460068+880928132+872833637+859973583+853031162+858501082+866361193
1554+871940694+875263595+877085359+878555446+879800670+879150428+875174066
1544+868471059+861192787+857305485+863354426+876625442+886849855+891577926
1534+893908362+897816387+903243589+906725295+906887654+905313620+904031109
1524+902988146+901830908+902335557+905269627+908712168+912677465+918678524
1514+925277247+928904346+927440362+920863232+911502053+908011025+919023965
1504+933825088+942450118+944934397+943243539+939708518+937598249+938834956
1494+940917462+939862964+933916964+925057884+918916463+918001792+918326980
1485+916030611+910473509+903255794+896477878+890742389+885064439+878689773
1475+872568604+869969178+873822010+881245273+886770855+887910925+885052904
1465+880608577+876555428+871642666+863374813+851147566+840349093+841305545
1455+851972104+863103745+871635356+877753910+882793018+888859128+896661832
1445+904503768+910565653+914165658+915078921+913151868+909110522+905875339
1435+906040314+907859597+908755491+908759246+909410360+910734115+910942547
1425+909243843+906694848+903964381+900106318+895276781+892828314+894347088
1415+896895748+898060027+898154586+898841779+900872847+903276919+904925057
1405+905917186+906504993+905199948+899395585+887409630+869400954+846446119
1395+821366328+801784357+794915436+799579596+809883479+821148642+830628389
1385+836691682+838678287+836761696+831593291+823746325+813032016+798083154
1375+776667145+747731638+713414869+676527107+638810851+604929789+582868501
1366+577614657+589067663+613676806+643747085+671440586+694339222+713337344
1356+729296040+742553978+753206320+761442989+767860307+773251697+778249830
1346+783123896+787504379+790679742+792824951+795760295+801578138+810121552
1336+819141516+826718352+832307645+836214999+838883768+840638738+841703630
1326+842186416+842095948+841468172+840563628+840020954+840590117+842461240
1316+845181715+848388396+852086044+856150661+860112672+863549110+866349188
1306+868553748+870118326+870915369+870934616+870381950+869557345+868697866
1296+867887679+866996949+865735227+863897234+861584636+859093449+856560214
1286+853833972+850739823+847267841+843456588+839327121+835005720+830691026
1276+826445742+822176784+817852298+813654025+809873956+806580429+803355909
1266+799372103+793647142+785306929+774040290+760658420+747028752+735098995
1256+725927939+719477625+714926735+711223386+707739534+704571616+702222737
1247+701029419+700825682+700979122+700693903+699413270+697084979+694113421
1237+691097601+688640617+687323568+687652377+689899522+694039316+699870035
1227+707133621+715430579+723944217+731292034+735994889+737571069+737223079
1217+737019007+738227078+740717527+743864253+747481024+751788677+756923082
1207+762759032+769089369+775763874+782560769+789030329+794658384+799125379
1197+802248633+803828636+803753123+802071654+798767464+793605429+786314616
1187+776793357+765125414+751534777+736282924+719503847+701250861+681803082
1177+661805521+642042949+623132478+605350408+588641478+572846080+557946777
1167+544067669+531345932+519874953+509673676+500719870+493119629+487137247
1157+482915334+480285126+478917512+478471476+478519527+478531766+478069300
1147+476966115+475392919+473906771+473425460+474937797+479080508+485996372
1137+495565112+507606897+521794696+537543486+554156649+571066432+587898824
1128+604416087+620496771+636122499+651282275+665878655+679769399+692876512
1118+705202410+716765466+727571316+737617878+746878866+755329264+763023997
1108+770089144+776597601+782515166+787809918+792548719+796826126+800638318
1098+803871221+806400700+808209790+809442674+810318047+810963527+811371002
1088+811472200+811158613+810345543+809214124+808286308+808062721+808667092
1078+809949335+811795510+814221176+817232234+820674507+824264520+827794578
1068+831205935+834410202+837249914+839729968+842040152+844233110+846124150
1058+847535154+848339574+848235693+846792834+843810211+839446694+833992869
1048+827724632+821010157+814396747+808515597+803950891+801182467+800521830
1038+801964353+805058570+809034194+813219189+817373670+821572413+825818167
1028+829901628+833631534+837034039+840270697+843483346+846760711+850143499
1018+853608909+857117306+860654406+864163675+867510048+870599637+873423388
1009+875917458+877959457+879590696+881023562+882333570+883350981+883920748
999+884091490+884046290+883991298+884081095+884332179+884641674+884942653
989+885249868+885503098+885493776+885077516+884390926+883724656+883192042
979+882596658+881560133+879713220+876904692+873324135+869313034+865054404
969+860612559+856190899+852095366+848457403+845172058+842017082+838685933
959+834826595+830240631+825052710+819687341+814708791+810598504+807602535
949+805807931+805303551+806088925+807825117+809888978+811789273+813440228
939+814917826+816022620+816274308+815379085+813470541+810739202+807026867
929+802027996+795810324+788963535+782260193+776322240+771620794+768559572
919+767276055+767409309+768351946+769774082+771732923+774305054+777281508
909+780220876+782755385+784835946+786609022+788080919+789074457+789489442
899+789440620+789195438+789050046+789158688+789463623+789879346+790465409
890+791329649+792442893+793594565+794550145+795333507+796287007+797714643
880+799558806+801548161+803508008+805395494+807124309+808467579+809182537
870+809255234+808970753+808694520+808597011+808555164+808243321+807293106
860+805333930+801881665+796301292+787975295+776534427+761986198+744747003
850+725725610+706527640+689374553+676355426+668617303+666305041+668934712
840+675513183+684613689+694817246+705189064+715296788+724860833+733517450
830+740967537+747227795+752573984+757338805+761884330+766485517+771026080
820+775104713+778579578+781683586+784576278+787149617+789330905+791319120
810+793450782+795911053+798584650+801161610+803368986+805085864+806246254
800+806738094+806571979+806144587+806066593+806640987+807740014+809177038
790+810898007+812829822+814811732+816670448+818286799+819675001+820942424
781+822052650+822854119+823476061+824398445+826017478+828383391+831235979
771+833919569+835448470+835145748+833164374+830127295+826530643+822826422
761+819641872+817250945+814912461+811265445+805594403+798767933+793218275
751+791931471+796643648+806440804+818376797+829634651+838871160+845870652
741+850848666+854323666+857002293+859343862+861343075+862823422+863766997
731+864265275+864358358+864199419+864273859+865069896+866503903+868020396
721+869267499+870311199+871173025+871612823+871567690+871481916+871874168
711+872651024+873224077+873349887+873438746+873921800+874741242+875615273
701+876376035+876904625+877117549+877152489+877341405+877924987+878866282
691+879896168+880707897+881175259+881365248+881346739+881176131+881113561
681+881495082+882216478+882742452+882862428+883002858+883583623+884583464
671+885917547+887621012+889154607+889328568+888352266+887413922+886970904
662+887069285+887769489+889003447+890360465+891334286+891829412+892116307
652+892164860+891510595+890162227+889086002+889129660+889917850+890517661
642+890775786+891173201+891637880+891499864+890634417+889810013+889764947
632+890547973+891740553+892787137+893290445+893392179+893596117+894073538
622+894631234+895272020+896053840+896465204+895727444+893828759+891623931
612+889869431+888647812+887713156+886948371+886292428+885522211+884384421
602+882835469+881015045+879087322+877128548+875022906+872467741+869304719
592+866086100+864138727+864541574+867153675+871010196+875213834+879094699
582+882101465+884282955+886539756+889595412+892965860+895562939+897038122
572+897895924+898537314+898832391+898604108+898260880+898672177+900337685
562+902959913+905874937+908432046+909839093+909423370+907560362+905715059
552+905009356+905142677+905065688+904375745+903727850+904031109+905550486
543+907824791+910202440+912238739+913627880+914066472+913535736+912612414
533+911979071+911532097+910512338+908697146+907003203+906430151+906506737
523+905832352+904181061+902998809+903603113+905345877+906502847+906454495
513+905710163+904846393+904386341+904692684+905173861+904522412+902534398
503+900892094+901487948+904330209+907858993+910645927+911940175+911586418
493+910166159+908630619+907331745+905944749+904370045+902901098+901722467
483+900983099+900851521+900884382+900195914+898528394+896174888+892995636
473+888746462+884225884+880846315+879366639+879679957+880866166+881792707
463+882081950+881583806+879868135+878113434+879771833+885690270+892102961
453+896768060+901056466+905602326+908223950+907365142+904718638+903065671
443+903207107+904180123+904972672+905108340+904504372+903125692+900407766
433+895501576+888719503+882387019+879548312+881315689+885788115+889682392
424+890951960+889525800+885765113+881942593+884791828+896132035+908851659
414+916381484+917910854+918473445+922428213+928145260+932005067+933332578
404+932427228+928353222+921270573+914113215+910757855+912251280+916750263
394+923365417+932067167+941615117+949141321+951998872+949849237+944610885
384+938958285+935022966+934542124+939150555+949129719+961312504+967952740
374+965319179
##END=
