##TITLE=CZ- 155
##JCAMP-DX=5.0
##DATA TYPE=LINK
##BLOCKS=1


$$ === CHEMSPECTRA SPECTRUM ORIG ===
##TITLE=CZ- 155
##JCAMP-DX=5.00
##DATA TYPE=INFRARED SPECTRUM
##DATA CLASS=XYDATA
##ORIGIN=Fabienne
##OWNER=
##XUNITS=1/CM
##YUNITS=TRANSMITTANCE
##XFACTOR=1
##YFACTOR=9.3132258e-010
##FIRSTX=3997.453
##LASTX=373.96442
##MAXX=3997.453
##MAXY=1.0000000048502633
##MINX=373.96442
##MINY=0.38437032921811964
##NPOINTS=2559
##XYDATA= (X++(Y..Y))
2559A073741823A073243199A072487615A071692671A070857023A070059391A069607231
2552A069650623A069852287A069766783A069455039A069366335A069681407A070163967
2545A070565951A070784895A070829503A070922751A071300159A071727743A071655743
2538A070930111A069960319A069221055A068920511A069023359A069293375A069410303
2531A069240319A068985599A068954559A069165311A069287295A069037247A068520895
2524A068086911A067888511A067744127A067467967A067148287A066965887A066870015
2517A066711103A066544959A066572479A066906815A067484543A068064959A068384895
2510A068351871A067901887A066902463A065556031A064542079A064312191A064664511
2503A065167999A065579199A065791167A065775871A065682111A065758271A066123455
2496A066638143A066930303A066526015A065237247A063626367A062606079A062425727
2489A062553087A062530303A062429759A062467967A062605375A062657855A062647551
2482A062710207A062768703A062722751A062829375A063353983A064002687A064213887
2475A063971199A063786751A063852287A063793919A063164479A062052479A061099135
2468A060839935A061149247A061592703A061770047A061393023A060737663A060540159
2461A061034623A061668351A061751999A060995391A059768383A059010367A059096511
2454A059639295A060126719A060263935A060026879A059473407A058678143A057868159
2447A057357823A057233727A057268671A057313663A057465023A057792319A058149823
2440A058353727A058413375A058437503A058391807A058090687A057503359A057087743
2433A057372671A058192063A058872703A058916543A058576767A058428159A058611583
2426A058790143A058651583A058383231A058259007A057992703A057192831A056151487
2419A055454527A055085119A054881215A054970367A055335231A055626495A055528063
2412A055037183A054447871A054112063A054161215A054413887A054577535A054527295
2405A054424575A054583679A055095295A055726911A056166527A056183039A055772479
2398A055358015A055427007A055790079A055862079A055588991A055434943A055561471
2391A055708799A055810559A056083391A056427839A056377279A055601727A054323519
2384A053199359A052422783A051527807A050124159A048620991A048051071A048478079
2377A049141887A049460223A049213439A048439295A047281855A046073663A045379775
2370A045590399A046622655A047991551A049036351A049342783A049048063A048611199
2363A048420479A048602879A049053567A049580543A049964095A049923007A049340159
2356A048689407A048521663A048668351A048617087A048194943A047762751A047871295
2349A048611903A049479743A049950975A049926335A049752639A049825215A049996095
2342A049480511A047956671A046588863A046458367A047257855A048204415A048879935
2335A049160447A048824895A047658111A046197951A045757887A046470399A047203071
2328A047402367A047487551A047881279A048377023A048710655A048869695A048894655
2321A048746495A048417599A047986111A047571391A047279999A047024319A046461951
2314A045396607A044477951A044677247A045590271A046240895A046479359A046629055
2307A046721471A046451455A045692287A044731327A044143167A044459711A045531455
2300A046316223A045818367A044704063A044405759A044756031A044930367A044712319
2293A044357055A044060223A043823551A043706943A043878079A044333375A044684415
2286A044449151A043589887A042552383A041812223A041556991A041749631A042118527
2279A042133759A041475839A040516287A039933951A040020479A040610175A041516031
2272A042706239A043964159A044602047A044059967A042909759A042123391A041801343
2265A041481087A041076863A040949759A041128767A041164479A040835903A040371839
2258A039951103A039481023A038859007A038208639A037808895A037735999A037701887
2251A037349439A036700927A036233919A036369343A036997055A037573247A037619391
2244A037203839A036801599A036607551A036316927A035685631A034953087A034492991
2237A034436607A034748735A035270975A035729663A035966015A036020095A035908607
2230A035632255A035334911A035096255A034700415A033944959A032962815A032044159
2223A031415167A031194047A031280255A031390655A031396223A031426239A031555711
2216A031688319A031740671A031646143A031317951A030905151A030763647A030859263
2209A030599295A029690047A028664895A028196735A028342911A028697855A028993727
2202A029252991A029480383A029552831A029483199A029499455A029660287A029741183
2195A029721023A029913023A030330751A030455167A029906687A028960127A028274431
2188A028285311A028780223A029007615A028455807A027533695A027129279A027527999
2181A028125119A028211455A027727167A027156031A026919359A027030655A027217087
2174A027230655A027025215A026682175A026245951A025725439A025212543A024867903
2167A024806015A024990911A025180607A025123583A024952255A025111935A025692799
2160A026183039A026112255A025582207A024981183A024567295A024410367A024338495
2153A023981119A023273023A022741183A022823039A023224319A023443967A023493375
2146A023610559A023736127A023755839A023800639A023867647A023588479A022731647
2139A021624511A020820415A020552191A020670271A020986367A021455679A021958143
2132A022149951A021815679A021258751A021069183A021523519A022338431A022975807
2125A023100607A022719743A022009599A021183295A020445631A019785663A018700415
2118A016347391A012269247A007043135A002010239I98273791I96164415I95636671
2111I96624767I98796415A001517951A004331391A007062207A009352895A010625535
2104A010788479A010597567A010930559A011838783A012688767A013179519A013696383
2097A014532607A015342079A015637567A015429503A015123135A015062079A015329599
2090A015786495A016184703A016359359A016358463A016295743A016185983A016109887
2083A016344383A016990335A017649791A017844159A017595327A017295295A017186367
2076A017205887A017179135A016977471A016540671A015889535A015172223A014644287
2069A014494143A014717247A015206079A015833023A016368191A016532799A016288255
2062A015924351A015763583A015866111A016060991A016226303A016420223A016636991
2055A016608127A016147519A015575551A015417535A015714559A015968511A015750975
2048A015141439A014579967A014403903A014504639A014481407A014185023A013922239
2041A014007487A014386367A014785471A014929919A014648895A014115583A013823551
2034A013977791A014148223A013856383A013227903A012795775A012864255A013247999
2027A013538367A013523263A013333119A013194303A013092543A012703615A011740607
2020A010460223A009602495A009631615A010321535A011286143A012416063A013495359
2013A014003135A013711167A013025279A012449855A012104767A011929471A011959807
2006A012194175A012458175A012563199A012481407A012331647A012282751A012390591
1999A012432703A012071807A011291071A010459711A009886079A009535359A009266239
1992A009111167A009191871A009445823A009584383A009417279A009111807A008957567
1985A009004607A009157887A009441599A009880639A010278271A010380159A010154623
1978A009751551A009311487A008921663A008630847A008402559A008114367A007670399
1971A007062207A006330751A005589695A005094591A005064831A005348863A005502655
1964A005329599A005069439A004951871A004918911A004892607A004892479A004779455
1957A004251391A003184831A001825727A000797439A000905727A002425727A004533503
1950A005945023A006069503A005190207A003923327A002928447A002634943A002776639
1943A002587775A001699967A000468543I99365055I98499775I97863743I97633279
1936I97913343I98345279I98357119I97825087I97161087I96695551I96217215I95123839
1928I92851199I89231295I84681535I80134911I76648319I74778943I74130303I73621695
1920I72289855I69564991I64761663I56976127I46166143I34270079I24621247I19799935
1912I20057791I23810431I29299775I35476031I41648895I47056127I50969535I52658623
1904I50898687I44150719I32355647I18816703I09273407I07914559I14179967I23778495
1896I32572927I39193151I44339263I48683071I52264063I55288511I58287423I61377599
1888I64107519I66142591I67658239I69092991I70805503I72865151I74978623I76687295
1880I77737023I78257215I78614015I79107583I79798207I80595967I81382335I81918783
1872I81811583I80733055I78495039I74852351I69635967I63286591I56969535I51984639
1864I49127551I48399551I48943615I49349567I48362623I45431231I40779455I35304063
1856I30423295I27628415I27809919I30808063I35525311I40577023I45062975I48861887
1848I52287935I55529087I58361791I60378303I61493695I62063231I62452351I62756159
1840I63014271I63365951I63858431I64302015I64372863I63770239I62379071I60396735
1832I58241919I56352063I55126079I54914239I55802687I57431807I59255103I61014207
1824I62765375I64461311I65832959I66748607I67361087I67825919I68184767I68556735
1816I69131007I69913919I70692287I71238719I71434815I71287871I70953215I70651199
1808I70470335I70280063I69810623I68778495I67119103I65219775I63692799I62744383
1800I61988159I61032191I59977151I59173247I58737727I58525695I58469823I58748351
1792I59573887I60891839I62393599I63802943I65077887I66342783I67674687I68961023
1784I69989567I70696255I71234623I71780927I72415743I73183487I74046655I74773887
1776I75127487I75187967I75283199I75584703I75986303I76362239I76698687I76934335
1768I76892863I76498367I75953343I75595007I75594943I75850431I76147903I76356415
1760I76457343I76452671I76311167I76027967I75704639I75462655I75262975I74998591
1752I74769471I74795135I75042623I75229759I75169279I74859711I74335487I73624191
1744I72757951I71771199I70778815I69979071I69487999I69301119I69436671I69921599
1736I70640767I71354431I71824831I71872383I71439551I70681983I69895039I69294463
1728I68921151I68756543I68840255I69198911I69696767I70108159I70393471I70750207
1720I71281599I71780735I71988287I71922175I71813567I71858623I72120895I72511743
1712I72830783I72957503I72939775I72813759I72539455I72175231I71870463I71678335
1704I71598271I71718591I72110527I72656703I73112447I73270847I73092735I72756927
1696I72562175I72708479I73128127I73514111I73605183I73478591I73427903I73553151
1688I73686207I73690687I73601663I73506047I73471039I73540735I73681471I73771519
1680I73726527I73624447I73657023I73925951I74315199I74603775I74642751I74419839
1672I74060415I73758207I73597695I73462207I73180415I72645311I71713791I70187391
1664I68081599I65831871I64086527I63307263I63577663I64663231I66141951I67581183
1656I68752895I69710207I70612031I71478335I72125311I72346687I72159871I71798399
1648I71421183I70950911I70285759I69548415I69013567I68848063I68983999I69231871
1640I69461311I69645631I69799999I69965183I70204479I70544959I70985151I71527167
1632I72058623I72295295I72084799I71702783I71601407I71905087I72333119I72565503
1624I72483263I72085631I71428607I70718079I70215935I69939711I69673919I69339967
1616I69094463I69027071I69024319I68929151I68637887I68100799I67398015I66746111
1608I66353471I66304895I66529535I66804863I66879295I66666943I66289983I65940415
1600I65718079I65533887I65191551I64699711I64432895I64768383I65608511I66494015
1592I67145535I67648767I68136575I68579391I68933439I69255295I69611583I70045631
1584I70659967I71532607I72465983I72979647I72744575I71994431I71323391I71038591
1576I70867007I70326207I69224191I67800575I66577407I66033535I66212799I66712767
1568I67183807I67626943I68125631I68652735I69275135I70124991I71009471I71420287
1560I71118335I70448127I69957759I69905663I70198015I70579647I70802367I70817983
1552I70870463I71158143I71439999I71334079I70877439I70307135I69498175
1545I68191743I66594623I65258687I64567615I64619071I65289919I66207039
1538I66913023I67178623I67067199I66802623I66671935I66905599I67494655
1531I68146239I68549439I68742271I69070783I69707135I70486655I71316351
1524I72273663I73127871I73329215I72702079I71653759I70563903I69431295
1517I68174847I66907519I65809087I64908351I64066943I63185663I62379455
1510I61899711I61923647I62422207I63106367I63573951I63681023I63703167
1503I64013119I64732543I65725247I66729151I67536511I68219071I69032575
1496I69962367I70615871I70728063I70534527I70458943I70577983I70599999
1489I70363775I70133247I70263039I70757375I71368319I71939839I72402687
1482I72595455I72358527I71741503I71005247I70470463I70310399I70376447
1475I70332095I70070655I69811967I69715519I69722111I69866239I70348479
1468I71109759I71688319I71704895I71256895I70685119I70132415I69525311
1461I68901695I68515775I68521855I68774143I69103231I69571263I70201983
1454I70639935I70414783I69519679I68421631I67466367I66606911I65853823
1447I65584895I66068095I66962687I67668991I68013119I68293439I68748159
1440I69209791I69324095I69040191I68785919I69032703I69715455I70255999
1433I70141567I69369471I68406719I67828159I67865407I68224895I68393855
1426I68107519I67481919I66846079I66495615I66416063I66229183I65605247
1419I64695679I63942207I63481087I62959359I62054527I61045567I60564223
1412I60696831I60745023I60202751I59654911I60303295I62598975I65376511
1405I66662655I65799871I64201215I63388159I63292735I63197695I63064511
1398I63160831I63391167I63524095I63516927I63435839I63280191I62994943
1391I62703615I62650559I62772415I62849407I63046911I63631295I64262143
1384I64293503I63642175I62767359I61921855I60945599I59658815I58093311
1377I56431167I54846399I53341439I51816831I50325375I49140095I48590847
1370I48885887I49944511I51352383I52630335I53559103I54156223I54497599
1363I54700095I54914623I55186047I55469759I55856703I56593023I57742527
1356I58924223I59539071I59327103I58671167I58266879I58499967I59215615
1349I60094847I61103679I62366399I63683711I64589055I64944575I64992767
1342I64803583I64310143I63843263I63906495I64469247I65094015I65599999
1335I66095551I66556799I66769023I66629503I66339519I66273343I66578175
1328I66932543I66869055I66342719I65790015I65611711I65803135I66098175
1321I66196223I65860415I65149183I64507839I64287871I64383551I64612735
1314I65007807I65486143I65786815I65888255I65936831I65796543I65262463
1307I64621503I64503359I65189247I66306431I67182015I67430911I67235903
1300I67123455I67456063I68059071I68358399I67998399I67145343I66052735
1293I64788031I63750783I63913791I65868287I68972927I72001343I74278527
1286I75724287I76262527I75755391I74239359I72140607I70581183I70945599
1279I73281343I75556031I75406143I72480063I68501311I65487743I64289343
1272I64401791I65128255I66612031I69089599I71856383I74070911I76019647
1265I78305535I80367615I81446911I82443391I84744255I87299199I87402431
1258I84337727I79999359I76490751I74560127I74202047I75326527I77192319
1251I78373439I78104191I76776447I74946623I73028671I71792383I71794303
1244I72335359I72136767I70986175I69817727I69384959I69494399I69407359
1237I68629439I67390335I66456575I66304319I66509247I66318719I65698111
1230I65318783I65679679I66683455I67827839I68480447I68286143I67492671
1223I66650111I66156351I66195711I66663487I67093759I67215807I67457407
1216I68346623I69661119I70650815I70843967I70383487I69772159I69334783
1209I68934719I68391999I67989951I68134911I68602047I68638655I67964479
1202I67320831I67677759I68973247I70079359I70144063I69416895I68544447
1195I67792831I67342975I67633983I68870399I70509695I71501375I71131135
1188I69799551I68735871I68662271I69278847I70251135I71737727I73574911
1181I74927807I75181247I74636159I74438719I75699071I77871167I78649663
1174I76750335I73883775I72568255I73090623I74149823I75281279I77082495
1167I79595903I81727039I82362303I81375679I79484415I77698367I76909823
1160I77419967I78851839I80735679I82800319I84629887I85410495I84345727
1153I81626623I78800703I77508927I77963007I79179071I80286463I80954879
1146I80900351I79777471I77585151I74921983I72972095I72969023I75041599
1139I77643839I78742911I77674047I75530175I73996735I74068607I75406719
1132I76840895I77861631I78995455I80493759I81704191I81853823I80786175
1125I79179647I78305087I79034751I81011647I82958335I83778303I83437823
1118I82814911I82631359I82700927I82503743I82147583I82180223I82672191
1111I82996095I82548543I81484735I80556415I80108479I79743999I79185983
1104I78767743I78900031I79553663I80392575I81085311I81425599I81357183
1097I80989247I80530623I80109375I79655103I78993279I78083583I77244159
1090I77111679I78030079I79624703I81247295I82534719I83444543I84080959
1083I84583679I84852223I84494271I83446271I82296255I81572607I81181631
1076I80662783I79182911I75334719I68206527I59154751I51911231I49725503
1069I52340671I57270975I62647295I67632575I71730815I74681407I76613567
1062I77980991I79289023I80749567I82153343I83105727I83316159I82814655
1055I82008511I81321343I80910975I80792511I80903807I81082687I81204607
1048I81323007I81620863I82262975I83207487I84219711I85211199I86337215
1041I87652991I89063551I90564479I92063487I93220223I93864895I94081599
1034I93881727I93137087I91890815I90594239I89933887I90297407I91387839
1027I92789887I94508351I96417087I98026175I99078719I99685503A000025151
1020A000313727A000701119A001189375A001864639A002866111A004036095A005035967
1013A005765055A006358591A006994687A007758079A008520639A009127167A009652927
1006A010194751A010740799A011428863A012457727A013606719A014338815A014584895
999A014784831A015319423A016109951A016746943A017148159A017653183A018432959
992A019347647A020269695A021115583A021596031A020711679A016568639A008016703
985I96857215I87791167I85102399I89819839I99720127A010338047A018400639
978A024003199A028187839A031145471A032609535A032280895A030407231A028668863
971A028974783A031530431A035357567A039408383A043136575A046554239A049580991
964A051992639A054282431A057503935A061832191A065836927A068677311A070765183
957A072377855A073460159A073741823A073154879A071092095A067746431A063344447
950A057957311A051756287A045189951A038454591A031113279A022801343A013909503
943A004899647I95455871I85505535I75389055I61949055I35887679H88527167
936H21376575G35092415F34167039E46151359D90301408D56965088D33885056
929D18933408D12714496D15208032D27154784D44704288D62388896D80623904
922E01159104E25387136E54148543E83682495F08329599F28933439F49971903
915F71532607F89849279G04286143G17073151G29796415G42017663G52449919
908G60823551G67323775G71844479G74766143G77980991G82860671G88699711
901G96134207H06431423H18085311H27525439H34338431H40110975H45559039
894H50594559H55488767H61280511H67809215H73174207H77084607H80719359
887H84883967H89531135H94233727H98909311I03817599I08668799I12446911
880I14369407I13947583I11212543I08177151I07628671I10833279I17605375
873I26681279I36177983I44544703I51298047I56819007I61626559I66138815
866I70669759I75083711I78701951I80338303I77876223I68833151I53057343
859I35165311I23224127I23465663I35626367I53480063I69284863I77369471
852I73347391I47787263H83745727G81271295F71662207E75632383D97203808
845D47573376D36792704D54329312D83534400E14071520E40902527E65204095
838E91096767F13314751F22797247F25329151F27853183F32452927F38890495
831F45768447F50850367F51770751F47275007F38633599F30105151F27366335
824F33958783F45678207F57221247F69892031F86685631G06098815G22733823
817G35109247G45861439G56992255G68167615G78412415G88144831G97909503
810H06533951H13324607H19565631H26202623H32769983H38784191H44291519
803H49421247H54781503H61365503H67837119H71748479H73787135H75388671
796H77192255H79484031H82417151H85646015H88507007H90885439H93307647
789H96361919H99846335I02612095I03666495I02721407I00288191H97944959
782H97767999I00961919I07389823I16180031I26558975I37990143I48464575
775I54558335I53488319I39974079I03790719H41736383G74213695G26960703
768G06667327G09802111G33191551G66418431G94132671H13776447H28423551
761H37271423H36442431H24915327H10219007H04157055H12016383H28686975
754H43253695H46020415H31738943H04503935G80445247G70404927G71681151
747G77393919G80890943G77447167G65982207G49047743G32695231G23770047
740G25959231G39149951G58596991G77375039G92973503H06142975H17006143
733H24842367H29376319H31521151H33481215H37873343H45531199H54335103
726H60507135H60032255H51555135H40418047H36878207H47448575H68231167
719H90675711I10391359I26753599I39219455I47120703I51042495I51977279
712I50455807I47292607I44080831I42477055I43310719I45878719I47591615
705I44502079I31161151I00268799H45540223G66056639F70179583E79694911
698E19499488D92910592D82874880D75716864D71105408D75109472D90471008
691E14620832E43606207E74525695F05450367F34986623F61989631F85836287
684G06913087G26000895G43169087G58067263G70927423G82449471G93207743
677H03461119H13196095H22345215H30988735H39226303H47026431H54371519
670H61415935H68406335H75451391H82391487H89000959H95255551I01212991
663I06809407I11954431I16582527I20540223I23770559I26679039I30140927
656I35185855I42495935I51739007I61464703I70154495I77401535I83786367
649I89744063I94813247I97728383I96712447I89236543I71322623I37685439
642H84289087H12973439G34448255F65308159F19710847F02245695F06875135
635F20230463F27263039F19891071F03574143E92961663E99123007F22117631
628F55451647F93760831G34419583G75017663H12289727H42943039H64346815
621H74347135H70496831H49658175H09359743G51184063F83635263F20385599
614E73358143E46352703E35083104E32306208E32270784E31816416E29796928
607E26802752E24987296E26911840E33809408E44944319E58534719E73004287
600E87601791F02348799F17438271F32539711F46805439F59547199F70664639
593F80450879F89266111F97453119G05398335G13495935G21931583G30479487
586G38625727G45963775G52389567G57895487G62391423G65907903G68884543
579G72130239G76449151G82153791G88816319G95580223H01750015H06914367
572H10600383H12286399H12040767H10992639H10961983H13507583H19057535
565H26652031H34613247H41745023H47901055H53391359H58269631H62434047
558H65887871H68255359H67909439H62013375H48737791H30792447H15968959
551H11838655H19394879H33064703H46473855H56643967H63337407H66883071
544H67617407H66418303H64778879H64145279H65253311H68089279H72324223
537H77691327H84026623H91065151H98334335I05354623I11901567I17966719
530I23502335I28261183I31920639I34389823I35838399I36310847I35648319
523I33996415I31865535I29231999I24961599I17560063I06080127H89429823
516H64792575H28500095G80664063G28937791F85583551F59548223F51685183
509F57092863F70220223F87354303G05943999G22970751G34262143G35862783
502G26994239G11855167F97814271F91254655F94745215G07143167G25107583
495G44365567G60732287G71362047G75902911G76731519G77716607G81939071
488G90013119H00514111H11866367H23472255H35266367H47064639H58679039
481H70081279H81134655H91527807I01134527I10188799I19058879I27962687
474I36894079I45764287I54476479I62665919I69132671I70903423I62419775
467I36805823H90122623H25839807G55794367F96217471F59634175F47249215
460F49843455F58047103F70176959F88653887G12150079G34111551G46603135
453G43940735G26334271G03164607F89841727F97076159G22845119G55928703
446G86014783H09317247H26840959H40568703H51687935H60692223H68048831
439H74529791H80863359H87288319H93665087H99823615I05682303I11195199
432I16346303I21229055I26041599I30855103I35424255I39364031I42415999
425I44416319I44955263I42961215I36543167I23191743H99895167H63411583
418H12008639G48500671F81705791F23885759E85333247E69921535E74669439
411E93032703F18789119F47395711F74378431F94224127G03712575G06741247
404G12462463G26704895G47248383G68212607G86137215H00696383H12397375
397H21632831H28975743H35136639H40609471H45620031H50330687H54868607
390H59239359H63479487H67766079H72183999H76612927H80891647H84876927
383H88564415H92257087H96246463I00397311I04408063I08211967I11939647
376I15806783I20011647I24514943I29038079I33376895I37691903I42271615
369I46661503I49391231I47729983I34105471H94397759H21322879G34725951
362F75844671F70793599G07256895G53231807G88674623H12598783H30192575
355H43579135H52340607H56743423H58949375H61677631H66317375H72795967
348H80605695H89157375H97605759I05082815I11251711I16557951I21748223
341I27007551I31696511I34945343I36437951I36772607I37130751I38497343
334I41118207I44479551I47634111I49739263I50309759I48885311I45070207
327I39430079I33648575I29030655I25207551I20755071I14797055I07645375
320I00064319H92432767H84886015H77936447H72454975H68866303H66386367
313H63087551H56087807H39948735H04956223G42004223F54929151E67042175
306E09314176D98844928E29461632E81527359F37248895F87485055G29776895
299G64681471G94046399H20239615H45064383H68788607H90256575I07933631
292I20658367I27540031I27233919I16492351H89024319H37861375G61948607
285F71400063E85064895E21415648D89987168D88926400E08899680E39467775
278E73168767F06036223F36425919F63655423F87298687G07373823G24146623
271G36956223G43897599G43474943G36562751G27025855G20668927G22352383
264G32753087G48079551G63363071G75840511G85643711G94633279H04926527
257H17314367H30348927H41505023H49467455H54848063H58987391H62906303
250H67201279H72064639H77329215H82830911H88451775H93678463H97696383
243H99939711H99710719H95690559H87810239H79989759H78534399H86249535
236H99625791I12773119I22400639I28489919I32502463I36028479I39884287
229I43985343I48331903I53370815I59071871I64653759I69472191I73504383
222I77005631I80142399I82863039I84936255I86207231I86871103I87558719
215I89160063I92227711I96253567I99870271A002180799A003322751A003398463
208A002110847A000021695I95154239I78139903I36271615H71595135H11698303
201G88214783H07275327H48754943H90636031I24450623I50718271I71032127
194I86457343I98170559A007252415A014613311A021161791A027611967A034094335
187A040190463A045702847A051198783A057194111A063200767A068353151A072232639
180A073741823A068988415A049437631A004562559I28978559H31709055G37537727
173F74479359F55053503F69801023F99625919G29818303G53499327G69937343
166G82753407G96737855H13776959H31523199H45914943H53954111H52831295
159H37151871H00613311G43616447F78872767F26622527F01766207F05502143
152F29679679F65965503G08912895G54022911G96598143H32539007H59909695
145H79839231H95369215I09137727I21820095I32525887I40813375I47737599
138I54192255I59444415I62792127I65216767I68000319I71124223I73820415
131I75471615I75791935I75160191I74783231I75830271I78218559I80619327
124I82033215I82764735I83051007I81643967I76690751I66812159I50757439
117I27657535H98520959H67017023H38674879H19017087H11320511H15512639
110H29403135H49998271H72828479H92873727I08587967I22837951I38827071
103I56074943I70939519I81159679I88174655I94308863I99797311A003469823
96A004935871A004664639A001876159I93429119I75432383I45646975I04755327
89H57619967H14948095G90161663G90057919H09826175H38442111H66442943
82H89251519I06404095I19095679I28471679I35802431I42792447I50531391
75I58822591I66936703I74366335I80777727I86020735I90585535I94938687
68I97769983I96652863I91748927I87256191I87308223I91813759I97004287
61I98262655I92846399I81400127I63811455I35174079H92719551H45832767
54H11651903H00942335H12775935H39543935H73153727I05830911I30421567
47I44070527I48116223I44454719I34439103I18845119H95941119H61428607
40H14119551G62237375G21894527G07985791G23166975G57069567G99876671
33H47344959H90486015I20346431I40562751I58180927I74483711I86348287
26I92164927I94546303I97442303A002408511A008457727A014445567A020114175
19A024827967A026481727A023381439A016579775A008302143A000702079I96878335
12A001003455A015552127A037047167A054529215A057353919A048082751A038396543
5A035156991A038832703A048847871A063280959A073741823
##END=


$$ === CHEMSPECTRA PEAK TABLE EDIT ===
##TITLE=CZ- 155
##JCAMP-DX=5.00
##DATA TYPE=INFRAREDPEAKTABLE
##DATA CLASS=PEAKTABLE
##$CSTHRESHOLD=0.93
##MAXX=3997.453
##MAXY=1.0000000048502633
##MINX=373.96442
##MINY=0.38437032921811964
##$CSSOLVENTNAME=- - -
##$CSSOLVENTVALUE=0
##$CSSOLVENTX=0
##NPOINTS=39
##PEAKTABLE= (XY..XY)
424.95956811571523, 0.6593631534774608
447.62407838936633, 0.7459356818634243
494.3696308287722, 0.7357987794725109
531.1994600234557, 0.7556011115114384
590.6937994917903, 0.5604384564600541
616.1913735496478, 0.6100661184519978
657.2707984206409, 0.7340822252977001
709.6824784284595, 0.8181989230954294
749.3453714073494, 0.6711752444194716
770.5933497888973, 0.45534819627811196
804.5901151993744, 0.46458554536487423
883.9159011571537, 0.6247252252681654
957.5755595465203, 0.5307807943737602
1009.9872395543389, 0.6424651769812957
1025.5690903674745, 0.6027978088167747
1079.3973022673963, 0.6437810687316099
1094.9791530805314, 0.6069291259793321
1138.891641735731, 0.8047980107330998
1153.0569606567628, 0.7560836707183298
1177.1380028225171, 0.7552672062894761
1230.966214722439, 0.48893252297794365
1266.3795120250193, 0.5522385858262505
1274.8787033776384, 0.5608850144612931
1355.6210212275214, 0.4387511040305126
1376.8689996090693, 0.8777501624534019
1395.2839142064108, 0.779403570889014
1422.198020156372, 0.6740633874987613
1433.5302752931975, 0.7174955042583516
1444.862530430023, 0.7489296231878019
1460.4443812431587, 0.6581352381833436
1480.2758277326034, 0.8361116090701174
1541.1866990930412, 0.5842804337173443
1568.1008050430023, 0.4067949080144563
1587.932251532447, 0.8598194758758876
1613.4298255903045, 0.8452950755576911
1687.0894839796715, 0.38437032921811964
3000.2145479593432, 0.8639212887391107
3062.541951211884, 0.8455613295074422
3082.373397701329, 0.8566304485480323
##END=


$$ === CHEMSPECTRA PEAK TABLE AUTO ===
##TITLE=CZ- 155
##JCAMP-DX=5.00
##DATA TYPE=INFRAREDPEAKTABLE
##DATA CLASS=PEAKTABLE
##$CSTHRESHOLD=0.93
##MAXX=3997.453
##MAXY=1.0000000048502633
##MINX=373.96442
##MINY=0.38437032921811964
##NPOINTS=115
##PEAKTABLE= (XY..XY)
3364.2632442298673, 0.9272589131783311
3116.370163111806, 0.9291183992921398
3082.373397701329, 0.8566304485480323
3062.541951211884, 0.8455613295074422
3011.546803096169, 0.8832659167081616
3000.2145479593432, 0.8639212887391107
2963.3847187646597, 0.8893331927442166
2913.8061025410475, 0.8926445884085032
2871.310145777951, 0.908593599349713
2854.311763072713, 0.9078248186369552
2835.8968484753714, 0.9027320189439669
2818.898465770133, 0.9022248430186409
2803.3166149569975, 0.9050719184974428
2786.318232251759, 0.9048714084712591
2774.985977114933, 0.9057691140314115
2766.486785762314, 0.9065753860659497
2757.987594409695, 0.9066155595967605
2750.904934949179, 0.9067584319311133
2725.4073608913213, 0.8971498055098985
2699.909786833464, 0.9023100776611624
2678.6618084519155, 0.90487432909887
2648.914638717748, 0.899941567878029
2633.332787904613, 0.898198132008269
2597.919490602033, 0.8996888441827202
2578.088044112588, 0.9032950444217706
2556.8400657310394, 0.8983235997862467
2545.507810594214, 0.9002834005177922
2511.511045183737, 0.8958389205497743
2486.0134711258797, 0.9038103265788329
2480.347343557467, 0.9035069985398172
2464.7654927443314, 0.9036719841975094
2457.6828332838154, 0.903117959021119
2440.6844505785766, 0.9020006103436995
2422.269535981235, 0.8992710156204291
2408.104217060203, 0.902252201550751
2398.188493815481, 0.9013602180365302
2374.1074516497265, 0.8945951504200553
2368.4413240813133, 0.8937482876221904
2354.2760051602813, 0.8969237250909583
2341.527218131352, 0.8965382022463222
2314.6131121813914, 0.8834440749924253
2287.6990062314308, 0.8924555820788278
2270.7006235261924, 0.8976489944127785
2256.53530460516, 0.8999121827879849
2248.036113252541, 0.8992959899667343
2238.1203900078185, 0.8980630678824272
2222.538539194683, 0.8982637567225462
2214.0393478420638, 0.9007039112891139
2202.707092705238, 0.8975628657005801
2187.125241892103, 0.9039241714510121
2175.7929867552775, 0.8980644387892649
2148.8788808053164, 0.9072963638533212
2137.546625668491, 0.905052189359908
2129.0474343158717, 0.9028101010290742
2120.548242963252, 0.899941031436223
2114.8821153948393, 0.8990231795060201
2103.5498602580137, 0.8998032254967055
2082.301881876466, 0.9015108985793936
2075.21922241595, 0.900887732014664
2063.8869672791243, 0.9009083552218755
2052.5547121422987, 0.9021370453763792
2041.222457005473, 0.907516781830975
2032.7232656528536, 0.9057747764726979
2017.1414148397184, 0.9098181767837032
2002.9760959186863, 0.9103761358666717
1988.8107769976543, 0.9061480207604393
1980.311585645035, 0.9071051521517762
1964.7297348318998, 0.9111176176519644
1954.8140115871772, 0.9151467724527862
1950.5644159108676, 0.9146962209403241
1936.3990969898355, 0.911548499631537
1916.5676505003908, 0.9100061698344117
1888.2370126583264, 0.8845008057457577
1862.739438600469, 0.9134342117891984
1831.5757369741982, 0.9219477816702685
1764.9987380453476, 0.9174481078008694
1687.0894839796715, 0.38437032921811964
1613.4298255903045, 0.8452950755576911
1587.932251532447, 0.8598194758758876
1568.1008050430023, 0.4067949080144563
1541.1866990930412, 0.5842804337173443
1480.2758277326034, 0.8361116090701174
1460.4443812431587, 0.6581352381833436
1444.862530430023, 0.7489296231878019
1433.5302752931975, 0.7174955042583516
1422.198020156372, 0.6740633874987613
1395.2839142064108, 0.779403570889014
1376.8689996090693, 0.8777501624534019
1355.6210212275214, 0.4387511040305126
1274.8787033776384, 0.5608850144612931
1266.3795120250193, 0.5522385858262505
1230.966214722439, 0.48893252297794365
1177.1380028225171, 0.7552672062894761
1153.0569606567628, 0.7560836707183298
1138.891641735731, 0.8047980107330998
1094.9791530805314, 0.6069291259793321
1079.3973022673963, 0.6437810687316099
1025.5690903674745, 0.6027978088167747
1009.9872395543389, 0.6424651769812957
957.5755595465203, 0.5307807943737602
883.9159011571537, 0.6247252252681654
804.5901151993744, 0.46458554536487423
770.5933497888973, 0.45534819627811196
749.3453714073494, 0.6711752444194716
709.6824784284595, 0.8181989230954294
657.2707984206409, 0.7340822252977001
616.1913735496478, 0.6100661184519978
590.6937994917903, 0.5604384564600541
553.8639702971068, 0.907837633635656
531.1994600234557, 0.7556011115114384
494.3696308287722, 0.7357987794725109
464.62246109460466, 0.9194539829230928
447.62407838936633, 0.7459356818634243
424.95956811571523, 0.6593631534774608
390.9628027052381, 0.9284153028983042
##END=

##END=

