##TITLE=X8640
##JCAMP-DX=4.24
##DATA TYPE=INFRARED SPECTRUM
##DATE=2/11/2018
##SAMPLING PROCEDURE=ATR platinum Diamond 1 Refl
##ORIGIN=ComPlat
##XUNITS=1/CM
##YUNITS=TRANSMITTANCE
##RESOLUTION=4
##FIRSTX=3997.453
##LASTX=373.96442
##DELTAX=-1.4165319
##MAXY=0.92254478
##MINY=0.18483658
##XFACTOR=1
##YFACTOR=8.5918678e-010
##NPOINTS=2559
##FIRSTY=0.61546963
##XYDATA=(X++(Y..Y))
3997+716339742+716016046+715752011+715680626+715841086+716234155+716767428
3988+717299452+717760438+718150038+718442378+718528817+718316326+717928946
3978+717668796+717622454+717494252+717071283+716674537+716790183+717374098
3968+717898560+718078029+718149206+718361211+718602353+718653758+718494477
3958+718252503+718098633+718132210+718201097+718056939+717788118+717770081
3948+718102726+718508144+718844119+719167051+719303301+718949219+718242236
3938+717664286+717444304+717454918+717618639+717994781+718344839+718196865
3928+717608233+717228344+717473024+717971472+718092528+717778197+717468307
3918+717590473+718204150+718900588+719250577+719286165+719265562+719177041
3908+718835933+718413033+718443626+719148321+720003208+720454690+720543626
3898+720376437+719833105+719033508+718582234+719136943+720413274+721108325
3888+720782201+720266549+720070917+719673477+718882760+718545397+719031218
3878+719477428+719387797+719201877+719103644+718926395+719189251+720526075
3869+721919299+721981666+721189423+720820218+721121992+721260114+720726633
3859+719711146+718673599+718383549+719946461+723069162+724760900+724085343
3849+722625867+721612322+721491890+721926167+721982845+721209957+720444908
3839+720798296+721980279+722670682+722572241+722418163+722626630+722935827
3829+723073602+723075337+722766625+721823287+720647270+720183856+720305051
3819+719871260+719312458+719962902+721476004+722235642+721827865+720916785
3809+720352295+720844984+721972717+722428222+722326660+722913211+724029081
3799+724303175+723975317+724039695+724248093+723848710+723068538+722644736
3789+722794375+723244052+723775036+724173169+724045939+723387863+722938047
3779+723375446+724317674+724802385+724475498+723674306+723106901+723444611
3769+724483754+725245959+725486060+725654012+725656579+725158618+724522742
3759+724445460+724891391+725075508+724538281+723532784+722954141+723761439
3750+725098610+725210301+724538906+724579489+725396429+725277593+723673126
3740+721561957+720080351+720266202+722209974+724139454+724381914+723193410
3730+721452278+719765258+718635236+718354135+718774121+719648294+720843319
3720+721974382+722458955+722022388+720912970+719801471+719489429+720217988
3710+721216201+721796023+721969456+721796994+721289181+720579076+719835186
3700+719205415+718918556+719160322+719731681+720004526+719479509+718523961
3690+718383202+719685756+721217727+721980140+722285382+722524790+722649801
3680+722420799+721830155+721517558+722512233+724395997+725414189+725588038
3670+726136573+727256051+727962202+727892898+727365314+726607549+725740243
3660+724989347+724779978+725544958+726952681+727731258+727282968+726300849
3650+725798517+726378617+727619567+728492630+728560824+728086241+727657583
3640+727713221+728162205+728604529+728755486+728383783+727303016+726015864
3631+726145731+729129200+732842754+733616267+731921476+729898273+728632417
3621+728350762+728919068+729697922+729890156+729475234+729062948+729094652
3611+729484183+729971808+730337336+730276635+729634168+728711850+728155476
3601+728480421+729486542+730475042+731202491+731958868+732696168+732935021
3591+732671055+732482290+732676397+732732104+732136672+731305719+730868320
3581+730924165+731029266+730738245+730228420+730093697+730466579+730737274
3571+730306049+729295626+728501926+728715249+729788801+730938734+731715299
3561+731866255+731183344+729888838+728545562+727458482+726638559+726174243
3551+726115900+726185481+726105078+726009065+726280939+727017060+727800215
3541+728121899+727925711+727655710+727721893+728024430+728186555+728097133
3531+728010347+728280972+729018480+729907915+730535397+730819689+730881917
3521+730733666+730366265+729952939+729753837+729849781+730010865+729936775
3512+729668924+729540237+729676070+729948152+730441119+731333954+732308094
3502+732741400+732576846+732300740+732174758+732086238+731994388+732046209
3492+732190437+732063761+731451333+730671993+730284751+730488640+730983618
3482+731350187+731472631+731545542+731679849+731716478+731476169+731024132
3472+730639804+730622322+731036134+731579258+731893588+731989185+732087764
3462+732211041+732285894+732389261+732511288+732400152+731967540+731529448
3452+731399719+731543392+731755882+731869793+731755882+731417271+731030584
3442+730686562+730303621+729939272+729840554+730031539+730228767+730283850
3432+730338793+730445975+730399287+730079059+729663860+729334337+729020700
3422+728663358+728475772+728623191+728864610+728851360+728539596+728131473
3412+727859321+727813465+727766361+727392022+726786185+726351977+726106812
3403+725682386+725034370+724526627+724318507+724211533+724069595+723932930
3393+723756305+723463342+723250296+723437604+724017218+724700754+725360633
3383+726068587+726743104+727130346+727174398+727168224+727466599+728113713
3373+728825622+729325457+729568125+729642632+729667953+729797404+730117284
3363+730547260+730978693+731455149+732116277+733001896+733931985+734594014
3353+734818576+734757874+734745248+735010740+735524935+736072707+736451208
3343+736533970+736208054+735519940+734885313+734820241+735371897+736091021
3333+736607298+736952360+737260725+737455941+737421532+737293885+737309217
3323+737467319+737634647+737856156+738245479+738686971+738934356+738915695
3313+738753500+738587767+738506462+738541357+738631334+738642988+738505491
3303+738279195+738049153+737874401+737895630+738244439+738705563+738784996
3293+738337399+737849427+737826881+738114919+738130042+737646441+736997176
3284+736478888+735962056+735268878+734574243+734144614+733933372+733667811
3274+733155975+732333693+731154623+729652830+728113713+726997080+726531863
3264+726489961+726476156+726284893+725855126+725080989+723857729+722283301
3254+720754036+719742226+719330495+719083387+718578072+717887044+717328658
3244+717009541+716902775+717079955+717524430+717938589+718019478+717749338
3234+717245341+716510539+715470078+714144561+712729207+711485690+710473047
3224+709466094+708298957+707179202+706482208+706394035+706974897+708368399
3214+710629692+713451591+716342933+719035866+721523663+723788217+725706251
3204+727206934+728404942+729567639+730943867+732549860+734125536+735349420
3194+736077632+736410208+736613333+736913373+737314697+737720670+738151340
3184+738639242+739088573+739475399+739926672+740424842+740771709+740943755
3174+741100747+741252952+741314555+741383374+741598639+741847759+741934475
3165+741910056+741962433+742080298+742076621+741883763+741613277+741365128
3155+741179555+741164570+741455314+741982898+742453873+742654570+742664352
3145+742633342+742431951+741735929+740504067+739199363+738422034+738378121
3135+738778405+739221076+739555664+739855357+740228863+740778854+741522259
3125+742178461+742298547+741808077+741167276+740815275+740708371+740564630
3115+740341525+740279783+740559565+741068349+741527809+741751607+741704364
3105+741406614+740937927+740438786+739937287+739260619+738300145+737231172
3095+736327168+735736385+735538601+735777038+736331677+736939249+737364646
3085+737443107+737078689+736341459+735482895+734810875+734601229+734997490
3075+735858968+736801543+737447270+737558961+737022289+735896221+734485237
3065+733223267+732413403+732069588+732012494+732122936+732453292+733023055
3055+733585465+733830769+733867121+734229735+735225312+736495329+737435546
3046+737781233+737463226+736118354+733043243+727595494+719748122+710638364
3036+702511764+697596040+696774452+699320175+703727255+708697923+713545453
3026+718016703+721985898+725351753+728123633+730449027+732422352+733948495
3016+734976608+735766701+736669803+737715259+738683849+739483446+740198477
3006+740857663+741354584+741577619+741558403+741515460+741693126+742102567
2996+742495636+742625434+742480860+742276971+742259073+742449642+742542047
2986+742135311+741135919+739872978+738801021+738119012+737629930+736934046
2976+735817968+734465257+733204189+732085197+730862284+729348697+727577804
2966+725635767+723646002+721989575+721201979+721436877+722267762+723190288
2956+724113231+725220637+726588471+728095260+729540584+730729851+731549358
2946+732033861+732326616+732557907+732769218+732909630+732833805+732337508
2936+731337838+730039447+728741472+727505170+726304665+725412801+725182343
2927+725518110+726008163+726489684+727100654+727927446+728900199+729882594
2917+730725758+731408946+732104414+732927320+733737392+734378124+734954201
2907+735674434+736556447+737508180+738573823+739812831+741007301+741830207
2897+742318873+742860332+743647858+744444125+744957279+745206954+745400228
2887+745648099+745954937+746335103+746786793+747252773+747680876+747986396
2877+747975782+747546153+746938998+746553768+746543708+746778260+747102788
2867+747439596+747684206+747682541+747373275+746891824+746463097+746193304
2857+746043319+746007106+746198507+746702782+747437653+748278874+749231092
2847+750300690+751303967+752039047+752528823+752815890+752672981+751856387
2837+750565835+749383367+748775171+748772882+749122523+749654339+750443044
2827+751606296+753024148+754349040+755320544+756018787+756732222+757609240
2817+758543421+759359182+759973205+760392914+760666453+760834059+760920914
2808+760977384+761072148+761265838+761638720+762234221+762914912+763458174
2798+763832305+764185345+764589098+764987579+765344712+765696574+766074936
2788+766441158+766736688+766996630+767320326+767709510+768077952+768396376
2778+768675048+768864646+768906547+768819830+768698080+768656664+768724858
2768+768818304+768938389+769282134+769961230+770730372+771204469+771274259
2758+771191288+771276132+771615367+772045205+772363628+772505774+772574246
2748+772732070+772997423+773202421+773270615+773371414+773637322+773944230
2738+774128069+774179544+774149020+774083185+774037606+773974269+773756298
2728+773391325+773115080+773112097+773313349+773534095+773666182+773687618
2718+773612972+773502183+773453206+773523134+773678322+773868821+774124809
2708+774531059+775109008+775760007+776329632+776726863+777005675+777305021
2698+777651679+777873466+777818730+777628925+777636417+777972739+778421862
2689+778721763+778889508+779127944+779483551+779788378+779941901+780036179
2679+780142598+780204687+780223279+780319639+780530950+780746701+780911254
2669+781114171+781432664+781799788+782073188+782192302+782243153+782358521
2659+782574619+782832757+783081044+783311849+783546123+783833467+784207875
2649+784601707+784879409+784997968+785084129+785285104+785590346+785893092
2639+786181546+786539512+787006880+787541541+787995381+788046717+787421386
2629+786322929+785381186+785049651+785271021+785761907+786370033+787030953
2619+787559786+787754170+787703874+787659267+787486458+786699002+785236334
2609+783775610+783055723+783233526+784009953+785076568+786317518+787680981
2599+788958075+789835508+790212552+790286504+790281995+790276931+790292401
2589+790387304+790632400+791027412+791448161+791747784+791933150+792135997
2580+792419942+792736077+793027445+793221898+793143784+792609887+791664397
2570+790644193+790008526+790140057+791150064+792700280+794166971+795183151
2560+795903593+796600032+797224531+797582775+797794918+798259997+799089425
2550+799815347+799857040+799139096+798051669+796994350+796192117+795798076
2540+795921006+796521085+797357866+798160169+798916824+799819579+800826463
2530+801616140+802121455+802661110+803372881+804027904+804594684+805411346
2520+806549763+807527510+807929459+807877083+807705869+807613117+807703719
2510+807915654+807935495+807620609+807328409+807426433+807756165+807929459
2500+807938617+808282084+809520953+811633093+813863168+815448904+816325505
2490+816850730+817233186+817579220+818106110+818961622+820035313+821102760
2480+822065385+823004006+823973984+824771569+825093530+824974139+824830675
2470+825023741+825588162+826400108+827327351+828107663+828370588+828043770
2461+827557602+827367588+827412334+827257146+826599348+825463568+824080957
2451+822662481+821101997+818876570+815448696+810794855+805392616+799689781
2441+793795130+787765686+781935066+776717151+772183327+767934766+763196706
2431+757005830+748572948+737617581+724474111+710260696+697106126+687744750
2421+684309452+687220427+695016878+705171399+715301986+723999597+730900786
2411+736291580+740653636+744379399+747746156+751041528+754554455+758329820
2401+761995854+765044950+767401354+769572045+772166538+775458788+779402315
2391+783733361+787984697+791723504+794902189+797803104+800613973+803247870
2381+805627652+807935842+810390756+812894370+815199576+817377829+819765590
2371+822451863+825211257+827915152+830557443+832885820+834491674+835312499
2361+835610596+835441672+834628062+833276322+831801584+830272804+828130209
2351+824840110+820585790+816109338+812226929+809533163+808195714+808127867
2342+809477040+812322872+815946172+819165926+821439013+823175289+824995714
2332+827039938+829062864+830913328+832708640+834666633+836885955+839215512
2322+841255434+842442689+842251705+840680815+838582064+837202506+837436433
2312+839586936+843383461+847944549+852209413+855703817+858604524+861117989
2302+863252745+865122009+867048714+869322841+872006895+874911834+877650693
2292+879848579+881506879+883077075+884950709+886990285+888829441+890428289
2282+891956028+893231387+893593100+892357145+889311586+884606618+877920555
2272+867880084+852783130+832146994+807702747+783256975+763640487+753040104
2262+753235321+762831247+778298239+796025135+813563614+829560756+843504587
2252+855603711+866079153+874546306+880615848+884720598+887861475+890933118
2242+894461029+898488983+902642989+906565912+910173880+913496515+916595560
2232+919600952+922493264+924983767+926982967+929098160+932205114+936456519
2223+941118546+945305712+948393796+950133332+951231997+953263595+957045482
2213+961685101+965881424+969338713+972363876+975002629+977182894+979148656
2203+981365342+984281034+988275689+993492563+999551629+1005705043+1011499103
2193+1017075054+1022660508+1028032987+1032819053+1037222317+1041963082
2184+1047200906+1051999529+1055543257+1058401785+1061733925+1065821678
2176+1069973325+1073032273+1073741823+1071679840+1068090256+1065112683
2167+1064071944+1064462239+1063930145+1058923125+1045707299+1021560525
2159+986254982+942520650+894296060+845729875+801546212+765463826+737649077
2149+714504470+690450587+660341454+622353591+579342545+536607536+498383353
2139+466530833+441404508+422914019+410867618+404823329+403830388+406357763
2129+410461368+414200382+416199514+415956846+413632388+409660523+404666441
2119+399539475+395199375+392086178+389783989+387049466+382334994+374534865
2109+363250634+348508248+330696611+310791115+290206401+270461590+253112536
2099+239414287+229594232+222864014+218349562+215716619+215129685+217010275
2089+221575976+228451220+236991094+246777433+257501959+268707573+280035404
2079+291624271+303906402+316832734+329460344+340637081+350121004+358743623
2070+367494825+376715165+386107862+395279883+404201258+413142300+422200549
2060+431130665+439729628+447991054+455663571+462241446+467822044+473319880
2050+479321783+485426428+491198913+496719815+501719516+505747054+509404867
2040+513614683+517847011+521043144+523845202+527787931+532612048+536598378
2030+539245110+541552362+544077239+546328057+547690063+547802934+546560908
2020+544697922+543766169+544599516+546315951+547829400+549665538+553251341
2010+559013143+565923871+572673826+578620126+583731934+588156773+591813511
2000+594462046+596410187+598646575+601748742+605314947+608939912+612772580
1990+616633414+619755768+621894895+623576296+624993108+625504528+624630285
1980+623055095+622136453+622433301+623161236+623204872+622037943+619916506
1970+618076518+618241834+621064358+625459019+630013517+634044593+636819803
1960+637295288+635448847+632894938+631528422+632038385+633737962+635417629
1951+636372484+636812033+637342184+638186319+639074436+639625260+639615201
1941+639257720+639355745+640785946+643805766+647936254+652425333+656767964
1931+660896787+664751724+667640152+668635312+667643482+665432415+662892658
1921+660973028+660988429+663843766+668675965+673522733+677348186+680002201
1911+681013942+679651519+676201167+672438566+670222713+669797732+669627975
1901+667907933+664462507+661234705+660838652+664411309+670743221+677772959
1891+684217047+689202769+691876279+692282806+691248034+689264720+686585175
1881+684169665+683602538+685750475+689880963+694371290+698059384+700830016
1871+703238658+705827255+708572704+710989046+712962093+714830872+716739193
1861+718508490+720059956+721587695+723261812+725016749+726618579+727862651
1851+728798428+729634376+730374104+730908001+731409917+732057448+732473827
1841+732395574+732292832+732658082+733449077+734296819+734981811+735606240
1832+736438859+737496455+738242427+738280860+738018074+738107080+738724086
1822+739627604+740637472+741711232+742767094+743604777+743988828+743832876
1812+743297106+742673440+742159106+741781576+741537591+741543002+742062053
1802+743275254+744871881+746144326+746737607+746931922+747242992+748003878
1792+748971081+749449549+749312953+749117112+749301784+749776020+750097357
1782+749951396+749246840+747959549+746221331+744454531+743362317+743745882
1772+745676819+747918272+749577404+750919362+752078659+752819289+753287628
1762+753975742+755013151+756157048+757331677+758370612+758891259+758954735
1752+759173886+760068247+761415060+762453371+762846995+762780258+762557847
1742+762583862+763345859+764823094+766272997+767454563+769281718+772404211
1732+775332251+776849307+777751924+778704350+779673287+780624465+781600825
1723+782416447+782947153+783516500+784566257+785647024+785483373+783984146
1713+782067361+780413362+779353060+779213550+780421201+782821449+785379035
1703+787748134+790868963+794835105+797774106+799431296+801201634+802904541
1693+803717666+803918779+803989956+803812153+803101215+801777572+799666125
1683+796923520+794269851+791993019+790170720+789167374+789457632+790846000
1673+792529830+794576412+797919929+802172167+805190878+806152323+805812810
1663+805151682+805019457+805737193+806917927+807994809+808965481+811117511
1653+815796811+819835448+821022981+821774710+824592031+829687918+834626882
1643+838632776+842595519+846648517+850463564+854562973+859847278+864911600
1633+867671132+869261515+872112898+878024754+886852163+896684375+906614404
1623+916825949+925793631+931115744+930959377+920479079+892021863+846481812
1613+792133431+734054567+678842002+637095215+615072583+609265342+611720117
1604+615974020+618213669+616954820+612721799+606810012+599834108+591943794
1594+584352687+579605019+580072110+586512209+597484780+610115443+622297260
1584+634371618+648015201+663423780+679218838+695443733+713828843+732251901
1574+745548479+754048099+761348878+769141029+774098863+769357543+750506868
1564+721116303+692361892+677052933+690458843+732665366+766568805+783349449
1554+794862716+805300765+815090937+824432125+832805555+839882120+846550423
1544+853748113+861824487+872326498+886079413+897792961+904757765+909956949
1534+916383625+924195131+931125318+936996938+943833748+952346064+959960827
1524+961633834+951587258+929231634+907805405+901895144+913582052+936646810
1514+962988071+988659462+1012885391+1033946369+1048363326+1049090011+1032012865
1504+1008353786+984572540+956911453+917178782+851304924+747906201+627717121
1494+533525383+480760343+460760915+462995360+475995956+486014054+486834533
1485+481043872+474021522+470710576+473737820+482756110+495850464+511051616
1475+527370408+544827997+561522827+574016547+582341485+588995289+596098979
1465+604079686+611253998+616258035+619765758+623539390+629022102+634418862
1455+636466623+635944450+635372398+636806067+641221610+647777042+654064486
1445+658278777+660454047+661339944+661470713+661498740+662681971+666106447
1435+670983045+675982295+681331810+687742045+694844278+701350386+706747839
1425+711490685+715702548+718964273+721374441+723491022+724882026+724317466
1415+721492237+716643319+709868251+701485386+692599079+685090457+680981406
1405+681466325+685705036+691447760+697414698+703525448+709640845+715598349
1395+721803862+728442265+734909108+740913716+747033900+753870503+761013805
1385+767384288+772748511+777770863+783005011+788407597+793540322+798223923
1375+802873670+807866399+812871685+817590805+822443608+827822885+833551388
1366+839547532+846277924+853951377+861745887+868670038+874615749+880002310
1356+885314503+891056117+897559658+904613399+911382641+916856335+920586053
1346+923190466+926147782+931019662+938901860+950140685+963635740+976766099
1336+986654781+990801016+987783901+979748319+973328650+975110990+985617095
1326+999215099+1009459805+1013117236+1009738339+999326374+981172623+953725552
1316+913971722+858003196+785685874+705668043+632575335+578049600+545068549
1306+527927406+515663382+497645360+469061919+432950397+396965967+367604921
1296+346732290+331922785+318905539+304395484+288222289+273606491+265061762
1286+265269517+273570209+287142736+303035940+319221639+334762027+349573891
1276+363928481+378082964+392236718+406413365+420125489+432152257+440648894
1266+443853803+441509331+435854330+430697637+429140414+432054614+438436127
1256+446765852+455798120+464538154+472257532+478725381+484205006+489225103
1247+494376905+500119317+506612833+513698070+520988409+528076004+534775143
1237+541124745+547202612+553075515+558797912+564294153+569356949+573831320
1227+577743906+581304180+584756023+588127775+591223144+593894086+596158362
1217+598029361+599317901+599676630+599072874+598266618+598480634+600533738
1207+604477056+609810617+615780608+621670819+626982665+631468830+635194455
1197+638488648+641764179+645454215+649795598+654588532+658805181+658065176
1187+642443899+603895847+550796150+508183688+496465874+513982258+544200550
1177+573350979+596536724+613592365+625694750+634305020+640278618+643738474
1167+644816466+644346185+643952352+645159726+648377607+653120176+658770980
1157+664704412+670292294+675159041+679132399+682068694+683890646+684428150
1147+682967148+677859745+666621405+647488727+622266944+596975441+577158014
1137+561429832+541555796+511195843+474163009+442487252+426983979+430702146
1128+449471897+475859950+502602812+524391483+538172563+543018637+540510028
1118+534747151+530671884+531462636+537222287+545929403+555315787+563878364
1108+570910252+576368303+580639202+584071517+586767711+588806663+590410435
1098+591846255+593265494+594686885+596163843+597840318+599730187+601673056
1088+603591228+605490462+607254418+608720692+609780994+610278054+610199315
1078+610041213+610567480+612177149+614703517+617676164+620633272+623272857
1068+625406989+626949991+628083828+629220163+630644883+632366452+634277964
1058+636224857+638004769+639472015+640575259+641317206+641803375+642214412
1048+642584657+642682335+642189021+641042072+639631573+638576752+638221422
1038+638415806+638765031+638981198+639016093+638931319+638706133+638259924
1028+637601571+636831388+635933628+634240295+629983478+621530754+610230048
1018+601094760+599033609+604600333+614225119+623886464+631570740+636748904
1009+639061880+638420939+635604105+631585655+627089917+624167635+626572461
999+636058153+649481476+661913037+671442643+679140585+685984124+691879678
989+696706050+700734142+704275234+707530855+710609644+713509587+716193572
979+718676929+720939262+722804087+724090615+724903671+725575551+726317568
969+727107245+727826230+728358185+728603766+728138271+725545443+719109818
959+709669427+702135137+702006865+710015461+721564385+731426636+737633398
949+741040600+742980833+744087199+744587519+744945208+745903878+747860553
939+750490912+753170873+755511807+757434488+759080370+760683241+762278273
929+763625433+764544907+765141240+765616725+766062241+766463843+766739671
919+766715529+766151663+764886571+763022232+761026917+759672957+759718813
909+761404862+764227177+767348492+770230953+772785695+775046433+776952257
899+778486587+779830834+781179590+782438855+783293673+783566449+783354167
890+782889643+782426645+782128687+781931250+781669366+781439671+781630170
880+782491371+783884387+785534640+787289299+789050827+790729939+792363195
870+794056598+795827560+797710075+799852601+802231898+804481328+806322496
860+807978576+809811974+811651061+812787743+812593359+810893504+807862237
850+803860853+799305939+794290872+787908734+777952968+762411400+742471078
840+723023168+708000235+695001478+675377983+639482490+582987073+511183599
830+437771704+377278129+337971549+321302492+324300599+340723346+363005781
820+385529289+405282684+418662579+418649329+397907953+357341727+309779998
810+271147641+249107058+243179975+251665720+272711437+301304729+330789398
800+357189071+380097773+400657287+419964820+438556351+456612771+474422084
790+492339480+510453722+528591517+546452513+563691437+580138882+595914584
781+611264473+626344084+640919281+654167020+664818808+670295069+664333126
771+637828422+587087245+522195609+462663131+422450397+402137644+396250138
761+403017264+423902589+457260094+496590989+534549888+566754825+592135958
751+611224861+624694178+632934689+635984687+633421481+624929215+611639159
741+596951507+585776297+582304994+587404905+597414505+605913778+608058524
731+604310630+600227732+602272025+613202764+630784254+650282807+667843346
721+681670560+691070161+695543006+694879242+689549289+680980296+671506952
711+663584726+658890233+658013354+660083316+662445269+661986850+657626251
701+650826000+643452517+635685896+625584238+610172676+588213382+563632470
691+545820487+544220287+560927535+588928205+617918971+640682510+653927404
681+655683104+643651133+616295288+576037982+530997488+492474653+468852169
671+461286938+467364770+485249560+508155211+526614481+540770664+554579667
662+569280916+584107938+598199325+610459881+619466967+624982147+628590045
652+632514633+637801158+643078734+645710827+645317550+645404752+650119502
642+659833017+671316245+681810625+691115323+699828543+707620694+713872757
632+718664789+722631139+726602068+731325976+736878409+742419048+746966955
622+750298679+752792788+754685570+756024059+757222969+758832361+760592293
612+761607433+761795365+762559235+765484222+770530299+776017868+780367714
602+783255934+785156902+786764698+788908195+792004466+795561860+798759485
592+801241316+803175583+804951540+806789448+808482295+809819119+811041824
582+812330226+813458930+814550727+816162200+818122344+819445709+819921402
572+820689365+822610243+824843717+825853931+825783934+826530321+829017355
562+831830166+833248573+833508792+834128019+835688502+837187590+837129317
552+834207382+827325825+816855032+806220933+800228049+800958619+806441748
543+812861140+815907947+809225978+782214640+722985359+631460020+532179957
533+464702395+453264988+489135542+545705362+602216873+649213487+683410027
523+705709389+719608543+727852314+730840085+727583562+718070467+704861578
513+692082387+682932322+677496992+671938523+659886920+635664182+597385021
503+549761863+505855034+479893038+474875404+482183121+491121180+496857730
493+502393374+514271718+535676095+563644298+592459862+617438699+635941467
483+647459868+653718105+657844222+662810450+670406552+681090808+694109822
473+706723419+713244997+706995085+684233974+648095605+611796567+593214644
463+601787730+632345848+671915838+710257505+741780744+763206418+775865732
453+785111185+794938888+805109226+813213903+818274410+821556531+824773026
443+828418733+832372735+837132924+843092301+849364274+854371433+857521953
433+859691673+861958585+864905911+869013159+874731672+881549266+887179674
424+889273847+888175390+885357723+880062110+871745844+863457812+856321725
414+848459091+839424187+831681083+827059432+823576683+817311508+806117151
404+790644887+772613650+752567048+728690830+698947710+667841890+645803649
394+639627411+650702724+675255817+704216614+728986638+748989951+769932301
384+792595318+810160089+820457311+828681241+840125551+855798581+869752470
374+874002350
##END=
