##TITLE=JPK-190  X12304
##JCAMP-DX=4.24
##DATA TYPE=INFRARED SPECTRUM
##DATE=25/4/2019
##SAMPLING PROCEDURE=Diamant-ATR
##ORIGIN=Angelika Moesle
##XUNITS=1/CM
##YUNITS=TRANSMITTANCE
##RESOLUTION=4
##FIRSTX=3997.453
##LASTX=373.96442
##DELTAX=-1.4165319
##MAXY=1.0093709
##MINY=0.18843399
##XFACTOR=1
##YFACTOR=9.4004993e-010
##NPOINTS=2559
##FIRSTY=0.98207569
##XYDATA=(X++(Y..Y))
3997+1044705885+1044631636+1044356835+1044185957+1044281890+1044419988
3989+1044383593+1044354172+1044613312+1045082959+1045407280+1045334807
3980+1044927551+1044486881+1044279354+1044272442+1044216011+1044040187
3972+1044000431+1044302497+1044770241+1045068503+1045136537+1045191763
3963+1045350151+1045449001+1045311410+1045016002+1044757180+1044599299
3955+1044502859+1044441926+1044410984+1044454100+1044664164+1044973330
3946+1045082959+1044800993+1044261917+1043764942+1043543973+1043658040
3938+1043985404+1044305794+1044529299+1044823122+1045394282+1046131438
3929+1046622262+1046592335+1046135242+1045542461+1045102361+1045006111
3921+1045253267+1045593249+1045752017+1045767932+1045822968+1045818720
3912+1045575939+1045219282+1044990513+1044870359+1044664100+1044309218
3904+1043868737+1043430096+1043238991+1043554498+1044125404+1044414281
3895+1044382515+1044456383+1044876383+1045388068+1045691211+1045894871
3887+1046151030+1046376438+1046516184+1046710587+1046953748+1046977398
3878+1046716040+1046441619+1046267063+1046092887+1045966075+1046006909
3870+1045970577+1045633068+1045427316+1045747959+1046238594+1046344545
3861+1046208603+1046269282+1046544590+1046901945+1047404183+1047982317
3853+1047981874+1047199699+1046522842+1046394762+1046611483+1046915831
3844+1047228422+1047423839+1047207435+1046574645+1046057950+1046013693
3836+1046017878+1045708838+1045481084+1045870586+1046681927+1047065976
3827+1046567416+1045715622+1045271845+1045189164+1044888493+1044378964
3819+1044355504+1045022787+1045978630+1046724473+1046992109+1046831755
3810+1046414481+1045932470+1045563956+1045366954+1045301075+1045423448
3802+1045830197+1046351583+1046679328+1046789083+1046735061+1046445423
3793+1045905269+1045278186+1044799535+1044595368+1044548765+1044481682
3785+1044504888+1044943276+1045849218+1046862444+1047524781+1047672643
3776+1047500053+1047188730+1046790732+1046437117+1046324572+1046374726
3768+1046265161+1046018385+1046027642+1046460134+1047044101+1047383957
3759+1047221764+1046655424+1046136574+1045937036+1045886628+1045708077
3751+1045520142+1045794816+1046498241+1047138259+1047340207+1046965605
3742+1046326411+1045967407+1046211202+1047114545+1048347598+1049187726
3734+1049192164+1048640089+1047931212+1047254609+1046741275+1046527788
3725+1046689853+1047095967+1047358594+1047138196+1046546049+1046036012
3717+1045863485+1045984590+1046411692+1047184609+1047897671+1047995569
3708+1047667000+1047261393+1046660433+1045794055+1045042823+1044935033
3700+1045569282+1046582063+1047539871+1048175071+1048521330+1048757897
3691+1048811349+1048351466+1047447362+1046749264+1046465587+1046215577
3683+1045833240+1045651456+1045981166+1046540088+1046824400+1046810768
3674+1046735632+1046521130+1046255016+1046371112+1046895478+1047250614
3666+1047271855+1047303368+1047583875+1048042490+1048476439+1048748767
3657+1048751176+1048382028+1047768640+1047193295+1046763848+1046581366
3649+1047069273+1048205062+1048969102+1048825869+1048109256+1047215234
3640+1046289382+1045513231+1045203113+1045465550+1046041402+1046584663
3632+1047052217+1047800406+1049056285+1050004710+1049742210+1048720488
3623+1047719817+1047055388+1046798848+1047132996+1048056122+1048976331
3615+1049273197+1048896820+1048336756+1048120098+1048328830+1048635968
3606+1048712626+1048613459+1048669193+1049040434+1049504374+1049785326
3598+1049985625+1050319456+1050632364+1050618288+1050350145+1050139764
3589+1050084981+1050036856+1049811893+1049296530+1048449809+1047447489
3581+1046794092+1046973848+1047892788+1048937399+1049617046+1049845117
3572+1049703912+1049264256+1048632164+1048018522+1047687227+1047711638
3564+1047859437+1047876113+1047705424+1047480524+1047385225+1047454844
3555+1047536511+1047496629+1047461058+1047703459+1048247227+1048797970
3547+1049053622+1048894600+1048380760+1047710940+1047147516+1046881275
3538+1046953051+1047301466+1047808902+1048277091+1048464899+1048210325
3530+1047585777+1046979935+1046901502+1047527317+1048503133+1049265778
3521+1049539247+1049463034+1049299130+1049192798+1049205796+1049351376
3513+1049518577+1049500570+1049169021+1048604836+1048059609+1047725080
3504+1047525098+1047298105+1047207435+1047551411+1048136140+1048449872
3496+1048445243+1048552399+1048915271+1049242381+1049382825+1049472228
3488+1049553197+1049479583+1049201611+1048888006+1048747816+1048845841
3479+1049108785+1049477490+1049970027+1050567753+1051052681+1051040698
3471+1050326050+1049218731+1048401620+1048345950+1048892064+1049458785
3462+1049641648+1049548505+1049510715+1049603731+1049650335+1049559347
3454+1049400325+1049253858+1049208396+1049332798+1049478949+1049345035
3445+1048944247+1048697155+1048880271+1049271548+1049468233+1049319673
3437+1048928459+1048481892+1048204491+1048235307+1048432752+1048490261
3428+1048284129+1047952643+1047699084+1047669600+1047903123+1048260542
3420+1048504781+1048531919+1048415062+1048229473+1047972426+1047664020
3411+1047461692+1047589899+1048074066+1048585560+1048677118+1048179636
3403+1047314654+1046491583+1046077606+1046254255+1046923694+1047699844
3394+1048104944+1047931276+1047454654+1047140605+1047114482+1047083730
3386+1046748060+1046111275+1045449572+1045069137+1044968194+1044765486
3377+1044212017+1043637560+1043526663+1043836337+1044116654+1044135866
3369+1044026808+1043939245+1043839634+1043638574+1043343927+1043018465
3360+1042662632+1042221771+1041687640+1041117685+1040578355+1040084361
3352+1039575212+1039000184+1038438535+1037996280+1037565374+1036837348
3343+1035641134+1034145834+1032635444+1031158278+1029536801+1027677932
3335+1025680332+1023635430+1021549505+1019418055+1017167528+1014617726
3326+1011635623+1008194526+1004291834+999982139+995425797+990828874+986406634
3316+982233136+977928895+972812995+966584768+959578867+952312940+945099132
3306+937949681+930531452+922426919+913661824+904765479+896254008+888348823
3296+881204761+875084006+870216594+866642091+864324671+863449671+864503095
3286+867887635+873397475+880206944+887523723+895139524+903164419+911444015
3276+919555396+927183942+934170884+940339764+945589703+950076299+954131356
3267+958054147+961998687+965953689+969827722+973611719+977391086+981164114
3257+984827068+988390730+991995478+995704338+999477492+1003242974+1006813737
3247+1009967226+1012735271+1015283361+1017489757+1019098743+1020196869
3238+1021138065+1022207277+1023604742+1025375540+1027195858+1028644808
3230+1029739826+1030812590+1031931576+1032825344+1033302029+1033463778
3221+1033560281+1033802491+1034281015+1034969095+1035790518+1036664250
3213+1037447058+1037925012+1038037494+1038031724+1038187956+1038505555
3204+1038882566+1039383155+1040045873+1040635040+1040879089+1040832359
3196+1040800276+1040984914+1041349624+1041764995+1042160267+1042521807
3187+1042850186+1043170322+1043531038+1043938928+1044308140+1044534118
3179+1044638801+1044753629+1044874037+1044789580+1044432225+1044093828
3170+1044075504+1044311374+1044527397+1044563729+1044398493+1044075821
3162+1043748520+1043613402+1043672750+1043694879+1043524380+1043263529
3153+1043052134+1042923230+1042978583+1043357306+1043931826+1044379471
3145+1044574825+1044582433+1044400586+1044024209+1043558873+1043059616
3136+1042464742+1041753265+1040969189+1040137051+1039317404+1038653418
3128+1038271651+1038206851+1038401063+1038711688+1038987186+1039188880
3119+1039342639+1039383029+1039228192+1039003798+1038896262+1038780356
3111+1038310519+1037396587+1036299350+1035285427+1034431477+1033707129
3102+1033123605+1032834855+1032995589+1033470435+1033951432+1034378850
3094+1034921668+1035626170+1036393634+1037104287+1037514015+1037329694
3085+1036603381+1035773715+1035201795+1034934412+1034982918+1035491433
3077+1036445944+1037497212+1038304369+1038803690+1039000057+1038837992
3068+1038382168+1037755528+1036900500+1035771179+1034625943+1033826649
3060+1033516151+1033591413+1033724502+1033451921+1032543061+1031224791
3051+1029844636+1028381420+1026443928+1023857794+1021237929+1019757593
3043+1020192240+1022275248+1024993266+1027363186+1028990116+1030134718
3034+1031331313+1032873850+1034646360+1036398516+1038039586+1039567096
3026+1040867169+1041804244+1042441853+1042952713+1043322369+1043341455
3017+1042905096+1042219298+1041691635+1041601916+1041866001+1042193999
3009+1042444135+1042629470+1042652867+1042386753+1042043410+1042105548
3000+1042762115+1043662161+1044347578+1044734924+1045062796+1045507715
2992+1046004056+1046376058+1046532353+1046540342+1046559617+1046684273
2983+1046824147+1046753449+1046327362+1045674726+1045151754+1045090695
2975+1045541130+1046207208+1046677616+1046787878+1046699300+1046568114
2966+1046270550+1045595532+1044602533+1043609851+1042860331+1042323664
2958+1041841082+1041382848+1041121236+1041268845+1041843809+1042578682
2949+1043077559+1043094996+1042672903+1042052351+1041502939+1041158011
2941+1040931906+1040663066+1040352821+1040102685+1039823065+1039242838
2932+1038263662+1037123499+1036164105+1035568090+1035327085+1035329874
2924+1035473172+1035774159+1036356098+1037243716+1038221814+1038983128
2915+1039387784+1039541163+1039715022+1040199442+1041066390+1042050575
2907+1042806943+1043277668+1043639399+1043946410+1044054707+1043917750
2898+1043733810+1043720051+1043903294+1044211763+1044615087+1045093992
2890+1045603838+1046118440+1046600324+1046937199+1046996103+1046741275
2881+1046299083+1045918711+1045770215+1045759753+1045675994+1045483747
2873+1045296637+1045163231+1045074463+1045040033+1044990450+1044755214
2864+1044265848+1043657596+1043089543+1042546789+1041888954+1041092450
2856+1040397966+1040139333+1040427386+1041085792+1041866191+1042621925
2847+1043295041+1043862080+1044320250+1044671836+1044933131+1045183647
2839+1045518430+1045906728+1046220903+1046452335+1046735886+1047122851
2830+1047505696+1047786140+1047965071+1048090044+1048210452+1048326294
2822+1048359836+1048287490+1048256357+1048431548+1048740905+1048891303
2813+1048659872+1048142988+1047691031+1047604038+1047906928+1048360533
2805+1048626901+1048515307+1048186104+1047998105+1048088903+1048243740
2796+1048194473+1047861656+1047336846+1046839110+1046662145+1046956094
2788+1047561493+1048160932+1048541937+1048670207+1048633559+1048585434
2779+1048632608+1048744772+1048849455+1048962762+1049128251+1049298622
2771+1049368749+1049287970+1049097880+1048885597+1048710724+1048592218
2762+1048555316+1048606548+1048696838+1048829546+1049120769+1049593016
2754+1050035208+1050198985+1050008641+1049568731+1049120706+1048922753
2745+1049052164+1049409139+1049901739+1050442146+1050834058+1050907989
2737+1050706359+1050406956+1050155616+1050052074+1050150480+1050379819
2728+1050559701+1050592989+1050583351+1050687210+1050902473+1051121540
2720+1051312709+1051477437+1051492274+1051220453+1050782255+1050507264
2711+1050575869+1050857772+1051129973+1051302627+1051379792+1051356142
2703+1051232817+1051053696+1050873623+1050720815+1050592228+1050486531
2694+1050441005+1050472137+1050487799+1050382925+1050203741+1050092527
2686+1050112626+1050206023+1050240706+1050098931+1049852916+1049787925
2677+1050074202+1050514873+1050798487+1050872862+1050906150+1051015906
2669+1051205045+1051441993+1051656558+1051752301+1051731187+1051712609
2660+1051771830+1051885517+1052043397+1052268615+1052527374+1052727039
2652+1052785055+1052666867+1052435055+1052237926+1052164185+1052178832
2643+1052237356+1052343180+1052492184+1052666867+1052801541+1052692800
2635+1052156704+1051349738+1050719927+1050580561+1050902663+1051478451
2626+1052053732+1052317691+1052065780+1051505779+1051183170+1051372373
2618+1051686740+1051551558+1050963025+1050463007+1050416404+1050662989
2609+1050911413+1051125915+1051387401+1051667591+1051930662+1052249910
2601+1052648543+1052983198+1053132139+1053171260+1053253878+1053376061
2592+1053372003+1053160988+1052901849+1052792410+1052810101+1052785055
2584+1052633072+1052382682+1052118343+1051979231+1052055064+1052247754
2575+1052437655+1052717021+1053222555+1053788833+1054009992+1053666777
2567+1052940970+1052207428+1051741649+1051664230+1052006305+1052661541
2558+1053351333+1053818063+1054035165+1054093878+1053930165+1053392547
2550+1052596613+1051945245+1051669493+1051603044+1051520109+1051434258
2541+1051455942+1051631830+1051986776+1052460291+1052792093+1052730082
2533+1052357256+1052045236+1052070598+1052363470+1052641251+1052750055
2524+1052793615+1052940400+1053214186+1053450436+1053385952+1052942999
2516+1052478805+1052481405+1052952510+1053463181+1053823453+1054266406
2507+1054928680+1055564196+1055868544+1055796452+1055487475+1055087067
2499+1054715002+1054488833+1054465437+1054577982+1054687040+1054712085
2490+1054730980+1054907375+1055232203+1055434468+1055350455+1055217556
2482+1055320084+1055585627+1055843562+1056145564+1056527394+1056809043
2473+1056854315+1056701126+1056407938+1056073979+1055891307+1055937593
2465+1056133263+1056464876+1056894577+1057087648+1056674369+1055757584
2456+1054833698+1054290817+1054178018+1054304513+1054433734+1054485917
2448+1054554014+1054691859+1054869015+1055170129+1055774260+1056620981
2439+1057325673+1057546833+1057311914+1056933699+1056716090+1056778291
2431+1057060637+1057417929+1057760384+1058121163+1058479279+1058584660
2422+1058234596+1057694252+1057469541+1057664641+1057916806+1057907993
2414+1057599206+1057088472+1056580338+1056347829+1056436597+1056589025
2405+1056651987+1056794840+1057150547+1057539351+1057740157+1057743264
2397+1057582848+1057193980+1056607476+1056045827+1055664504+1055373091
2388+1055044332+1054760844+1054697565+1054823109+1054879730+1054696614
2380+1054442103+1054474757+1054903888+1055400926+1055637176+1055832466
2371+1056502856+1057693681+1058982531+1060224081+1061626491+1063113358
2363+1064205460+1064423956+1063530061+1061730603+1059680186+1057869442
2354+1056286325+1054967864+1054263426+1054292973+1054758815+1055333209
2346+1055911406+1056493852+1056903898+1056856090+1056399188+1055976778
2337+1055887820+1055939876+1055833544+1055617140+1055460781+1055239558
2329+1054780373+1054300518+1054099839+1054089757+1054125835+1054492764
2320+1055488490+1056819124+1057997458+1058911263+1059531752+1059601055
2312+1059031924+1058234406+1057705348+1057549623+1057585447+1057683853
2303+1057822585+1057958717+1058055475+1058191480+1058433056+1058639379
2295+1058595882+1058312902+1058022187+1057943500+1058197504+1058767839
2286+1059339189+1059442414+1059081064+1058901752+1059377106+1060194851
2278+1060811155+1061140866+1061367922+1061555350+1061763764+1062202279
2269+1063020151+1064032488+1064744155+1064762163+1064191510+1063473503
2261+1062995867+1063032008+1063646791+1064405061+1064591728+1063892615
2252+1062564770+1061165784+1060413030+1060777170+1061873520+1062732225
2244+1062839127+1062472198+1062124036+1062061835+1062206464+1062013203
2235+1060838039+1058871064+1057275076+1056936171+1057493572+1058033156
2227+1058296290+1058703419+1059504361+1060403709+1060946971+1061044045
2218+1061059579+1061371536+1061946881+1062571238+1063386700+1064715750
2210+1066248776+1067045153+1066701874+1065899156+1065341565+1064864246
2201+1064115931+1063416691+1063325513+1063839227+1064418249+1064382742
2193+1063220260+1060974045+1058417902+1056563028+1056066053+1057076489
2184+1059080240+1060793402+1061005494+1059794887+1058367368+1057911036
2176+1058925656+1060932451+1062535604+1062600151+1061383710+1059873066
2167+1058589986+1057683726+1057300945+1057333092+1057767295+1059277115
2159+1062077687+1064650949+1065373395+1064393775+1062834562+1061554335
2150+1061040114+1061453076+1062336636+1062803430+1062365486+1061300395
2142+1060035005+1058630502+1057197023+1056409079+1057096842+1059251372
2133+1061622179+1062707750+1062259725+1061457388+1061447433+1062056573
2125+1062184779+1061217713+1059738582+1058883745+1059184479+1060105575
2116+1060645412+1060332124+1059613863+1059275213+1059589135+1060192061
2108+1060682949+1060959652+1060953375+1060564697+1060047686+1059933555
2099+1060328130+1060700449+1060614978+1060292242+1060156173+1060159660
2091+1059948582+1059539678+1059419524+1059861146+1060426472+1060414996
2082+1059676001+1058708238+1058025103+1057675800+1057371326+1056875936
2074+1056238898+1055758218+1055761959+1056402675+1057584433+1058966172
2065+1060032659+1060354633+1059998610+1059576897+1059585647+1059755195
2057+1059466381+1058652884+1057667050+1056502412+1054997285+1053597474
2048+1053066704+1053540599+1054446098+1055159921+1055533888+1056254876
2040+1058341752+1061643801+1064554699+1065799609+1065832960+1066104718
2031+1067641802+1070272636+1072420192+1072167964+1069525335+1067075968
2023+1067448287+1070405535+1073196913+1073741823+1072569322+1071063434
2014+1069142745+1066226457+1063126546+1061239525+1060892442+1061648746
2006+1063067832+1064366257+1064656275+1063854191+1062470486+1060869996
1997+1059349841+1058375103+1058261670+1058794470+1059178962+1058616743
1989+1057305637+1056365075+1056489985+1057121253+1057056389+1055597674
1980+1053202836+1051275680+1051292989+1053921478+1058446752+1062721700
1972+1064532126+1063669744+1061739480+1059844724+1057663753+1054850437
1963+1052115236+1050566802+1050589882+1051576921+1052688615+1053460327
1955+1053765119+1053946016+1054728190+1056265465+1057735529+1058364832
1946+1058209931+1057649424+1056848037+1055974749+1055388118+1055297511
1938+1055547584+1055906017+1056383463+1057038699+1057597811+1057682965
1929+1057349007+1057055628+1057135139+1057364288+1057119605+1056196289
1921+1055283942+1055193209+1055967964+1056951896+1057467829+1057284016
1912+1056651226+1056131995+1056140302+1056474894+1056557956+1056218925
1904+1055937022+1056198381+1056908336+1057637250+1058107024+1058269533
1895+1058206824+1057983002+1057530157+1056955066+1056773853+1057264233
1887+1057897848+1058021426+1057522041+1056617113+1055526343+1054466324
1878+1053692773+1053329331+1053129349+1052651459+1051773796+1050763170
1870+1049931730+1049594347+1050014094+1050958016+1051821984+1052228098
1861+1052171414+1051763714+1051012862+1049794393+1047996393+1045733630
1853+1043419761+1041707930+1041260348+1042222405+1044029091+1046040894
1844+1047966656+1049555099+1050594891+1051145951+1051368189+1051491386
1836+1051773605+1052191767+1052560091+1052892592+1053178235+1053171641
1827+1052890753+1052654756+1052587673+1052646260+1052770155+1052807755
1819+1052680816+1052550898+1052576450+1052723615+1052807121+1052527501
1810+1051798714+1050994665+1050406069+1049928369+1049528912+1049378577
1802+1049490615+1049609945+1049451494+1049031367+1048740651+1048902843
1793+1049317708+1049454537+1049089003+1048423051+1047741185+1047177063
1785+1046537806+1045598005+1044545151+1043647895+1042903828+1042260005
1776+1041621635+1040762486+1039635955+1038465166+1037322339+1036053462
1768+1034486704+1032521694+1030249609+1027637099+1024325412+1020346506
1759+1016203126+1011872064+1007176482+1002369876+997114738+989992171+979453361
1749+965042548+947595229+927337764+902774093+872065191+832958378+781308751
1740+717420531+652421377+596188776+550831226+524701019+531323599+566034042
1730+615427309+669095778+718763466+762011504+800243317+833057926+860211345
1720+885076067+911926724+939505216+960993325+974584427+983624133+990452560
1710+995750371+999978906+1003604641+1006513003+1008391781+1009426945+1009956066
1700+1010359645+1011293993+1013333315+1016621414+1020387086+1023694651
1691+1026663122+1029707299+1032535453+1034712746+1036529069+1038364414
1683+1039733917+1040278763+1040307993+1040107504+1039891797+1039746724
1674+1039534695+1039194713+1038831398+1038554631+1038587920+1039026117
1666+1039615221+1040174841+1040674162+1040925439+1040701172+1040068065
1657+1039212340+1038205709+1036927638+1035231722+1033768823+1033308116
1649+1034009385+1036046043+1038930755+1041236191+1042451871+1043059362
1640+1043470232+1043759679+1043933665+1044244354+1044859136+1045454073
1632+1045833367+1046068603+1046201945+1046184826+1045910405+1045317434
1623+1044536274+1043764371+1042946943+1041778057+1039716226+1036022330
1615+1030427970+1023335901+1015768352+1010131701+1009311863+1013574003
1606+1019987186+1025605513+1029436937+1031798106+1033257011+1034160417
1598+1034653905+1034882673+1034940753+1034719213+1034081984+1033038198
1589+1031601802+1029674709+1027049327+1023420484+1018462085+1011960832
1581+1003905565+993883386+979415952+956465641+927461976+902563902+887058007
1571+882973974+892758254+911458345+927873797+935902941+935069725+927252737
1561+913728844+894133717+875717367+871717410+881102868+898394525+918760414
1551+937635378+952221255+961264765+964982819+964501633+960520381+952638465
1541+937541284+911703472+882414227+855649232+824084162+776335388+711959577
1531+646987244+591791963+545554720+510855341+494751402+500133321+528390636
1521+578522517+635770689+687152680+734759552+779254529+815675471+843831464
1511+867278242+888017147+908698226+933538981+957566874+971804272+979207029
1502+984505220+989335857+993948187+998048705+1001081596+1002892340+1003465022
1492+1001655102+993162525+969953646+928361388+877340176+833929629+814758306
1482+827195676+862769516+904198188+939927816+967117503+986292758+998326867
1472+1003670139+1002868690+997963742+992431139+990873638+996517328+1006343266
1462+1014503469+1019371515+1022521390+1025439009+1028003648+1029617580
1453+1030575008+1031294537+1032003541+1032722246+1033257138+1033477727
1445+1033463017+1033364991+1033346604+1033485716+1033679611+1033783977
1436+1033745299+1033598895+1033467455+1033472718+1033617093+1033808578
1428+1033968298+1034050281+1034062519+1034122057+1034340046+1034704693
1419+1035132365+1035462456+1035533344+1035323978+1034850590+1034139557
1411+1033361123+1032751413+1032383342+1032166811+1031991050+1031754610
1402+1031358514+1030689772+1029557218+1027643693+1024445630+1019408924
1394+1012672245+1005472704+999225518+995053160+993976276+995942491+999007909
1384+1001166053+1001817992+1001015084+998676233+994413649+987127559+974422489
1374+953929852+927330663+901474146+884576430+882250767+893690193+912139070
1364+930694279+944700246+950683537+946737665+932776463+910975954+888062165
1354+874522865+877470729+894842594+918032896+938766665+953284761+961698461
1344+965379296+965519740+962829748+957552861+949783681+939664048+927125989
1334+911851778+893371769+870686178+842422459+808968910+774963730+748513291
1324+736829499+742244610+762031794+790893240+822881544+852683044+877384497
1315+896926046+912380900+924376458+933008148+938283386+940072001+937730931
1305+929995356+915460775+893419577+864932733+834330163+809952144+801257113
1295+812409374+838281615+867693423+890766804+903948686+909955056+914007957
1285+919556664+926761786+934213239+941056059+947237050+952646391+956894138
1275+959758052+961367102+961936486+961539249+960194792+958054972+955373412
1265+952330376+948979125+945327710+941401621+937223748+932703102+927525002
1255+921174971+913015339+902247951+887792817+868220579+841917622+807787913
1245+766457331+720998078+675946461+634859167+598391241+564568607+531096511
1235+498279620+470753564+456312665+461563872+487035515+525715987+566269024
1225+598092790+614711204+614492517+599575916+574122787+542710715+509239983
1215+476200220+444111703+411748290+377882603+343478061+311755079+285387289
1205+263714717+243620380+223744650+207344764+200451044+207465996+228611570
1196+260676041+299166803+339671080+378134768+411220500+437224974+456745568
1186+472410041+487776571+505817400+527535576+551243872+572731219+586713726
1176+589884081+583809549+574474943+568437186+569676009+579175724+594662154
1166+609466845+613768930+599469077+564495943+512748449+451177617+387624243
1156+330596723+289370190+272200557+282555839+315865267+358959450+392704508
1146+398679112+369505425+316408052+265294062+241684124+256100248+301078108
1136+359206796+412955727+450679564+470550951+482353026+501585821+536998611
1126+584161515+632140642+673812157+708532555+738295568+764359993+786698564
1116+804661625+817430037+823604941+819808326+799903144+758812363+701873231
1106+650046131+628940106+648337407+695228744+748112629+793959609+830784383
1096+860501680+884292752+902790324+916920440+927744132+936192325+943117763
1086+949310484+955325858+961359937+967281851+972726763+977313161+980914295
1077+983640238+985609560+986806598+986864742+984856425+979557220+969921373
1067+954941682+932586182+898637433+848118078+780896423+706132011+637962121
1057+586099197+553739588+544141024+563119276+611835179+680601083+753224154
1047+816653379+865764744+901389309+926368479+943197401+953581944+959081068
1037+961726106+963628661+965880709+968094651+969112948+967913437+963718571
1027+955534590+941756820+919641565+884856493+833256703+765979885+693760709
1017+634535353+604484097+609525114+643605050+693658372+746661143+794580162
1007+835227356+869666359+899105114+923754194+943415897+958188441+968573745
997+975184500+978509248+979303406+979281151+980704802+984697721+990366138
987+996026567+1000873372+1005009334+1008430903+1010670967+1010618721+1005649162
977+992828821+974125369+959172436+958219700+971710748+990259236+1004764461
967+1012968858+1016849992+1018256460+1018115002+1016993099+1015079955
959+1012238676+1007954979+1000770210+987791988+964771171+928183978+880970286
949+837362864+817352555+831491802+871703968+918976628+958401802+985674868
939+1003158074+1014331322+1021620900+1026402334+1029507507+1031611630
931+1033144212+1034161368+1034680282+1034962121+1035301469+1035785636
922+1036337203+1036814268+1037098453+1037178408+1037120709+1036977158
914+1036754540+1036395473+1035815436+1035008217+1033991568+1032564366
905+1030199011+1026132162+1019195374+1006872895+984718137+949575393+906780517
895+872618597+864079037+884272082+920399264+955862271+981629069+997420417
885+1007103945+1014590399+1021702377+1028132932+1033022663+1036177103
877+1037965084+1038866652+1039304786+1039498047+1039403255+1039026878
868+1038729949+1038932403+1039510601+1039768853+1039069677+1037251832
860+1034020037+1027725613+1015923252+999308706+984820474+981404105+991248938
850+1007571690+1021786136+1030437164+1034842981+1037132312+1038432829
841+1039314170+1040121136+1040839524+1041267640+1041408528+1041493238
833+1041675847+1041906010+1042052477+1041929724+1041251028+1039880194
824+1038026334+1035707520+1032160280+1025519915+1011035804+980207447+928963236
815+871397338+837536089+847807643+892724522+944146142+981856125+1003383228
805+1014741558+1021029070+1024747695+1027037850+1028503476+1029526593
796+1030176883+1029993006+1027982090+1023571073+1018394178+1015924394
788+1017766460+1021497386+1023466771+1022279116+1018501016+1012318694
779+1002219794+984363762+950978311+889691631+790548248+661744887+538175423
769+465509300+470050457+543559592+653724113+765280835+855138054+916485984
759+954001691+975598730+987088564+991531093+989693212+978925825+954194444
749+916219679+879631028+865938603+883867869+920910062+956846076+980726613
739+993216864+999039485+1001525247+1001825981+999746650+994411303+983932793
730+963035500+920638621+845428276+742448967+643698130+592443901+611012552
720+684403150+775923567+855134123+909374766+938992517+951798592+958981204
710+968649198+981450771+993340062+1001339848+1005559062+1007556283+1008693403
700+1009591039+1010189083+1010247480+1009721275+1008532479+1006321454
691+1002646389+997218533+989834797+980072836+966893047+948289840+921201919
681+882519544+832497735+779275199+738444762+724336902+739741728+773650912
671+811170043+844399453+870032401+882256410+879900059+868258242+848793033
662+818156161+773332995+718100622+666023132+634677446+633444012+656784522
652+689290154+716561445+732380375+738482679+740176122+742278532+747608363
642+757350351+771437795+788307803+805089424+818752873+827374798+830743676
632+829811167+825215385+816141250+800468788+776127734+742748623+702227226
622+658006162+614356702+576006955+547178100+529956981+523707957+526401214
612+535967061+550225637+566018444+578956213+585661824+587809823+592578258
602+606476182+628002905+647063394+652841821+642973591+624916055+609619970
592+605213074+615261186+639583345+675045084+716291083+756814128+790750196
582+814495679+826684372+827291673+816992283+797004167+769756716+739582643
572+711911706+691218326+678964452+672476197+665217688+648526610+616933642
562+577417354+552387396+565455210+620419694+697436218+770517523+825095231
552+859101743+873815890+868304148+841534017+797735680+748828481+709814494
543+689651124+686271466+690118488+691661849+686131022+673353226+656155790
533+640129142+632345126+636597565+649128966+659713428+657721153+639759804
523+611459182+581954865+559521883+550124251+555423901+571953927+594409165
513+619402855+645587750+672123533+698214144+723272128+747000872+769420539
503+790186138+807588882+818719902+819938625+806673175+775332942+728272248
493+677433898+641217060+632959972+651434148+685394944+724089809+761288804
483+793654183+819603716+839990465+857319215+873139603+887137645+898803303
473+908241260+915167523+919060450+920223123+919219916+915693347+907753035
463+892231922+866810560+833162609+799340735+779512147+783692240+806320322
453+832789465+849048939+845028122+818505717+779244194+749118753+749963002
443+785445855+837752366+884085732+914815050+933402976+946483852+958097834
433+968987024+978231340+984758654+988274697+989847479+990988847+992002452
424+992162235+991292054+989570902+985870919+978327337+967384505+954893620
414+942556178+933289860+931174578+938664962+954009299+971526618+985170348
404+992455741+994838468+994947083+993812055+991016555+989122750+993662163
394+1005214896+1017889911+1025077025+1025116147+1021013663+1014299683
385+1001809369+982246198+962828670+950987504+946082049+943410508+940456113
375+938434989+938503024
##END=
