##TITLE=X8900
##JCAMP-DX=5.0
##DATA TYPE=LINK
##BLOCKS=1


$$ === CHEMSPECTRA SPECTRUM ORIG ===
##TITLE=X8900
##JCAMP-DX=5.00
##DATA TYPE=INFRARED SPECTRUM
##DATA CLASS=XYDATA
##ORIGIN=ComPlat
##OWNER=
##XUNITS=1/CM
##YUNITS=TRANSMITTANCE
##XFACTOR=1
##YFACTOR=8.8503333e-010
##FIRSTX=3997.453
##LASTX=373.96442
##MAXX=3997.453
##MAXY=0.9502973011699606
##MINX=373.96442
##MINY=0.5621672299872558
##NPOINTS=2559
##XYDATA= (X++(Y..Y))
2559I74753820I74511032I74159075I73891774I74021282I74668355I75574312I76257349
2551I76358370I75921151I75366142I75027789I74753416I74230194I73610598I73377913
2543I73603998I73815873I73748189I73719230I74047009I74569019I74966839I75192318
2535I75367152I75522455I75555590I75373954I75057556I74853494I74875112I74897000
2527I74679401I74401122I74472914I74895990I75191375I75125846I75023411I75192655
2519I75415910I75334017I75004554I74777661I74886427I75229965I75429516I75218651
2511I74830798I74688291I74909459I75340415I75798444I76145822I76261053I76138818
2503I76006548I76130197I76440129I76671872I76818757I77039319I77235839I77045785
2495I76233845I74938890I73700844I73108591I73072965I72984807I72711646I72664301
2487I72989723I73398589I73637605I73878237I74478773I75370317I76021633I75822353
2479I74805138I73768595I73324844I73559819I74139679I74485508I74088428I72841357
2471I71426187I70916907I71692075I72967701I73746707I73821867I73507018I73278239
2463I73453208I73813650I73901202I73593627I73153848I72779936I72460575I72465222
2455I73010736I73872041I74707283I75259666I75268892I74428195I72808896I71211282
2447I70701126I71611325I73166375I74536827I75494977I75996311I76027762I75797434
2439I75646374I75698434I75684425I75169285I73956360I72546510I71814579I72010358
2431I72971944I74261511I75214341I75580576I75584617I75551010I75647048I75725642
2423I75566433I75214610I74801030I74438634I74419238I75054256I76195794I77121281
2415I77357199I77241024I77285945I77553988I77810042I77974437I78075525I77910322
2407I77261296I76413393I76048438I76481279I77319013I78099164I78609725I78726572
2399I78451054I78013768I77699525I77658713I77899277I78174593I78149742I77830381
2391I77561126I77504353I77322447I76624257I75417191I74319025I74376001I75415979
2383I75740256I74896394I73904772I73861737I74616566I75232861I75378130I75096752
2375I74611313I74442203I74895451I75519492I75817234I75754534I75448036I74974248
2367I74525175I74514130I75298794I76825020I78572212I79840767I80189289I79636637
2359I78502238I77187551I76234114I76209061I77086799I78353670I79510159I80135949
2351I79948859I79179820I78554432I78446340I78702191I79112203I79340982I78805705
2343I77287023I75681664I75441503I76609037I78083405I79318825I80161205I80396180
2335I79830193I78399466I76291427I74505981I74494869I75811173I77001133I77835836
2327I79063780I80944926I82800548I83961751I84193897I83688523I82798123I81786701
2319I80954961I80635735I80672843I80424601I79521540I78222343I77515330I78161393
2311I79406376I80298190I80637149I80704362I80889297I81257014I81458046I81194448
2303I80596741I80065639I79820630I79756717I79815983I80237038I80899063I81192361
2295I80709009I79444495I77795158I76528557I76339378I77063025I77976525I78625349
2287I78996366I79200630I79189585I78976902I78826516I78865173I78967272I79120487
2279I79407858I79688427I79784195I79902726I80313141I80792250I80883102I80430999
2271I79560938I78710138I78613833I79292627I79918486I80065909I79930810I79750050
2263I79514267I79209520I79039603I79223394I79602559I79600000I78644476I76752083
2255I75022131I74867569I76164814I77662013I78513013I78741321I78840861I79045395
2247I79170324I79051321I78780248I78494493I78109804I77457209I76718274I76561288
2239I77413838I78703405I79431497I79263263I78764354I78633431I78783683I78540491
2231I77766805I77129228I77228161I77973090I78877161I79613133I80074866I80199930
2223I80018630I79725199I79495005I79319027I79121564I78903090I78644408I78291037
2215I78002252I78122736I78685221I79270537I79463756I79195579I78697209I78226316
2207I77844659I77485832I77226208I77338813I77908504I78526214I78663804I78296155
2199I77892273I77766132I77746736I77573518I77356795I77483475I78060440I78631882
2191I78680305I78278241I77925206I77809571I77733064I77667468I77868365I78483246
2183I79335662I80028127I80219191I79971151I79714423I79726209I79866426I79899628
2175I79809989I79688831I79513863I79241510I78988553I78882077I78836416I78798499
2167I78979529I79445101I79821977I79812144I79610775I79520867I79555348I79586530
2159I79561545I79559928I79819148I80507169I81368070I81843407I81609914I80868959
2151I80166794I79953641I80189963I80396921I80198853I79718127I79295657I79042835
2143I78905110I78838706I78624607I77825061I76340456I74768973I73866384I73829544
2135I74311011I74893229I75361225I75715540I76155049I76923145I77974369I78897365
2127I79335460I79365968I79333911I79440656I79628286I79733886I79690649I79654282
2119I79841777I80165583I80233469I79846828I79310676I79106277I79367180I79790189
2111I80021325I80009809I80005162I80329506I81111140I82068213I82643157I82559983
2103I82101011I81658674I81317896I81071203I81076927I81402013I81761176I81791347
2095I81478250I81155050I81129189I81365511I81558932I81512732I81398039I81534620
2087I81961400I82390605I82590289I82611638I82596957I82585642I82604365I82783576
2079I83229618I83803956I84113350I83813654I82961575I82011035I81420601I81314394
2071I81504044I81715178I81741039I81484109I80996312I80483328I80169691I80112850
2063I80190636I80280882I80417529I80730694I81247787I81789730I82103974I82102493
2055I81950490I81911091I82099529I82379021I82505903I82373296I82085858I81817748
2047I81672076I81658808I81723192I81792223I81848660I81936212I82077439I82236716
2039I82375115I82473913I82492501I82397003I82282445I82390200I82909381I83748394
2031I84550703I84968728I84911953I84520936I83992461I83523522I83295955I83329359
2023I83399939I83288547I83051753I82910055I82933020I82976930I82898336I82750913
2015I82728082I82925543I83232850I83446745I83403104I83058690I82607328I82452093
2007I82853618I83597671I84183593I84402606I84560469I84976541I85443796I85470062
1999I84949130I84263130I83782270I83563997I83516181I83579757I83701319I83774390
1991I83707717I83543793I83427686I83431390I83482238I83467219I83336363I83145568
1983I83018484I82978479I82904262I82768895I82689425I82612312I82334235I81943014
1975I81789529I81919240I81974937I81716928I81285704I80931726I80740729I80664694
1967I80704227I80974694I81553410I82290257I82850924I82947230I82531024I81871087
1959I81430231I81508624I81941600I82252542I82148760I81811485I81663792I81916345
1951I82348984I82489336I82054811I81294055I80771642I80739584I80933208I81045072
1943I81074301I81069855I80927214I80654929I80495316I80592700I80847407I81190340
1935I81670594I82183646I82375788I81905569I80656410I78734250I76377632I73827457
1927I71207915I68586352I66125682I64095766I62733733I62082551I61940112I62031906
1919I62243309I62553175I62771447I62559707I61708908I60205379I58119430I55701862
1911I53523041I52237716I52146461I53025209I54276657I55192379I55180526I53891767
1903I51336003I48095383I45290973I43945507I44287295I45870698I48243884I51167837
1895I54325888I57233004I59504158I61068098I62167880I63206848I64445972I65784500
1887I66972911I68012889I69200896I70778441I72618774I74206892I74973507I74812075
1879I74266966I74064789I74471904I75213869I75934217I76528759I77031507I77376527
1871I77421313I77189504I76946380I76884286I76826300I76459593I75800397I75186055
1863I74853426I74755638I74660813I74177259I72772595I69905282I64939022I56932096
1855I45215813I30833585I17119713I07905451I04548253I04948903I05896884I06109971
1847I06631509I08845755I12903567I17925995I22901819I27108267I30126101I31758197
1839I31828844I30093842I26622625I22264040I18345232I15716666I14304324I13652941
1831I13537103I13804944I13976006I13467870I12264306I11157318I11203181I12873126
1823I15577189I17942428I18726284I17749949I16090309I15295273I16227899I18496225
1815I20870017I22254746I22412743I21874772I21265952I20831023I20546413I20400741
1807I20379930I20341071I20148121I19921295I19974028I20454619I21189041I21928179
1799I22597948I23195790I23578593I23538790I23042036I22230366I21182441I19795760
1791I17939532I15656928I13213903I11031782I09588259I09262567I10113973I11763848
1783I13657184I15585742I17867470I20851294I24353828I27790159I30757550I33236539
1775I35293798I36878279I37937653I38542095I38821182I38823674I38468956I37680790
1767I36583634I35492944I34682957I34235098I34123840I34347298I34886751I35547159
1759I35964847I35907467I35520556I35126036I34806742I34384205I33852901I33642980
1751I34279480I35818905I37820334I39871532I41913907I44018175I46106347I47978266
1743I49445563I50457659I51207033I52021666I53103803I54442669I55861947I57057901
1735I57814952I58305914I58924432I59755162I60487295I60861948I60953204I61011122
1727I61223738I61596977I61952503I62098647I62065984I62109288I62437943I63021979
1719I63707441I64406237I65065365I65551950I65750557I65743082I65755810I65951522
1711I66330822I66743459I66954324I66844345I66612873I66646142I67111647I67757845
1703I68181931I68262748I68262883I68465597I68800382I68993332I69024850I69161027
1695I69524298I69942593I70279936I70611891I71006209I71403087I71789796I72262103
1687I72808694I73221668I73353533I73350638I73476308I73761120I74007140I74118128
1679I74223459I74425096I74602692I74574945I74331215I74013403I73747785I73574366
1671I73482436I73465263I73558337I73825234I74275451I74797259I75235623I75544006
1663I75820332I76157406I76492728I76686621I76720362I76721372I76799832I76944494
1655I77046862I76976753I76699552I76337087I76053085I75940884I76056048I76389350
1647I76742587I76837412I76593278I76172626I75783492I75544545I75464806I75489051
1639I75585896I75739179I75848551I75819457I75774738I75950919I76329680I76584994
1631I76494008I76222598I76095716I76226975I76500338I76776193I76965911I77019182
1623I76966988I76911022I76922606I77009618I77150914I77304196I77415858I77481118
1615I77579175I77845804I78347272I78914605I79216389I79119679I78871436I78810689
1607I79019466I79347717I79652127I79914849I80176561I80452348I80746858I81089319
1599I81498724I81976149I82547254I83194462I83728796I83930502I83882618I83927875
1591I84180899I84363680I84308118I84282930I84556562I84987653I85355706I85720459
1583I86154715I86494684I86601093I86542905I86404506I86200579I85985740I85817103
1575I85687594I85647859I85858791I86383965I87047539I87582344I87853148I87917060
1567I87933291I88025355I88195003I88389972I88631750I88964514I89285289I89402608
1559I89301856I89180429I89195448I89321050I89473255I89596703I89583974
1552I89288589I88763751I88381016I88523590I89187097I90022069I90707261
1545I91122255I91275201I91265840I91256276I91330426I91456096I91620760
1538I91873717I92210319I92570290I92941509I93301481I93488437I93323301
1531I92861433I92352018I91939448I91563852I91186235I90957322I91050261
1524I91410771I91814721I92132869I92377946I92529410I92540590I92537156
1517I92780347I93360881I94082508I94679744I95015942I95079652I94969540
1510I94881382I94930276I95023081I95077093I95253341I95737838I96381679
1503I96784887I96731211I96466806I96501624I97065524I97818804I98278921
1496I98402773I98451869I98467291I98259929I97777250I97175367I96677670
1489I96554088I97002958I97857259I98611011I98900200I98793657I98530396
1482I98200326I97827424I97617098I97896994I98734728I99644658I99931625
1475I99526194I99173698I99505855A000324731A001117477A001715319A002083103
1468A002081554A001806777A001612076A001566751A001388482A001000764A000709014
1461A000788418A001224357A001851159A002491228A002927504A002960841A002622286
1454A002207561A001960867A001815734A001570455A001199034A000863106A000724976
1447A000856708A001229071A001653292A001793846A001460948A000932069A000721205
1440A000930588A001139432A001023931A000703358A000391338A000169091A000191855
1433A000615065A001223953A001585137A001617867A001638138A001832301A002054884
1426A002175706A002314172A002605718A002935249A003070213A002997613A002960100
1419A003133654A003412135A003595926A003646437A003626300A003559020A003562522
1412A003952194A004910142A006144350A007100615A007430347A007188907A006740307
1405A006473072A006472399A006488832A006274128A005864656A005504079A005296851
1398A005061472A004675572A004347927A004345300A004664863A005045039A005256308
1391A005329784A005340962A005185593A004825487A004533536A004665065A005207279
1384A005673390A005540850A004797807A003945257A003461232A003495983A004039678
1377A005068475A006404647A007617169A008321757A008574444A008754396A009038467
1370A009215928A009108778A008916703A008937110A009173566A009421135A009537511
1363A009509158A009450633A009590581A010059049A010702486A011311373A011912919
1356A012556962A012998087A013007785A012880095A013123219A013664624A013902562
1349A013667722A013599634A014302605A015546645A016623664A017184870A017468873
1342A017939833A018825316A019825088A020330395A020103501A019532800A019026819
1335A018479151A017572521A016383571A015542941A015842570A017481063A019595164
1328A020915306A021053166A020685113A020425287A020209102A019956482A020058177
1321A020733873A021516516A021959997A022443283A023670081A025543416A027102372
1314A027643373A027420858A026910769A025971610A024516099A023468242A023845724
1307A025221698A026327676A026850022A027354049A027780762A027420050A026273124
1300A025188361A024610049A024276343A024201722A024756866A025558838A025639723
1293A025061344A024974802A025787483A026609322A026815136A026902687A027353241
1286A027716513A027524775A027393043A028210438A029601161A030334035A030115897
1279A029900924A030585981A032183931A033917991A034790947A034641638A034563312
1272A035596556A037392036A038697901A038688271A037721567A037291216A038894152
1265A042361193A045683774A046766989A045123983A042175987A039917899A038996924
1258A038629409A037994728A036800121A035081282A033374430A032544374A032580271
1251A032252626A030803850A029086088A028213333A028074464A027977888A027740690
1244A027332970A026474156A025193008A023868757A022491302A020788357A019062985
1237A018055603A017941315A018026711A017485912A016134520A014453059A012966299
1230A011721249A010442727A008983781A007359498A005549740A003613504A001837150
1223A000432352I99181106I97725797I96186237I95089687I94653950I94629166
1216I94861380I95368908I95897249I96196069I96634029I97751456I99352572
1209A000679719A001274194A001310965A001413940A002252145A003964518A006054711
1202A008004079A009662912A011052355A012265483A013482449A014631395A015202298
1195A014984026A014802659A015720873A017512312A018929166A019587621A020399156
1188A021954610A023822018A025509203A026780654A027286635A027264208A028029745
1181A030410743A033577954A036382028A038688404A040675017A041838577A041637950
1174A040762367A040843386A042635835A045214633A047239632A048280418A048789834
1167A049087172A048487781A046239861A043516806A042798412A044579278A046289900
1160A045534465A043219804A042254851A044164687A047907853A051369170A053046994
1153A052437703A050211065A048276984A048326686A050168366A052273038A053539977
1146A053817852A053352549A052549567A051806927A051171371A050641751A050706202
1139A051832721A053536542A054688114A054930026A055153215A056211983A057695712
1132A058662281A059054175A059244297A058883786A057359985A054900191A052444370
1125A050726407A049943830A049899920A049921067A049260457A048146060A047767703
1118A048838526A050786548A052486193A053305338A053372012A053179062A053069218
1111A052956142A052552732A051927479A051473087A050958351A049272781A045789981
1104A041555853A038693793A038557684A040719063A043723697A046471334A048711441
1097A050568073A052138209A053519771A054738692A055540327A055546995A054730946
1090A053740604A053470810A054177823A055331214A056237642A056671359A056838246
1083A056941758A057051063A057096523A056803562A055933771A054685084A053656285
1076A053373023A053892675A054839848A055828776A056749549A057695173A058783237
1069A059956091A060925691A061416922A061396246A061049137A060752406A061005362
1062A061915562A062893580A063330530A063289852A063171522A063196576A063510347
1055A064271641A065316603A066212120A066662607A066678029A066519494A066581521
1048A067174043A068200955A069159712A069636464A069649798A069425397A069117283
1041A068819069A068573924A068329790A068087879A068073466A068560522A069559148
1034A070665598A071401031A071762013A072030190A072292171A072551055A072941400
1027A073435864A073741823A073647941A073253622A072882269A072807917A073032925
1020A073265475A073136370A072379454A070878887A068761622A066414971A064315687
1013A062925503A062592537A063262509A064433140A065533057A066337454A067012409
1006A067688442A068172198A068233080A068003021A067987598A068515063A069334680
999A070060819A070582222A071050488A071603275A072206775A072828862A073390270
992A073617769A073324808A072582102A071596541A070815850A070702908A070998429
985A071091099A070685129A069644006A067884153A065822853A064352862A063770711
978A063662485A063653393A063419563A062598262A060898886A058212804A054967538
971A051732845A048242165A043971401A039020630A033643416A027732609A021607166
964A016156274A011313730A005789833I98853124I92110577I86721308I81462557
957I74973304I66328061I54007941I36604512I15194454H91671171H64011549
950H27049037G82576823G43597864G16283599F97305521F83982465F75208790
943F70192827F68816921F70869062F74725775F79233804F85180440F92898446
936G00736128G08758543G18305164G28102048G36603505G44731252G53666359
929G62770306G70982305G79416886G90300890H01996766H11146577H18234077
922H24661708H31298452H38795963H46549326H52649244H56255627H58104312
915H59661449H62143065H65829591H70763458H76975307H83752875H89829491
908H94592901H98101631I00654971I03136114I07271713I12438870I16375053
901I19688138I24032514I29762763I35186244I39486978I43019145I45801802
894I47692242I49236113I51998903I56673011I61347186I64831535I67588534
887I70212992I72790914I75105036I77248971I79662431I82379762I84800495
880I86503103I87557156I88213052I88439676I87959085I86806031I85569938
873I85223436I86415888I88912454I91996491I95169022I98322427A001493544
866A004681094A007882046A011104010A014255125A017163317A019818151A022472242
859A025390605A028527375A031552281A034231493A036654179A038967425A041036403
852A042599400A043736964A045130852A047261790A049246314A050090176A049529240
845A047579265A044193579A038788214A030725188A020631774A009337422I93520561
838I63801121I24656015I03255184H99124031I00596446I02922623I04647052
831I06022083I08024925I11069631I15086900I19777104I24725787I31232012
824I41500058I52139389I59517291I64997142I70940276I78172573I85297383
817I91225700I96363899A000940488A003718566A002028080I92301103I74358491
810I58010057I54022219I63167517I78840793I93323773A003562387A010146601
803A014094502A016868000A021643196A029695178A036905182A041597541A044608776
796A046571816A048039652A049990031A053059251A056530872A059511262A062027089
789A064783212A068200820A071274890A072344164A069891979A061357791A042920176
782A013065300I76576104I43341738I24027867I25340736I44845672I68792704
775I84087892I89892560I89689306I84430758I73540086I57970525I39535940
768I17785441H89579700H54330638H24860113H12026471H08898186H08451606
761H09036383H10218666H09085143H01826311G90151043G81789196G83656806
754G95923586H13780061H33379418H52306514H67792362H79916433H91681947
747I05337362I20405724I34571296I46566801I56406787I63713839I67598299
740I67337463I62171585I51734834I36337884I15536511H89650953H63253420
733H44642251H39755797H47699686H63425493H81650964H97778902I09344596
726I16894234I21921983I24977532I25601436I23218216I18296742I12916969
719I09412348I09133395I12102336I16187491I18197068I17183491I14628669
712I12539757I12636602I16013398I22678226I31282523I39155427I43471247
705I42740057I35914404I21793551I01492704H80027691H65050517H64449577
698H79951993I03364152I23961058I34720403I33854248I26365695I21506921
691I25577596I38050729I54152401I69666334I83042594I94143659A002868912
684A009235997A013839861A017834637A022231273A027185075A032214102A036773518
677A040447585A042945835A044225098A044527286A044056191A042654356A039953593
670A035818129A030635414A025349590A021201735A019147304A019389013A021326058
663A023839595A025867087A026871842A026809815A025778121A023685101A020163373
656A014799561A007478366I98538343I88649934I78579082I68980873I60303167
649I52791042I46474668I41072739I35942892I30175534I22687722I12199114
642H97363302H77252172H51788410H21839046G89407461G58161524G33490240
635G21016770G23679146G39459302G62010224G83521505G97423950G99948330
628G90689889G72247290G48977704G25253053G04195761F87439472F75347054
621F67268403F61969784F58093472F54437657F50232354F45464970F40854640
614F37309072F35378695F35193287F36668868F39583391F43587258F48344944
607F53708150F59693039F66252940F73138129F80083458F87054515F94082277
600G00878433G06906155G11990610G16685326G21791804G27549194G33516640
593G39169641G44265545G48648578G52114542G54675627G56839497G59499582
586G63437853G68814394G75176630G81970967G88888751G95733464H02254438
579H08215419H13460430H17848177H21244975H23699045H25611777H27593809
572H30046330H32934386H35988925H39013293H41937716H44741252H47468617
565H50277607H53403602H57088242H61488112H66450736H71253073H74485274
558H74119174H68022219H55233294H37080424H16473685G95821689G76263885
551G59070984G46597043G40872990G41704730G46887580G54087078G62093263
544G70613443G79526797G88441161G96618206H03155613H07419037H09630925
537H11292519H14869673H22510297H34455561H48181085H59016128H62565669
530H57465118H45106005H26376573H01157215G72801222G50174804G41692203
523G48231294G63893458G82216919G99845424H15877190H30207088H42695778
516H53005310H60840230H66186734H69118835H69363778H66105715H58175633
509H44443442H24377502G98876093G70832928G44409803G23208455G08967590
502G01634070G00118485G02964719G08801578G16568613G25534430G35162676
495G44884333G54016229G62034267G68883088G74869728G80316849G85467169
488G90649750G96287665H02598246H09388879H16246859H22869056H29167851
481H35152000H40767893H45893228H50546727H55022632H59672764H64614039
474H69718968H74774463H79618623H84246463H88742976H92957169H96203580
467H97226721H94286067H85303615H68646394H45010102H19043054G98041525
460G87694414G88616803G96320935H03497535H03484941G94698403G82641006
453G75666178G77971477G87448259G99454540H10831527H20672321H29294396
446H37314927H45085060H52465857H59089469H64752168H69061590H70403217
439H66390392H57011938H46857979H42082513H44885981H52348000H60292831
432H66686721H71559301H75126421H76434845H74017681H68404011H63253353
425H62530447H66756627H73144186H78879149H83027476H85732685H87096805
418H87306053H87146844H87763207H89851446H93209250H97000973I00352716
411I02838371I04621527I06137179I07615453I08991494I10221526I11433307
404I12691490I13828785I14673455I15352990I16203452I17352533I18539529
397I19480439I20311775I21436476I22953879I24531760I25889280I27109883
390I28366046I29620323I30727311I31637780I32399276I32978262I32966139
383I31263665I25850555I13840705H92787992H63989325H35139136H17414191
376H17415942H32065740H52228660H70472113H84621251H95643048I04492490
369I11190991I15745423I19089151I22646169I26889927I30658482I31783520
362I28078944I18529427I04828284H91563752H83634478H83014411H88141564
355H95875801I03331758I08384089I09906475I08293304I05270958I02590331
348I00950693I00294258I00623048I01984205I03858212I04880074I02497594
341H92042053H67245367H24846846G70680723G19816708F88092674F82406133
334F98662166G27315027G59601277G90070091H16078491H36141602H48419090
327H50641889H42087968H26092031H10158390H02311885H06187725H19429627
320H36654654H53399561H67576312H78755163H87242343H93541003H97830692
313H99622132H98168776H93757121H88751462H86621198H88939765H93155372
306H93954246H87765699H76569068H66999212H64974953H71210711H82005413
299H93275924I02983034I10795595I17084019I22378193I27072034I31287708
292I34960833I38082449I40848203I43385312I45359330I46128976I45274405
285I42983383I40342088I39094747I40261271I42994630I45600097I47510135
278I49362726I51370956I52497677I51092273I45604744I34569073I16069700
271H87344576H45968117G93399677G37956311F92549721F67619822F65458915
264F80610451G04718309G31084458G56282332G79117056G98839052H14549908
257H25927838H33979954H40928180H48986222H58707273H68798329H77949554
250H86190848H94029002I01274768I07409168I12240734I15517250I16674479
243I15662047I13022031I08186694H99090896H85640621H72691679H66655135
236H69031755H75485651H80908460H83285619H83392028H83359701H85725074
229H92011478I01545505I12134123I21918144I30275882I37274955I42996314
222I47513098I51042773I53857622I56155581I57858795I58374272I57060662
215I54426640I52450130I53078952I56434601I61150531I66343214I71972374
208I77034403I80342976I81926177I79450219I66946781I41897609I13982269
201H99693857I06149840I24636013I40822476I46052469I38720902I21897199
194I02685830H89679710H87814526H95909273I09012507I22369573I33458044
187I41852015I48249878I53382621I57398544I60158707I61862999I63228264
180I65211576I68366530I72123636I75186594I77067538I78532208I80256839
173I81877687I82606049I81976486I79847905I76578394I73339727I71427602
166I71106759I71782792I73216280I75762077I79416679I83394551I86777206
159I89186962I90881219I92412024I93973809I95056485I95176700I94666409
152I94050518I93269356I92221431I91437575I91594629I92788159I94634621
145I96742189I98841810A000694805A002262045A003942698A006139299A008404729
138A009568424A009084331A007625991A006147313A005130099A004583845A003942630
131A002291341I99381936I95970119I92795904I89980448I87572848I85693992
124I83821264I80835622I76335741I71140904I65512013I57199330I42280007
117I18579264H88791332H60736313H43695145H42522830H54738426H73815370
110H94758306I15414209I33909137I48161653I58053496I65412878I71888123
103I77561328I81463636I83727113I86154378I89789249I93523323I96081646
96I98094726A000924729A004451844A007396876A009044865A009652742A009585732
89A008668865A006396296A002121222I94475345I81135317I60767123I35960133
82I12783150H96463002H87473613H81614058H75357220H70737731H72572878
75H82722124H98982803I17928554I37079176I54355050I67723902I77006453
68I83931242I89684255I94205551I97474591A000000588A001864157A002533455
61A002489477A003882758A007572989A011728657A015498357A020068750A025434785
54A029299849A030040265A028477470A026563055A026005149A027869863A031671351
47A035429939A037520602A038143565A039144953A041847939A045272012A047311896
40A047357625A046918453A047263069A047577581A046424258A043781616A040101689
33A036019497A034616652A036665695A035647471A023970990A001684339I80257175
26I73250829I83578679A002210861A016641107A020460038A016653836A013902764
19A020467581A036494431A050418225A055146346A056353951A059219648A062721777
12A063808965A062463567A061467433A061503867A059005483A051563803A040697309
5A027601753A011388553I89057116I58332045I29005038
##END=


$$ === CHEMSPECTRA PEAK TABLE EDIT ===
##TITLE=X8900
##JCAMP-DX=5.00
##DATA TYPE=INFRAREDPEAKTABLE
##DATA CLASS=PEAKTABLE
##$CSTHRESHOLD=0.93
##MAXX=3997.453
##MAXY=0.9502973011699606
##MINX=373.96442
##MINY=0.5621672299872558
##$CSSOLVENTNAME=- - -
##$CSSOLVENTVALUE=0
##$CSSOLVENTX=0
##NPOINTS=35
##PEAKTABLE= (XY..XY)
410.79424919471285, 0.8675602718466427
481.62084379984344, 0.7706319136235743
532.6159919155589, 0.745660785835924
644.5220113917121, 0.7857454463681516
657.2707984206409, 0.7962590502412539
708.2659465363563, 0.7670186800906496
747.9288395152462, 0.588953319520637
800.3405195230648, 0.7655316630201835
830.0876892572319, 0.710072759280127
847.0860719624702, 0.603952172301413
878.2497735887409, 0.7814971846053187
906.5804114308053, 0.723438803449986
974.573942251759, 0.7633681937347986
990.1557930648942, 0.7452710906151583
1014.2368352306485, 0.6864904204837128
1024.1525584753713, 0.6971358102448186
1082.2303660516027, 0.6196281941741051
1114.8105995699761, 0.656422320256126
1150.2238968725565, 0.6556972894467568
1239.4654060750586, 0.5621672299872558
1272.045639593432, 0.6381238729389441
1362.7036806880374, 0.7650666877494015
1389.617786637998, 0.8046133559910554
1409.4492331274432, 0.743211869405714
1443.4459985379199, 0.6919094954939027
1451.945189890539, 0.715506617002028
1476.0262320563147, 0.8177954601438071
1518.5221888194105, 0.8443414613755593
1555.352018014073, 0.7957547352389532
1706.9209304691162, 0.591925266752977
2095.0506689054105, 0.8804854800297954
2902.473847404222, 0.8047276775163581
2959.13512308835, 0.806404595303409
2994.5484203909305, 0.8005553524982725
3063.958483103995, 0.8354232353987483
##END=


$$ === CHEMSPECTRA PEAK TABLE AUTO ===
##TITLE=X8900
##JCAMP-DX=5.00
##DATA TYPE=INFRAREDPEAKTABLE
##DATA CLASS=PEAKTABLE
##$CSTHRESHOLD=0.93
##MAXX=3997.453
##MAXY=0.9502973011699606
##MINX=373.96442
##MINY=0.5621672299872558
##NPOINTS=153
##PEAKTABLE= (XY..XY)
3993.2034043236904, 0.8619266798028274
3976.205021618452, 0.8614718956908404
3970.5388940500393, 0.8617739726119359
3956.373575129007, 0.8627778340569551
3950.707447560594, 0.8623774697593963
3943.624788100078, 0.8629282162652887
3936.542128639562, 0.8627107193244412
3928.042937286943, 0.8626316238957391
3918.1272140422207, 0.8637983252782448
3896.8792356606723, 0.8608403252861524
3881.297384847537, 0.8614249278570506
3871.381661602815, 0.8592938233555103
3862.8824702501956, 0.8613836808787059
3852.966747005473, 0.8606600209859648
3838.801428084441, 0.8591028499785296
3827.4691729476153, 0.8634795592836455
3818.969981594996, 0.8600882929949181
3809.054258350274, 0.8633951589651634
3799.138535105551, 0.8623935030232026
3792.055875645035, 0.86489087768333
3779.3070886161063, 0.8638353993244385
3766.5583015871775, 0.8652605463699043
3752.392982666145, 0.8623048111781033
3743.893791313526, 0.8619000960566943
3735.394599960907, 0.8624138278136261
3724.0623448240813, 0.8624774856059529
3709.8970259030493, 0.8639775560330032
3698.564770766224, 0.8659576225165122
3688.649047521501, 0.863298241620295
3674.483728600469, 0.8624604389789838
3656.0688140031275, 0.8678953100640476
3648.9861545426115, 0.8651336476359489
3630.5712399452696, 0.8671173498363777
3617.822452916341, 0.8640928909214688
3606.4901977795153, 0.8662940909477783
3586.6587512900705, 0.8661058594040539
3575.3264961532445, 0.866482680044968
3565.410772908522, 0.8627902909010748
3545.5793264190775, 0.864289288667729
3537.0801350664583, 0.8661232042872553
3531.414007498045, 0.8647919344971693
3510.166029116497, 0.8655645898350592
3496.000710195465, 0.8648777650295126
3481.8353912744333, 0.8649933388769774
3469.086604245504, 0.8652682948367085
3459.1708810007817, 0.8670799182367186
3443.5890301876466, 0.8662692949689718
3435.0898388350274, 0.8669086147254972
3429.423711266614, 0.8669431850124003
3418.0914561297886, 0.8672916341398546
3398.260009640344, 0.8618716041787016
3382.678158827209, 0.8667431524342537
3375.595499366693, 0.8670266914472191
3367.0963080140737, 0.8665416887572125
3360.0136485535572, 0.8673372319420495
3347.2648615246285, 0.868280713758196
3337.349138279906, 0.8683320333008694
3331.6830107114934, 0.8685699745116399
3321.767287466771, 0.8696210427494478
3307.6019685457386, 0.868495945898752
3296.269713408913, 0.8674325394112905
3282.104394487881, 0.8690240426316631
3270.7721393510556, 0.8688007637680707
3255.1902885379204, 0.8693527032988919
3241.024969616888, 0.8702496934291802
3233.942310156372, 0.8699081590671331
3226.859650695856, 0.8697471068969731
3216.9439274511337, 0.8695028474332598
3198.5290128537918, 0.8704446007793127
3190.0298215011726, 0.8703662797547744
3170.198375011728, 0.8689164562100016
3160.2826517670055, 0.8679209397442511
3147.5338647380768, 0.8685984655045993
3139.034673385457, 0.8688051747741874
3129.118950140735, 0.8679872198903348
3119.2032268960124, 0.8677710345688823
3093.7056528381545, 0.851349060583933
3076.707270132916, 0.8426813530265451
3063.9584831039874, 0.8354232353987483
3032.794781477717, 0.8620798038444174
2994.5484203909305, 0.8005553524982725
2966.217782548866, 0.808510784346643
2959.13512308835, 0.806404595303409
2947.8028679515246, 0.8100668233964491
2927.97142146208, 0.8141610070517624
2902.473847404222, 0.8047276775163581
2869.893613885848, 0.8267307327475872
2854.311763072713, 0.8263051556205234
2813.2323382017203, 0.8514604614992468
2800.483551172791, 0.8547148157869231
2790.5678279280687, 0.8554846098120571
2757.987594409695, 0.8614477564067646
2738.15614792025, 0.8615492033522159
2709.825510078186, 0.8637402104496638
2697.076723049257, 0.863318865551984
2688.577531696638, 0.8635931657020176
2680.0783403440187, 0.8638772419302143
2670.1626170992963, 0.8645988149143633
2650.331170609851, 0.8662800835252644
2629.0831922283032, 0.870768909737658
2622.0005327677873, 0.871123199200057
2602.1690862783425, 0.8723312068581405
2579.504576004691, 0.8754576490486986
2568.1723208678654, 0.8747501418992634
2556.8400657310394, 0.8772948428316791
2534.1755554573883, 0.8770302585775424
2522.843300320563, 0.8784284643234095
2511.511045183737, 0.8805031824664621
2498.7622581548085, 0.8819063355486441
2481.76387544957, 0.881983583027753
2469.015088420641, 0.8829243823078764
2096.4672007974978, 0.8802799629001028
1706.9209304691162, 0.591925266752977
1609.180229913995, 0.8719555783571219
1555.352018014073, 0.7957547352389532
1518.52218881939, 0.8443414613755593
1476.0262320562938, 0.8177954601438071
1451.945189890539, 0.715506617002028
1443.4459985379199, 0.6919094954939027
1409.4492331274432, 0.743211869405714
1389.617786637998, 0.8046133559910554
1381.118595285379, 0.8076280998951009
1362.7036806880374, 0.7650666877494015
1352.787957443315, 0.8155643389106769
1272.045639593432, 0.6381238729389441
1239.4654060750586, 0.5621672299872558
1150.2238968725565, 0.6556972894467568
1114.8105995699761, 0.656422320256126
1082.2303660516027, 0.6196281941741051
1024.1525584753713, 0.6971358102448186
1014.2368352306485, 0.6864904204837128
990.1557930648942, 0.7452710906151583
974.573942251759, 0.7633681937347986
963.2416871149335, 0.7851545255443105
906.5804114308053, 0.723438803449986
878.2497735887409, 0.7814971846053187
864.084454667709, 0.7967904251376192
847.0860719624702, 0.603952172301413
830.0876892572319, 0.710072759280127
810.2562427677872, 0.7846893113145293
800.3405195230648, 0.7655316630201835
773.4264135731037, 0.8311301511229175
747.9288395152462, 0.588953319520637
708.2659465363563, 0.7670186800906496
699.7667551837371, 0.7818027777638343
675.6857130179824, 0.842950110212833
657.2707984206409, 0.7962590502412539
644.5220113917121, 0.7857454463681516
607.6921821970286, 0.8594618487032775
583.6111400312743, 0.8774552984893748
532.6159919155589, 0.745660785835924
481.62084379984344, 0.7706319136235743
409.37771730257964, 0.8613594221151306
##END=

##END=

