##TITLE=LSH-R340B
##JCAMP-DX=5.0
##DATA TYPE=LINK
##BLOCKS=1


$$ === CHEMSPECTRA SPECTRUM ORIG ===
##TITLE=LSH-R340B
##JCAMP-DX=5.00
##DATA TYPE=INFRARED SPECTRUM
##DATA CLASS=XYDATA
##$CSCATEGORY=SPECTRUM
##ORIGIN=Angelika Moesle
##OWNER=
##XUNITS=1/CM
##YUNITS=TRANSMITTANCE
##XFACTOR=1.0
##YFACTOR=8.5894819e-10
##FIRSTX=3997.453
##LASTX=373.96442
##MAXX=3997.453
##MAXY=0.9222885953931504
##MINX=373.96442
##MINY=0.4844754929390435
##NPOINTS=2559
##XYDATA= (X++(Y..Y))
2559A000750874A001095269A001397335A001460691A001426064A001503992A001703149
2552A001828402A001714737A001413088A001049332A000634294A000219119A000021349
2545A000134182A000323901A000334241A000255897A000408075A000886051A001388384
2538A001623208A001739302A002025130A002335593A002256555A001739025A001181039
2531A000961272A001119349A001384151A001490668A001500175A001588096A001600586
2524A001276107A000831161A000723741A000935875A000957803A000508347I99981379
2517I99957855A000497591A001123859A001424329A001408577A001275760A001132811
2510A001008806A000951210A001088816A001589067A002382710A003032364A003080453
2503A002552722A002070652A002171202A002558759A002497624A001853522A001345638
2496A001615159A002398254A002883170A002649108A002068015A001612036A001227393
2489A000828177A000740049A001250639A002194171A003106336A003608253A003725943
2482A003716922A003681531A003599232A003519429A003504372A003538236A003622409
2475A003755851A003791033A003566964A003136244A002738555A002650149A003136175
2468A004227998A005521129A006528502A006965328A006857839A006597964A006509557
2461A006506573A006346415A005973222A005552425A005303236A005259450A005281864
2454A005306914A005416485A005665605A005956498A006157112A006250445A006280839
2447A006317964A006448700A006527877A006250584A005696901A005390671A005641525
2440A006065653A006082932A005667131A005303098A005298865A005543751A005845956
2433A006141152A006361821A006485617A006621904A006790528A006904887A006968589
2426A007026602A007142418A007553291A008399395A009269856A009542569A009095889
2419A008364421A007555234A006707187A006156002A006192711A006712947A007467592
2412A008212521A008670582A008681892A008329932A007764453A007051236A006349191
2405A006024642A006290346A006857422A007268851A007319785A007090235A006831955
2398A006766518A006849650A006929660A007121808A007674867A008516044A009232592
2391A009486847A009332032A008966055A008329864A007368915A006513652A006515941
2384A007378144A008150900A008305020A008018499A007763135A007836968A008057151
2377A008256794A008511534A008789243A008748093A008310365A008062980A008435965
2370A009209138A009955316A010435860A010666729A010781921A010788166A010643760
2363A010606357A011054772A011889218A012543452A012640185A012396686A012361227
2356A012769741A013411553A014016865A014289508A013950595A013099842A012318134
2349A012060479A012213282A012529086A012879867A013086796A012998181A012732061
2342A012593899A012739555A013049046A013347920A013529382A013558735A013514254
2335A013460752A013248134A012757042A012466912A013076040A014226847A015209376
2328A016069706A016983745A017526187A017324185A016617630A015927520A015575492
2321A015493400A015493331A015583264A015827109A016034871A016041324A016080323
2314A016497164A017150912A017522787A017595094A017618618A017553181A017305727
2307A017011710A016856271A016786184A016626859A016359489A016012735A015419081
2300A014498796A013811046A014059333A014787123A015267805A015661955A016349497
2293A017102129A017216766A016556356A015818852A015466337A015360791A015320960
2286A015442327A015767362A016008085A015982618A016008987A016444218A017201638
2279A017909026A018374512A018745831A019180368A019564595A019700327A019685060
2272A019832728A020208627A020446089A020145133A019461477A018899189A018692260
2265A018655135A018408375A017865864A017479208A017708273A018389777A018961989
2258A019149696A019059902A018769494A018211925A017521330A017114689A017280954
2251A017889527A018431830A018499279A018265288A018198671A018390125A018499279
2244A018326145A018106100A018149333A018498724A018993632A019471886A019850700
2237A020061446A020071438A020005862A020101069A020438109A020811441A020948491
2230A020752457A020328746A019948544A019997396A020723729A021884389A022753740
2223A022742012A022055997A021490517A021494264A021701887A021565461A021160832
2216A021026697A021412450A022026436A022442375A022473463A022183332A021819923
2209A021736444A022146485A022907999A023625241A024009884A024134444A024242627
2202A024398969A024542403A024748430A025126064A025557617A025845804A025986463
2195A026037258A025944758A025762464A025759133A026046696A026336618A026277426
2188A025863638A025341181A024868826A024490844A024383980A024863830A025957041
2181A027125056A027670829A027358216A026470823A025466435A024730735A024430195
2174A024411320A024346022A023994895A023355998A022685665A022338772A022416838
2167A022656243A022685318A022236765A021195529A019720103A018264247A017234877
2160A016645179A016155822A015325887A013832280A011665982A009150154A006646677
2153A004243473A001763520I99010161I95952723I92647137I89045245I84994938
2146I80475884I75730680I71086927I66738509I62740733I59114969I55872253I52993779
2138I50470803I48409427I47059671I46602444I46856906I47415517I48131856I49165181
2130I50483224I51774343I52950548I54233894I55610782I56703646I57301672I57504367
2122I57283421I56424410I54953287I53192728I51410518I49706929I48116243I46561086
2114I44872486I42995694I40982129I38751782I36128950I33105167I29847671I26563111
2106I23525728I21046399I19203609I17758439I16414165I15002027I13448465I11828009
2098I10420381I09453325I08853079I08479470I08377046I08459762I08271431I07542808
2090I06643897I05970233I05253061I04023355I02435652I01071949I00095040H99117298
2082H97948588H97057240H96989236H97518701H97782393H97277839H96296350H95264621
2074H94123529H92637348H90951872H89455559H88233625H87004474H85581162H84092760
2066H82667019H81176606H79479263H77698857H76096721H74852026H74067890H73805655
2058H74046100H74802618H76226693H78343029H80779888H83109398H85381936H87935792
2050H90722876H93219691H95096691H96680855H98548278I00786537I02880251I04323547
2042I05130236I05664212I06222961I06948947I07902262I08991934I09989869I10775601
2034I11471470I12301545I13386775I14640283I15811422I16715608I17438678I18200679
2026I19009310I19574166I19567712I18866154I17605221I16158038I15057957I14770602
2018I15337679I16174970I16431237I15821276I15004455I14836178I15314779I15585549
2010I14959420I13644430I12442897I11993580I12415071I13400584I14373122I14701210
2002I14172300I13232654I12395155I11577849I10487413I09362491I08717001I08655311
1994I08972990I09577677I10357650I10997033I11225682I11028190I10550284I09980293
1986I09473241I09099770I08910051I08917406I08893397I08408897I07294730I05907850
1978I04780220I04111136I03691172I03224785I02589496I01747763I00583217H99023202
1970H97252858H95606241H94196739H92781893H91084828H89175629H87377806H85843743
1962H84384626H82729473H80812781H78784227H76782112H74712686H72351603H69737236
1954H67266582H65227550H63426535H61483195H59334523H57259060H55535348H54270113
1946H53445937H52903078H52340096H51567063H50714228H50015306H49503327H49091274
1938H48784836H48651117H48706145H48951795H49385707H49906220H50356648H50742609
1930H51252159H51979047H52746321H53330259H53775760H54352967H55228494H56258488
1922H57100845H57546970H57750359H58053536H58579809H59138836H59518066H59662958
1914H59543048H59074023H58224380H57106257H55973770H55163750H54910745H55139116
1906H55475115H55494405H55013030H54234098H53564876H53209239H53082389H53157125
1898H53532677H54075813H54455738H54704302H55276583H56387766H57718578H58896170
1890H59888553H60825631H61747094H62641774H63530345H64430368H65370013H66463641
1882H67796464H69171548H70161711H70548991H70598607H70788118H71327437H72028788
1874H72653946H73308943H74320479H75697852H77015479H77968725H78724341H79543798
1866H80397952H81150445H81851241H82697414H83845723H85288048H86791647H88013095
1858H88762396H89119005H89300744H89530850H90002789H90809686H91877499H93063905
1850H94310334H95591252H96761628H97628688H98216097H98805864H99608181I00468025
1842I01041971I01226694I01245638I01317321I01420507I01375056I00939340H99908790
1834H98347249H96610699H94964845H93405177H91953901H90781443H89941168H89347168
1826H89027615H89046559H89223649H89259594H89112274H89055580H89384362H90140464
1818H91106825H92045499H92894101H93680597H94304436H94465566H93840685H92393711
1810H90506440H88648662H86902744H84999097H82807818H80586491H78743285H77523363
1802H76887033H76595515H76470261H76615153H77320043H78742244H80756850H83084764
1794H85452369H87630326H89489978H91108352H92693071H94351970H96047647H97736108
1786H99336509I00630265I01458813I01993899I02580613I03364541I04241872I05101091
1778I05953371I06863247I07851467I08871399I09841368I10695661I11426226I12076921
1770I12659957I13047583I13003242I12404246I11457175I10627101I10279097I10372292
1762I10555280I10578457I10533907I10625505I10781916I10639522I09927069I08725952
1754I07326651I06027829I05128016I04866544I05261319I06189514I07647453I09704596
1746I12235136I14912995I17425424I19557998I21220852I22545418I23803437I25118843
1738I26356598I27315049I27909119I28168647I28163790I27989406I27792054I27708297
1730I27691018I27496441I26971348I26266249I25636928I25145698I24693536I24221250
1722I23744731I23275775I22832981I22496219I22347025I22369786I22487476I22693988
1714I23054344I23587279I24262608I25085118I26048495I27001741I27688520I27974001
1706I28033818I28266352I28922529I29855651I30746235I31463894I32024308I32351841
1698I32376892I32300976I32506934I33168523I34077982I34908403I35567494I36160801
1690I36673890I36952362I37030290I37195653I37631645I38201013I38660045I38924153
1682I39069253I39204152I39382560I39558262I39617454I39536958I39500527I39727164
1674I40145254I40401035I40283554I40014796I39979891I40265927I40618304I40810452
1666I40889004I41016201I41227848I41485989I41888049I42618268I43651454I44663129
1658I45336723I45670501I45910808I46260754I46699871I47039131I47157584I47188603
1650I47340781I47576993I47722648I47839783I48171965I48764231I49439699I50053545
1642I50519031I50736646I50717286I50664270I50794242I51135723I51578725I52076478
1634I52671451I53266908I53579383I53520191I53409788I53564325I53869236I53997473
1626I53865488I53685554I53680488I53875481I54128071I54283024I54270880I54100105
1618I53857995I53706996I53755016I53930302I54079565I54176784I54346102I54690012
1610I55172984I55692318I56171405I56552231I56810164I57020978I57285850I57591386
1602I57905110I58347210I59014767I59698978I60063774I60091740I60120746I60430029
1594I60952484I61417346I61640721I61649812I61621569I61779159I62245824I62891453
1586I63378451I63453117I63166109I62787781I62585154I62669883I62947384I63214475
1578I63356314I63396215I63350069I63158615I62829347I62549487I62563226I62883820
1570I63176865I63080409I62648926I62267059I62154573I62236248I62447133I62828445
1562I63345905I63837760I64122270I64152664I64183960I64608920I65414082I66065540
1554I66168727I65951320I65942160I66439636I67323628I68134619I68411981
1547I68205885I68080423I68417533I68999737I69543844I70257130I71408770
1540I72610719I73083907I72620365I71865373I71585582I71951073I72590526
1533I73093553I73247743I72967883I72371245I71923941I72105957I72860255
1526I73690052I74283081I74700338I75004625I75059098I74720879I74038333
1519I73252809I72706966I72696280I73267798I74120424I74790826I75010523
1512I74870836I74700685I74847104I75435552I76215664I76797383I77117491
1505I77456265I77960541I78458086I78856122I79426460I80417802I81530374
1498I82170937I82233945I82160736I82153173I81936737I81457165I81170226
1491I81381110I81819949I82096618I82196265I82360240I82716849I83188857
1484I83644697I84012686I84269855I84429944I84531881I84575182I84511133
1477I84319956I84013796I83603755I83177338I82914479I82902890I83039524
1470I83165125I83189065I83131886I83160267I83472673I84037667I84579553
1463I84898968I85065302I85246139I85498381I85810509I86198900I86631007
1456I86944801I86989836I86838074I86776385I87037301I87504244I87800342
1449I87806379I87875980I88266867I88656022I88594054I88156257I87781675
1442I87726092I87973615I88455547I89059956I89526552I89591295I89296932
1435I88990078I88959753I89260709I89847632I90569870I91089204I91168381
1428I90967697I90773329I90627396I90463630I90320334I90230401I90154832
1421I90130198I90252121I90487709I90696928I90885953I91282115I92050292
1414I93015751I93826187I94354334I94762708I95195858I95559198I95550732
1407I94999685I94383201I94582289I95675569I96626941I96686272I96236539
1400I95828024I95469959I95171570I95133196I95318266I95537339I95811509
1393I96309331I96937612I97271529I97185413I97146553I97559994I98155175
1386I98314431I97903765I97406012I97251822I97359241I97394701I97192769
1379I96859615I96677737I96908675I97493030I97980444I97940543I97417878
1372I96907565I96885637I97371455I97997723I98483748I98862493I99235131
1365I99544831I99686461I99728652I99920175A000406548A000968767A001221148
1358A001063349A000713471A000328898I99881593I99379468I98947984I98738211
1351I98938409I99737048A001047042A002355161A003068795A003040968A002634883
1344A002276054A002064476A001859282A001577895A001269514A000965436A000573368
1337I99849950I98331085I95476551I91355672I87214044I84724376I84361245
1330I84987652I85406436I85789206I87029321I89167862I91269902I92719028
1323I93931872I95569051I97515514I99081011A000000531A000721174A001672893
1316A002813430A004054794A005555687A007152133A008035501A007706718A006965120
1309A007101060A008156452A008822760A008252214A007152965A006711420A007165734
1302A007962430A008775642A009687461A010578115A011010431A010870743A010716067
1295A011214722A012431105A013913470A015312077A016468644A016900405A015882346
1288A013495310A011139709A010386937A011469809A013341814A015103275A016733238
1281A018418506A020003989A021367344A022581646A023391041A023293822A022403307
1274A021559771A021322725A021203995A020169629A017853164A015125342A013531186
1267A014124978A016457957A018672692A019229706A018814114A019856529A023491244
1260A027614968A029346661A028284191A026065362A024104952A022593651A021200039
1253A020049788A019631281A020060405A020889160A021546863A021796052A021857604
1246A022119491A022658255A023066006A022674077A020947450A017879604A014186183
1239A011042767A009462837A009784610A011589026A014047119A016467534A018616969
1232A020504864A021985425A022759638A022755544A022349181A022177503A022686220
1225A023735853A024675290A024984781A024804638A024665643A024852380A025236398
1218A025569622A025712362A025624303A025365469A025167769A025259506A025432571
1211A025097821A024082052A023033114A022671648A023025481A023633291A024030771
1204A023932442A023565494A023788383A025162912A027015555A028161713A028365866
1197A028347060A028631501A029159995A029800211A030519534A031214085A031871441
1190A032700891A033800000A034966212A035929034A036408259A036025281A034732081
1183A033419104A033416745A035004517A036979846A037997072A037805826A036922459
1176A035820851A035005696A035091812A036047834A037061799A037651150A038117052
1169A038785650A039673806A040666814A041264492A040684162A039078833A038165974
1162A039606217A042894940A045807833A046953922A046809793A046484619A046681972
1155A047370624A047575818A046364848A044505334A043777961A044580001A045569331
1148A045584736A044765002A043965043A044034367A045271776A046755320A046902502
1141A045381000A043436550A042138284A041553373A041664402A042673092A044158649
1134A045202799A045646565A046206494A047287075A048673748A050107121A051374091
1127A052124156A051965802A050762395A048914540A047274793A046576356A046914298
1120A047868447A048977062A049874725A050116281A049381205A047959073A046665318
1113A046074995A046121766A046555816A047368404A048474660A049381483A049653016
1106A049470722A049434221A050056256A051335578A052493324A052476670A051149884
1099A049629631A049064775A049502087A050207810A050562961A050341668A049516729
1092A048212911A046788212A045620751A044762573A044183145A044178357A045042433
1085A046459291A047718420A048478477A048919259A049332769A049843846A050381222
1078A050834703A051276248A051856231A052434063A052607127A052255863A051772335
1071A051619393A051813832A052056151A052281816A052676521A053218963A053614292
1064A053733231A053852725A054374419A055393865A056599284A057605893A058312310
1057A058856903A059321972A059589411A059568177A059447295A059583097A060100765
1050A060712114A061113134A061367319A061685067A062098994A062566076A063169722
1043A064031509A065103278A066155129A066904154A067092000A066682237A066050139
1036A065657724A065670215A065934670A066210158A066417851A066662321A067075346
1029A067636940A068119565A068327188A068294018A068216228A068326286A068697259
1022A069182382A069654322A070192392A070865986A071474628A071684749A071339521
1015A070646844A070071926A069888452A069966172A070066305A070155405A070395157
1008A070928439A071656853A072272435A072574917A072646530A072720780A072946931
1001A073238033A073424144A073479033A073456481A073340525A073109240A072863382
994A072699059A072619328A072696077A073025761A073481462A073741823A073578612
987A073001543A072075360A070843780A069464672A068125950A066775084A065180581
980A063386505A061770837A060491376A059383315A058305162A057213825A056082448
973A055065014A054485586A054354642A054361998A054376985A054517992A054897015
966A055429186A055871703A056185843A056704900A057721016A058961894A059779408
959A060164190A060545641A061122363A061827184A062456713A062799166A062754893
952A062376704A061801023A061091483A060064126A058552408A056701985A054515702
945A051788504A048461962A044417136A039181465A032773683A026105124A018840552
938A008373234I93398381I76918195I59969331I40711845I21393848I05581149
931H93005823H82908298H76381994H74130343H75658715H79937532H83882987
924H84302048H80520221H71720269H55089570H28368563G96868488G71941418
917G59432154G58809216G66625321G76875718G85287349G91030419G93920760
910G93493440G90566738G87429638G86238930G89189573H01518208H28589509
903H58571898H78416654H92749348I07730445I23471254I36522891I46544709
896I55330158I63591625I71139874I78182667I85333227I91832815I96159721
889I98505815I99438521I98534752I95064706I88916244I80605232I71955375
882I66199607I64770535I66169421I68004369I67345695I61378348I48543007
875I26952265H94377368H51298583H02775810G56156615G17478430F90218730
868F75855295F74166695F83260942G00336031G22690856G48043302G74485628
861H00834483H26757543H52049966H76157717H98436071I18175836I34345907
854I45762099I51817158I53162195I51380193I48196253I44971648I41685839
847I36174818I24447608I03612341H77397208H53249139H35580674H26419047
840H25734836H32071907H44421568H57884565H64471310H64679418H61718922
833H56847354H50118423H40951939H28927034H13704728G94411018G70735028
826G42784801G07593248F65338153F29830656F09170051E99658755E99548421
819F10048839F29024869F52471239F79452815G09771620G40210058G66890817
812G88768429H04444702H09383304G99664524G74849315G39642010G03386669
805F74152192F56510443F52960734F64733188F89683227G12649400G17702986
798G06899807F86173280F59821580F33999902F17158110F15159118F25899981
791F43716600F65639109F89517587G09868353G20622055G20243657G09551299
784F89317112F62150604F34187955F12202716E99432396E95061634E95863603
777E98074522E99073081E97958151E94844019E90453619E86716550E86643063
770E91442741E99074608F07557020F17221535F29738502F44233366F57155656
763F68057094F78488328F89250842G00423119G11799272G22778082G32787756
756G41868471G50113769G57183417G62961878G68044538G72998129G77446957
749G80883834G83536852G85834371G87905185G89635975G90954643G91863616
742G92362202G92442212G91911844G90090358G86038455G79314729G69863803
735G58009744G45615047G36391036G33851822G39003112G50549416G66076078
728G82330878G96705762H08911920H19735916H29074979H36000777H39801340
721H40402835H38639222H35830765H32937649H30571917H29360461H29844405
714H32199867H36188206H41192939H46476283H51605992H56560415H61426016
707H65962765H69465495H71098095H69976433H65100146H55828740H41892139
700H22930890G99927522G77096455G59396208G48912167G45539548G48689347
693G57245038G68868298G79925869G86253711G84552620G73660759G54848356
686G31366943G07542869F87664180F75219173F72007406F77293803F88605560
679G03251353G18795571G33117163G44774841G53328935G59308219G63877166
672G68327382G73562082G79830801G86857426G94155307H01172494H07179671
665H11116731H11780957H08575088H02438840G96218626G93900775G98526763
658H10060298H25478014H41103492H54701526H65766176H74692215H81993287
651H87904912H92307803H94861867H95089336H92302529H85637440H74400905
644H58490640H38484685H15347667G90108400G63792160G37475087G12159280
637F88508133F66701926F46454206F27148771F08235541E90033377E74511780
630E64952707E64033429E71818098E85522581F00976243F14520428F24276889
623F30186987F33052346F33578203F32152185F29148943F25194259F21190375
616F18187896F17217441F19135244F24439684F33054219F44257099F56896683
609F69798570F82161278F93734575G04641078G14964546G24538989G33161852
602G40875949G47890083G54315144G60161886G65506712G70446494G74939872
595G78867216G82166140G84781963G86630304G87717617G88141883G87909002
588G86936603G85348623G83692499G82798098G83388282G85737915G89605789
581G94379861G99223464H03234148H05758303H06653260H06068003H03805874
574G98833062G89309969G73072865G48542304G16259550F80485099F49010700
567F29958546F27330926F38999222F58835095F80716454G00931628G18129195
560G32329765G44144063G54206753G62743638G69356752G73032339G72646516
553G68153138G61418378G55311413G51627707G50045834G49109797G48023733
546G47519179G49162882G53878526G61038176G68822568G75407231G79986241
539G82903505G84936708G86514627G87534767G87633929G86537318G84443466
532G82255240G81203873G81915910G83753704G85303032G85821187G86145874
525G87906850G91934535G97691276H03994483H09861141H14825348H18910005
518H22384492H25443595H28105773H30336884H32134985H33586123H35005063
511H36929874H39732711H43213651H46737893H49755708H52035046H53434279
504H53734541H52864149H51235019H49684858H48967338H49302435H50431800
497H52032201H54102807H57075516H61451344H67121274H73144621H78393338
490H82293688H84817011H85997518H85620924H83157556H77845276H69011251
483H56509481H40906695H23278408H04892007G87047770G71045213G58001209
476G48536961G42857108G41399794G45083986G54264695G67408971G81293667
469G92576417G98932709G99085858G92556154G79446852G60030526G34798476
462G05499812F75838155F50260044F31742838F20890044F16966032F19399908
455F28104723F42280659F58997821F73433424F81199357F80905133F74592141
448F65774355F57160374F49938895F44377425F40410043F37784921F36183825
441F35366728F35084855F34936632F34554972F34022801F34017666F35433414
434F38816233F44134690F50945365F58610402F66445659F73935341F80875919
427F87201748F92691117F97009697G00037921G01947813G02825838G02304422
420F99682908F94416704F86481522F76430837F65380066F55045219F47544434
413F44705236F47177972F54026188F63219389F72767879F81609398F89548119
406F96614298G02794888G08268091G13430692G18547979G23604479G28527190
399G33282040G37630457G41078645G43448749G45515330G48720643G54021266
392G61091261G68687877G75629079G81398935G86047615G89740411G92443322
385G93830341G93252370G90004866G84218218G77691636G73364313G73423367
378G77806203G84569969G91512073G97345770H01755253H04896587H06986692
371H08223268H08967434H09815481H11301731H13536381H16170732H18712583
364H20975337H23227126H25732546H28286471H30528477H32543568H34749351
357H37324788H40074330H42759338H45339424H47897860H50429718H52745696
350H54566350H55731243H56399494H56945683H57443367H57420814H56464167
343H54859603H53338586H52481241H52577211H53589996H54871261H55164375
336H53222354H48371881H40370082H28920789H13655598G94437041G71089971
329G42883338G09533465F73869418F42892146F24266827F20583190F27244602
322F36243434F41968184F43874052F44837915F47932339F54514018F64279777
315F76196429F89239391G02740623G16410618G30036062G43189915G55292469
308G65812456G74408186G81163000G86678185G91670079G96488910H01088390
301H05286087H09040504H12610268H16315693H20016054H23048857H24917669
294H25938712H26998475H28669449H30686484H32191193H32202989H29925733
287H25046253H17917413H09283309G99734749G89381374G77889405G64670184
280G48953039G29804291G06584278F79932526F52335299F27363471F08018550
273E95479169E88893326E85927695E83775761E80468406E75786314E70923246
266E67250747E65586262E66530868E70888827E79267151E91336015F05727554
259F20779016F35432650F49373623F62443025F74360301F84984238F94283123
252G01951490G07475350G10629035G11625582G10769833G08374747G05453527
245G04230691G06959971G13852390G22794182G31276594G38276017G44228444
238G49666187G54511594G58567175G61937919G64798977G67207733G69131712
231G70308957G70414295G69774912G69491374G70421304G72370195G74502768
224G76273529G77817445G79533038G81442583G83178994G84466019G85237109
217G85463329G85282422G84986879G84454361G83103148G80822768G78238449
210G75855022G73728625G71975212G70685065G69516424G68063274G66047419
203G63326466G60046625G56705164G53741961G51085682G48416357G45691310
196G43000056G40123803G36721831G32900103G29168516G25760923G22251462
189G18039262G13106975G08071710G03573682F99955135F97473240F96347205
182F96453238F97297607F98357371F99278002F99919051G00374613G00723866
175G00802280G00485989G00162203G00589245G01127384F97058758F80926575
168F50894362F17479537E96667795E95125198F05969456F18604113F28213322
161F35733745F42743715F47841643F46890131F36601499F18395658E98688230
154E84955435E81182976E86750483E98450699F12579379F26312243F38636229
147F49958811F60728889F70823430F79943351F87821423F93984319F97766285
140F98718004F96677098F91015634F80126548F62851331F41077599F20392777
133F07274315F05066520F12376475F25014809F39153343F52717999F64802442
126F75088784F83894705F91767156F98796071G04895541G10416208G15648687
119G20259409G24118331G27944084G32051501G35009777G34330839G28217768
112G17092817G04633862F96655240F97159308G04913722G14901676G23310601
105G29439772G33933220G37378979G39980785G41599853G42328891G42875913
98G44091810G46390856G49691376G53528301G57251491G60512319G63415636
91G66057620G68377692G70643499G73381384G76548462G79338946G81050168
84G81578454G80905276G78718785G74496315G67359425G56268754G41239774
77G24065801G07473129F94310186F87094258F86711003F91514289F98070224
70G02564227G02435504F97356036F88628459F77772890F65361538F51698691
63F38631163F29014668F24065033F22420498F22112533F22696680F24734325
56F28322754F32732862F37006613F40544802F43427649F46457469F50415830
49F55241253F60248414F64900910F69062801F72978208F77095688F81054327
42F83062687F81538340F77484702F74069268F73793780F77140862F83203831
35F90591368F98085144G04529981G08645933G10356530G10869063G11169603
28G11798578G13275599G16393825G21708118G28272102G33856680G37578344
21G41134020G45929604G49783460G48653263G43150083G38188096G35846582
14G35205672G34650115G32486731G28817806G27296790G32686998G44354947
7G54145895G55411061G50457054G46988812G50794857G60010125G65665899
$$ === CHEMSPECTRA INTEGRALS AND MULTIPLETS ===
##$OBSERVEDINTEGRALS= (X Y Z)

##$OBSERVEDMULTIPLETS=
##$OBSERVEDMULTIPLETSPEAKS=
$$ === CHEMSPECTRA SIMULATION ===
##$CSSIMULATIONPEAKS=
##END=


$$ === CHEMSPECTRA PEAK TABLE EDIT ===
##TITLE=LSH-R340B
##JCAMP-DX=5.00
##DATA TYPE=INFRAREDPEAKTABLE
##DATA CLASS=PEAKTABLE
##$CSCATEGORY=EDIT_PEAK
##$CSTHRESHOLD=0.93
##MAXX=3997.453
##MAXY=0.9222885953931504
##MINX=373.96442
##MINY=0.4844754929390435
##$CSSOLVENTNAME=- - -
##$CSSOLVENTVALUE=0
##$CSSOLVENTX=0
##NPOINTS=45
##PEAKTABLE= (XY..XY)
386.71320702892854, 0.6247102613633101
426.3761000078184, 0.5787539477642583
456.1232697419855, 0.5343624341966653
475.95471623143067, 0.5898491730799346
528.3663962392493, 0.5983907574520156
559.5300978655196, 0.5197207921835988
589.2772675996871, 0.49920606529401346
606.2756503049254, 0.5111817116454916
631.7732243627834, 0.5981261722052571
719.5982016731818, 0.6048976773768993
747.9288395152462, 0.48580929603376577
831.5042211493351, 0.5330488077949261
910.8300071071149, 0.6642798768619435
957.5755595465203, 0.5537683955457229
990.1557930648942, 0.5445883266387246
1019.9029627990617, 0.5299418564778821
1043.984004964816, 0.6368240111226728
1124.726322814699, 0.6710136527343399
1145.9743011962469, 0.6420802466512842
1174.3049390383107, 0.538844763418724
1201.219044988272, 0.6723830094125426
1243.7150017513682, 0.5301578037833818
1263.5464482408129, 0.4844754929390435
1307.4589368960123, 0.6819196337258473
1338.6226385222826, 0.5772195450502952
1357.0375531196246, 0.6403798453280182
1386.7847228537917, 0.7123776668335156
1409.4492331274432, 0.6303406942351022
1464.6939769194682, 0.503895997139906
1476.0262320562938, 0.5111271134627424
1495.8576785457385, 0.5283898109680965
1510.022997466771, 0.5608594406103715
1534.1040396325252, 0.514981031035308
1562.4346774745895, 0.7092634428021468
1600.6810385613758, 0.5790742624285321
1657.342314245504, 0.6753385058310367
1670.0911012744327, 0.651777802638519
1687.0894839796715, 0.7508326759439292
2806.149678741204, 0.7922483076756348
2852.8952311806097, 0.7772334801603554
2922.305293893667, 0.7528425442747776
2959.13512308835, 0.7636286607642668
3063.9584831039874, 0.7327535739524259
3116.370163111806, 0.7289473408886282
3289.187053948397, 0.7505537857740144
##END=


$$ === CHEMSPECTRA PEAK TABLE AUTO ===
##TITLE=LSH-R340B
##JCAMP-DX=5.00
##DATA TYPE=INFRAREDPEAKTABLE
##DATA CLASS=PEAKTABLE
##$CSCATEGORY=AUTO_PEAK
##$CSTHRESHOLD=0.93
##MAXX=3997.453
##MAXY=0.9222885953931504
##MINX=373.96442
##MINY=0.4844754929390435
##NPOINTS=94
##PEAKTABLE= (XY..XY)
2331.6114948866298, 0.8565876474811022
2340.110686239249, 0.8564972268640891
2314.6131121813914, 0.8562731135381471
2324.528835426114, 0.856094538209446
2351.442941376075, 0.8547678575131152
2364.1917284050037, 0.8541236506653562
2385.439706786552, 0.8504705414364416
2403.8546213838936, 0.8494651898221971
2415.186876520719, 0.8484055389391735
2430.7687273338543, 0.8475897898304932
2257.9518364972632, 0.8455153096988965
2452.0167057154026, 0.8444593540109864
2457.6828332838154, 0.8442626583112691
2486.0134711258797, 0.842774389704591
2512.9275770758404, 0.8372173891725102
2521.4267684284596, 0.8354957091257332
2538.425151133698, 0.8348323099396168
2548.3408743784203, 0.8345416770889966
2562.5061932994527, 0.8315309271102844
2571.005384652072, 0.8296942699766904
1620.512485050821, 0.8286879048035817
2613.501341415168, 0.8268107757491713
2600.7525543862394, 0.8267801396440786
2590.836831141517, 0.8264409289785729
2624.8335965519937, 0.8259831061575101
2663.07995763878, 0.8191848980045373
2672.9956808835027, 0.8191621290059168
2681.494872236122, 0.8189296117308837
2694.2436592650506, 0.8165713540141714
3396.8434777482407, 0.8130824559233764
2738.15614792025, 0.8073940268697954
2746.6553392728692, 0.8069822780296443
2776.4025090070363, 0.8007982358704334
2806.149678741204, 0.7922483076756348
3224.0265869116497, 0.7857968792396178
3232.525778264269, 0.7857405528531104
3215.5273955590305, 0.7833552348326203
2865.6440182095384, 0.7821014513512784
2871.310145777951, 0.7818825827629845
3182.9471620406566, 0.7807066431792578
3198.5290128537918, 0.7804878347173371
3338.7656701720093, 0.7802488194992467
2852.8952311806097, 0.7772334801603554
3318.934223682564, 0.7704672807116829
2952.052463627834, 0.7636526812504002
2959.13512308835, 0.7636286607642668
2922.305293893667, 0.7528425442747776
1687.0894839796715, 0.7508326759439292
3289.187053948397, 0.7505537857740144
3075.290738240813, 0.7343240370293016
3063.9584831039874, 0.7327535739524259
855.5852633150898, 0.7322372189659038
1080.8138341594995, 0.7292189592031664
3116.370163111806, 0.7289473408886282
1386.7847228537917, 0.7123776668335156
1562.4346774745895, 0.7092634428021468
1307.4589368960123, 0.6819196337258473
1657.342314245504, 0.6753385058310367
1201.219044988272, 0.6723830094125426
1124.726322814699, 0.6710136527343399
910.8300071071149, 0.6642798768619435
695.5171595074276, 0.660953222917913
1670.0911012744327, 0.651777802638519
1145.9743011962469, 0.6420802466512842
378.2140156763094, 0.6416246880176503
1357.0375531196246, 0.6403798453280182
1043.984004964816, 0.6368240111226728
1409.4492331274432, 0.6303406942351022
386.71320702892854, 0.6247102613633101
719.5982016731818, 0.6048976773768993
617.607905441751, 0.6014030569732626
528.3663962392493, 0.5983907574520156
631.7732243627834, 0.5981261722052571
475.95471623143067, 0.5898491730799346
1600.6810385613758, 0.5790742624285321
426.3761000078184, 0.5787539477642583
1338.6226385222826, 0.5772195450502952
1510.022997466771, 0.5608594406103715
957.5755595465203, 0.5537683955457229
990.1557930648942, 0.5445883266387246
1174.3049390383107, 0.538844763418724
456.1232697419855, 0.5343624341966653
831.5042211493351, 0.5330488077949261
1243.7150017513682, 0.5301578037833818
1019.9029627990617, 0.5299418564778821
1495.8576785457385, 0.5283898109680965
559.5300978655196, 0.5197207921835988
1534.1040396325252, 0.514981031035308
606.2756503049254, 0.5111817116454916
1476.0262320562938, 0.5111271134627424
1464.6939769194682, 0.503895997139906
589.2772675996871, 0.49920606529401346
747.9288395152462, 0.48580929603376577
1263.5464482408129, 0.4844754929390435
##END=

##END=

