##TITLE=X8203
##JCAMP-DX=4.24
##DATA TYPE=INFRARED SPECTRUM
##DATE=31/10/2018
##SAMPLING PROCEDURE=Diamant-ATR
##ORIGIN=ComPlat
##XUNITS=1/CM
##YUNITS=TRANSMITTANCE
##RESOLUTION=4
##FIRSTX=3997.453
##LASTX=373.96442
##DELTAX=-1.4165319
##MAXY=0.9864701
##MINY=0.72925299
##XFACTOR=1
##YFACTOR=9.1872188e-010
##NPOINTS=2559
##FIRSTY=0.94179994
##XYDATA=(X++(Y..Y))
3997+1025119747+1025651421+1026141054+1026103879+1025746986+1025472553
3989+1025347987+1025390158+1025806090+1026554585+1027161906+1027298668
3980+1027134203+1026938856+1026736307+1026460512+1026168821+1026013244
3972+1026082534+1026267046+1026306622+1026039390+1025585765+1025218621
3963+1025106318+1025281034+1025788248+1026629778+1027465144+1027655885
3955+1026933017+1025956022+1025839437+1026998803+1028612443+1029453324
3946+1029260118+1028810191+1028801821+1029122058+1029087738+1028388290
3938+1027529568+1027195188+1027524053+1028272029+1029205556+1029830718
3929+1029560243+1028763025+1028556908+1029274456+1029941011+1029765451
3921+1029197446+1028864818+1028565926+1027806142+1026783473+1026165253
3912+1026294035+1027104489+1028355268+1029733142+1030979509+1031987451
3904+1032736984+1033230639+1033449796+1033144935+1032023004+1030507848
3895+1029614416+1029924986+1030990603+1031608045+1031251801+1030729341
3887+1030708126+1030793245+1030366479+1029812034+1029717701+1029786666
3878+1029716728+1030113650+1031370009+1032795114+1033504683+1033594149
3870+1033599145+1033701198+1034009043+1034423158+1034101039+1032276092
3861+1029832081+1028442463+1028768799+1030574153+1033592268+1037156848
3853+1038633337+1036376174+1033100235+1031001308+1030353504+1030834313
3844+1032003411+1033423521+1034884374+1036258161+1036935939+1036236167
3836+1034682409+1033266322+1031939766+1030298293+1028888044+1028764063
3827+1030026000+1031739228+1033361108+1035335793+1037517958+1038132999
3819+1036559518+1034547658+1033115611+1031870541+1030454583+1029068145
3810+1028028608+1027721347+1028528881+1030270006+1032123240+1033409312
3802+1033586818+1032566031+1031617388+1031752334+1032327800+1032165021
3793+1031106929+1029837920+1028788911+1028117815+1028134034+1028916201
3785+1029779919+1029973125+1029664956+1029391625+1029134385+1028641444
3776+1028164981+1028272094+1029311696+1031103621+1032704415+1032915268
3768+1031758237+1030462109+1029826307+1029885151+1030580576+1031734687
3759+1032502191+1031980120+1030855723+1030812968+1032582964+1035359214
3751+1037119349+1036610577+1035159910+1034059128+1032910467+1030921768
3742+1028818106+1027784992+1027819572+1028570208+1029927905+1031376367
3734+1031419121+1029555312+1027515035+1026986671+1028122421+1029897023
3725+1030961214+1030796684+1030056039+1029317276+1028445253+1027425958
3717+1026828434+1027222242+1028734738+1030954272+1032583029+1032200963
3708+1030274353+1028351829+1027262920+1027031307+1027256173+1027259157
3700+1026614337+1025728301+1025363104+1026040817+1028060787+1031530387
3691+1035821209+1038760562+1037797646+1033818237+1030069728+1027951403
3683+1027180071+1027288028+1028234660+1030315939+1033473282+1036311296
3674+1036854063+1035716561+1034613704+1033508575+1031926271+1030467429
3666+1029586583+1028948186+1028263595+1027613779+1027199794+1027269862
3657+1028111716+1029613053+1031186534+1032765076+1035047022+1038226099
3649+1040083485+1037769813+1033259639+1030207983+1029561735+1030211291
3640+1030777739+1030867141+1030787990+1030514076+1029713938+1028536601
3632+1027651473+1027429007+1027356279+1026561851+1025297772+1024547136
3623+1024918691+1026669289+1029431720+1031860744+1032876795+1033178023
3615+1033665320+1033988347+1033632622+1033084794+1033112626+1033582471
3606+1033587207+1032645247+1031201716+1029931019+1029073335+1028521290
3598+1028304079+1028434419+1028473605+1028022899+1027484348+1027627923
3589+1028686015+1029970465+1030376860+1029923429+1029515412+1029314680
3581+1028964405+1028601673+1028583832+1028542700+1027939596+1027265775
3572+1027510429+1028947083+1031326670+1034289250+1036516699+1036147090
3564+1033572869+1030982818+1029737424+1029716988+1030130908+1030450431
3555+1030492796+1030115532+1029391366+1028881427+1029208021+1030407612
3547+1031787368+1032272848+1031406275+1030061618+1029541947+1030212329
3538+1031245573+1031524483+1030739072+1029575878+1028949678+1029264854
3530+1030177425+1030849300+1030718571+1030076281+1029643676+1029808984
3521+1030344810+1030592578+1029987723+1028722216+1027755213+1027813149
3513+1028588957+1029213017+1029225019+1028890315+1028745702+1029005473
3504+1029422897+1029636020+1029591190+1029499971+1029428217+1029223397
3496+1028838737+1028482752+1028361755+1028436365+1028557946+1028675699
3488+1028780152+1028828097+1028839645+1028858914+1028726369+1028184509
3479+1027309957+1026601491+1026598118+1027442437+1028696719+1029667486
3471+1029963588+1029555896+1028481779+1026963834+1025672506+1025272664
3462+1025664461+1026099078+1026103619+1025960174+1026181408+1026771471
3454+1027247739+1027388978+1027601258+1028256069+1028972255+1029028180
3445+1028371552+1027627988+1027269019+1027317547+1027548707+1027595938
3437+1027175530+1026479521+1026053923+1026156365+1026507743+1026692969
3428+1026584883+1026372797+1026303572+1026409453+1026496324+1026369294
3420+1026021678+1025690088+1025701312+1026107706+1026541739+1026614856
3411+1026331210+1025975810+1025849168+1026152472+1026863727+1027666590
3403+1028132412+1027989681+1027291207+1026406274+1025733686+1025367581
3394+1025182160+1025117801+1025141352+1025124808+1025007898+1024878532
3386+1024759351+1024584181+1024551872+1025116633+1026269901+1027217830
3377+1027280891+1026814809+1026681875+1027141080+1027734971+1027940699
3369+1027619489+1027112015+1026905379+1027016255+1027072180+1027136279
3360+1027708825+1028676542+1029133217+1028613546+1027760209+1027367763
3352+1027430954+1027530476+1027569208+1027652511+1027625976+1027220944
3343+1026536094+1026040947+1026061449+1026343407+1026250243+1025516540
3335+1024679487+1024563485+1025460356+1026939180+1028282929+1029037263
3326+1029268812+1029329148+1029393961+1029313837+1028870592+1028122486
3318+1027479028+1027350376+1027746454+1028360652+1028911400+1029200041
3309+1029075671+1028615168+1028172053+1028082586+1028370384+1028670379
3301+1028494236+1027760728+1026924583+1026423661+1026302469+1026456619
3292+1026801704+1027120708+1027170015+1027018201+1026975706+1027156196
3284+1027348170+1027389432+1027448211+1027745935+1028145388+1028312319
3275+1028213964+1028125016+1028164657+1028199042+1028223241+1028388745
3267+1028560865+1028402758+1028080899+1028207995+1028822193+1029194462
3258+1028915617+1028380116+1027951598+1027413372+1026506186+1025508300
3250+1025081405+1025635461+1026837387+1027843057+1028177308+1028256134
3241+1028780606+1029754422+1030440894+1030374524+1030004461+1029941335
3233+1030011143+1029665280+1028917239+1028234076+1027903329+1028056830
3224+1028814992+1029866531+1030417668+1030078941+1029391561+1029026558
3216+1028937546+1028799226+1028774119+1029199133+1029821181+1030015620
3207+1029630895+1029109407+1028839126+1028769642+1028669276+1028521874
3199+1028578577+1029117063+1030171392+1031376561+1032098521+1031937106
3190+1031108876+1030132205+1029327461+1028900630+1029116608+1029931668
3182+1030801290+1031227407+1031215405+1030999297+1030656613+1030230041
3173+1029948212+1030031839+1030427854+1030965820+1031569638+1032085935
3165+1032240215+1032043829+1031833106+1031730794+1031522991+1031080005
3156+1030449782+1029753124+1029319676+1029492640+1030099442+1030616778
3148+1030795905+1030641496+1030124290+1029378390+1028750828+1028409700
3139+1028343200+1028665773+1029372681+1029979937+1029973644+1029503410
3131+1029231507+1029566925+1030288561+1030845537+1030895298+1030568444
3122+1030285706+1030338452+1030602634+1030666539+1030298747+1029710889
3114+1029220413+1028795009+1028176854+1027365492+1026751618+1026710681
3105+1027143610+1027537029+1027520355+1027186105+1026736437+1026149553
3097+1025481182+1025114168+1025268188+1025535744+1025324956+1024591707
3088+1023830042+1023468413+1023498711+1023597650+1023380504+1022573554
3080+1021186467+1019544669+1018016148+1016783276+1015951543+1015589589
3071+1015524712+1015415457+1015132460+1014784521+1014509180+1014520922
3063+1015044486+1015932079+1016758233+1017363089+1017791801+1017854084
3054+1017437244+1017014111+1017131734+1017573228+1017589577+1016886302
3046+1015955565+1015314183+1014750979+1013705149+1012226714+1010997085
3037+1010407346+1010230814+1010244243+1010572914+1011325302+1012300285
3029+1013160046+1013735317+1014124389+1014515083+1014989859+1015610480
3020+1016473549+1017425631+1018064677+1018343262+1018740509+1019527412
3012+1020368617+1020949338+1021449481+1022114154+1022822295+1023332818
3003+1023665512+1024066975+1024684547+1025345198+1025747570+1025887965
2995+1026073646+1026475823+1026944500+1027299641+1027539754+1027771627
2986+1028067080+1028299602+1028179968+1027626236+1026919198+1026341266
2978+1026009417+1026139626+1026965780+1028238942+1029252527+1029507108
2969+1029107201+1028482039+1027913061+1027426153+1027080808+1027092357
2961+1027502254+1027989162+1028207606+1028103672+1027822816+1027536445
2952+1027349338+1027208358+1026994716+1026771860+1026730728+1026837387
2944+1026762258+1026271263+1025534511+1024963716+1024867567+1025332547
2935+1026194318+1026941191+1026943073+1026094147+1025050782+1024639717
2927+1025161464+1026263348+1027340709+1028111652+1028789105+1029573608
2918+1030188909+1030205777+1029624991+1028888563+1028437143+1028347417
2910+1028312059+1028022834+1027570052+1027296332+1027342525+1027567132
2901+1027775520+1027828719+1027684626+1027469556+1027361859+1027364259
2893+1027364259+1027393390+1027613974+1028059490+1028589022+1029068858
2884+1029422313+1029592811+1029645103+1029766100+1029995248+1030136552
2876+1030051173+1029830264+1029643546+1029620060+1029804378+1030046177
2867+1030060256+1029738722+1029296515+1029077033+1029285745+1029844083
2859+1030419874+1030679385+1030556117+1030270849+1030098728+1030107227
2850+1030115726+1029933744+1029560308+1029139705+1028875068+1028940725
2842+1029257912+1029494781+1029480768+1029377936+1029314356+1029235594
2833+1029198744+1029380337+1029710240+1029894623+1029849728+1029808076
2825+1029957879+1030231404+1030468662+1030562864+1030403330+1029953727
2816+1029474669+1029369762+1029720037+1030246131+1030748025+1031290598
2808+1031952806+1032619815+1033048332+1033042104+1032585624+1031841346
2799+1031068327+1030566562+1030557998+1030979509+1031489449+1031743251
2791+1031616415+1031232662+1030887642+1030854101+1031136189+1031453377
2782+1031500802+1031211447+1030795386+1030562864+1030652850+1030869866
2774+1030832042+1030374783+1029780049+1029478237+1029614740+1030090943
2765+1030836778+1031730794+1032438286+1032687158+1032597821+1032492784
2757+1032502840+1032507706+1032360563+1032075555+1031812410+1031703091
2748+1031733649+1031820326+1031926985+1032044673+1032101830+1032003346
2740+1031811113+1031794569+1032137837+1032642716+1032919161+1032848768
2731+1032631752+1032420380+1032196746+1031989916+1031893248+1031846147
2723+1031697382+1031522082+1031607786+1032055378+1032611316+1032946474
2714+1032958866+1032802121+1032745158+1032999869+1033582796+1034286525
2706+1034778169+1034789912+1034333886+1033728122+1033299604+1033079539
2697+1032908261+1032762416+1032739774+1032793492+1032799331+1032845719
2689+1033067666+1033247767+1033061957+1032660168+1032491940+1032612873
2680+1032699420+1032658157+1032664126+1032665943+1032407729+1031942945
2672+1031649956+1031724371+1032023458+1032359914+1032609629+1032625589
2663+1032369386+1032039872+1031860160+1031846731+1031906872+1032028518
2655+1032293349+1032748402+1033247507+1033489112+1033355788+1033120152
2646+1033131960+1033400424+1033635995+1033595317+1033285006+1032879520
2638+1032516918+1032214393+1031986542+1031967728+1032311580+1032947058
2629+1033519669+1033734091+1033710605+1033710410+1033588829+1033040677
2621+1032348820+1032175531+1032568237+1032913906+1032922924+1032885165
2612+1032932720+1032835922+1032606125+1032601389+1032911505+1033189377
2604+1033141886+1032751387+1032034487+1031024470+1030053833+1029683316
2595+1030141029+1031019279+1031734946+1032151981+1032495249+1032822947
2587+1032954908+1032870502+1032833003+1033076619+1033500531+1033768281
2578+1033759198+1033766659+1034030906+1034352700+1034531828+1034774990
2570+1035198966+1035475929+1035527378+1035961864+1037158730+1038395235
2561+1038534593+1037337857+1035555340+1034005345+1033123720+1033099132
2553+1033757447+1034472465+1034691297+1034369374+1033678166+1032819184
2544+1032325399+1032806792+1034107592+1035285773+1035602830+1035156341
2536+1034546555+1034239618+1034278221+1034509964+1034916813+1035473594
2527+1035860784+1035786694+1035425195+1035030089+1034466107+1033730782
2519+1033480678+1034251167+1035480276+1036068069+1035711371+1035091139
2510+1034950549+1035485856+1036397648+1037122074+1037197072+1036643730
2502+1035825102+1035023731+1034439442+1034303588+1034583860+1034875940
2493+1034881844+1034643158+1034228784+1033718650+1033495470+1034012222
2485+1035256837+1036735207+1037799592+1037899829+1036955792+1035647466
2476+1034902540+1034936600+1035133245+1034980198+1034774601+1035156471
2468+1036117571+1036858151+1036791846+1036364950+1036423859+1036951380
2459+1037110915+1036572040+1035975359+1035842489+1035887968+1035759381
2451+1035623916+1035646882+1035637475+1035492863+1035350456+1035234908
2442+1035103012+1035083224+1035190986+1035111965+1034698953+1034363989
2434+1034597614+1035350261+1036125097+1036508719+1036473685+1036317265
2425+1036386943+1036736181+1037008667+1036874954+1036573143+1036646130
2417+1037123371+1037467483+1037408509+1037257149+1037309116+1037469948
2408+1037595033+1037803745+1038311867+1039055237+1039574843+1039408821
2400+1038628795+1037760471+1037173068+1036858021+1036771604+1037024433
2391+1037680217+1038554056+1039123099+1038572027+1036258680+1032347263
2383+1027681901+1022854410+1017701037+1011888247+1005608271+999354441+993270332
2373+987119009+980767279+974343859+967865163+961106065+954272682+948555067
2363+945229237+944301485+944877340+946741733+950582823+956716109+964592987
2353+973240158+981206631+986658312+988234323+985698380+980301197+974630100
2343+970879904+969271519+968978206+969501446+970845129+972979868+975306256
2333+977009168+978062784+979180174+980608912+981888692+982890405+984140859
2323+986077007+988690090+992007162+996176468+1000726801+1004458183+1006544523
2313+1007386117+1008085759+1009411926+1011539074+1014377997+1017659515
2305+1020837229+1023330937+1025010818+1026325047+1027820675+1029549019
2296+1031015776+1031716910+1031679022+1031499635+1031819352+1032715574
2288+1033778986+1034788225+1035882259+1036935680+1037401243+1037094241
2279+1036558026+1036304549+1036191012+1035835677+1035238671+1034683966
2271+1034275431+1033895117+1033555742+1033518437+1034010535+1034918435
2262+1035737257+1035874603+1035216224+1034239164+1033357410+1032575243
2254+1031997572+1031917318+1032195968+1032560581+1033530050+1035785980
2245+1038607451+1040259888+1040162117+1039554342+1039651464+1039997911
2237+1039329995+1037616767+1036285475+1036448058+1037781102+1039192778
2228+1039930893+1040100678+1040449007+1041486273+1042837937+1043595060
2220+1042985404+1040844826+1038087390+1036358786+1036521889+1037941091
2211+1039555575+1040978150+1042316060+1043495149+1044029028+1043503064
2203+1042235222+1040948501+1039831305+1038734481+1037985467+1037958738
2194+1038170953+1037642783+1035931891+1033562683+1031624135+1030784876
2186+1030728692+1030981715+1031840438+1033756538+1036569250+1039840777
2177+1042826064+1043945660+1041979863+1038209620+1035733365+1036191596
2169+1038306547+1039708556+1039262068+1037542936+1036268477+1037343177
2160+1040795195+1043517272+1042453860+1038782556+1036252646+1037176701
2152+1040982107+1045084265+1047126229+1046781468+1045193649+1043222792
2143+1041111668+1039010990+1036862952+1034621554+1033255163+1034378003
2135+1038093878+1042328776+1045055070+1046035698+1046015781+1045508371
2126+1044744500+1043950331+1043422875+1043464656+1043843802+1043547959
2118+1042080229+1040630470+1040656810+1041770827+1042353559+1041781077
2109+1040852027+1040450758+1040672835+1040986714+1040939872+1040737713
2101+1040813360+1040939029+1040577854+1040019905+1040082966+1040763275
2092+1041312660+1041471156+1041551605+1041534801+1041125747+1040498898
2084+1040067590+1039818978+1039717380+1040279027+1041822275+1043616016
2075+1044632262+1044721858+1044339598+1043719496+1043054434+1042941676
2067+1043941832+1045835420+1047540928+1047763718+1045940912+1042826843
2058+1040144860+1039396884+1040667775+1042222636+1041589753+1037957181
2050+1033525508+1031663840+1033553082+1037562918+1041662221+1044931608
2041+1046945609+1047017429+1044600212+1040514339+1037296206+1037035072
2033+1039054783+1041337184+1043340285+1045259630+1046202693+1045651232
2024+1045115666+1046061000+1047481045+1047294327+1045176716+1042772864
2016+1041956507+1043579036+1046750262+1048866511+1048076105+1045913663
2007+1045180025+1045628720+1044789785+1042272267+1040103597+1039840583
1999+1041290082+1042967692+1043181984+1041772643+1040652918+1041642109
1990+1044220936+1046356194+1046535322+1044412975+1040827114+1037470532
1982+1035872982+1036749870+1040077581+1044667231+1047955626+1048242646
1973+1046760707+1045656617+1044965409+1043424107+1041394081+1040628588
1965+1041278794+1041731576+1041477904+1041907784+1044021113+1046708870
1956+1047762615+1045964268+1042203691+1038882792+1038107502+1040153164
1948+1043460699+1046163832+1047520232+1047598539+1046338807+1044039927
1939+1042021839+1041485494+1042238985+1043128914+1043375190+1043015896
1931+1042456455+1042118572+1042204146+1042534179+1042840726+1043097318
1922+1043337885+1043422291+1043282674+1043154800+1043279430+1043418917
1914+1043085251+1042317617+1041851989+1042163337+1042649013+1042550593
1905+1042127784+1042006074+1042095216+1041978111+1041783997+1041949241
1897+1042531194+1043242839+1043934825+1044731914+1045593815+1046021036
1888+1045815114+1045899130+1047153477+1048853146+1049386895+1048389529
1880+1047038579+1046338742+1046240193+1046332060+1046635493+1047665169
1871+1049816062+1052290047+1052937008+1050875776+1048131640+1046790551
1863+1046947555+1047477477+1047471184+1046911678+1046418672+1046594880
1854+1047464437+1048496058+1049241829+1049749043+1050316399+1051148717
1846+1052164054+1052794277+1052437709+1051459935+1050727854+1050547819
1837+1050501107+1050005635+1049143150+1048638660+1048928404+1049634080
1829+1050248602+1050951294+1051850240+1052260462+1051632381+1050472236
1820+1049660874+1049579582+1049978192+1050385365+1050727271+1051265367
1812+1051832983+1051711596+1050687695+1049525409+1049000418+1049248122
1803+1049983706+1050730774+1050975233+1050646627+1050247759+1050258658
1795+1050757244+1051364825+1051252326+1050047741+1048643915+1047982745
1786+1048057744+1048325495+1048620818+1049169425+1049756245+1049915001
1778+1049927846+1050647341+1052493698+1054906503+1056404726+1056073979
1769+1054717449+1053306422+1052145758+1051505544+1051641528+1052160096
1761+1052187864+1051549402+1050667778+1049730748+1049064907+1049388452
1752+1051017599+1053119379+1054170724+1053825769+1053027448+1052362191
1744+1051827273+1051403492+1051097333+1050780730+1050616329+1051253040
1735+1052997344+1054648938+1054431144+1052850007+1051157800+1049764030
1727+1048871441+1048621467+1048874685+1049463321+1050633782+1052957639
1718+1056475767+1059301973+1059135497+1056883135+1054768119+1053926200
1710+1054479477+1056049844+1058012722+1059612608+1060618733+1061721136
1701+1063580404+1065547888+1066138925+1065079470+1062841446+1060357924
1693+1058952866+1059165989+1060534327+1062215959+1064058683+1066526050
1684+1068776531+1068631400+1066631347+1064707785+1063649564+1063610378
1676+1064268174+1064871861+1065226548+1065842368+1066579899+1066287235
1667+1064799587+1063453892+1063139365+1063479389+1063321412+1062469372
1659+1062007118+1062919364+1065735514+1070346833+1073741823+1072719219
1650+1070940400+1071072167+1072060904+1071318313+1068582222+1066021885
1642+1064776751+1065048199+1066844081+1069715053+1071772458+1070692372
1633+1067719737+1065386472+1064340382+1064133033+1063983620+1063323229
1625+1061608833+1057543915+1050401714+1041421200+1030990798+1016873586
1616+998306535+980476043+967483422+958530222+952608242+950127510+951715264
1606+957036670+964554644+971685751+975187789+972541489+963754182+951454715
1596+939239006+929993013+924934881+923574199+924548404+926424669+927946962
1587+928179743+926775723+924192095+921803619+921539761+925134964+934170234
1577+949189767+965557395+977125689+984407961+990081654+994076439+994653786
1567+992146908+988512909+985458008+984107642+984566977+984405236+978600945
1557+969500667+963046495+960825988+963594582+971350982+982180966+993162505
1547+1003000249+1012394228+1021632047+1029783941+1036265233+1040332032
1538+1041415167+1041437939+1042111046+1043576830+1044862837+1045392889
1530+1045957066+1047048765+1047676717+1046286970+1041639384+1030805312
1521+1010769234+986052029+964267430+947560556+936923388+934087255+938648164
1511+948388591+961139672+976033860+991506954+1000622737+1000944531+997003530
1502+990391380+980126351+964894603+944873707+924383744+909337611+901382361
1492+898998946+899985608+901803029+903272770+905445463+909552811+916032675
1482+924462960+933697794+942895453+952078775+961362981+970571021+979313692
1472+986426115+991201185+994903241+999057561+1003911003+1008179702+1010605418
1462+1011853083+1013370509+1015694886+1017361856+1015679834+1011556072
1453+1007807953+1005779678+1006166090+1009129319+1013725326+1018282472
1445+1021841083+1024552326+1026734880+1028333534+1028955841+1027619424
1436+1023129037+1016464596+1010245606+1005377695+1001062868+996289031+991231093
1426+987388252+986413982+988970362+994550436+1002720950+1012877179+1021995428
1417+1027163982+1029384424+1030491434+1030804469+1029836233+1027378662
1408+1023838216+1019818908+1015774945+1012279784+1010085293+1009521310
1400+1010134859+1010931688+1011150651+1010767937+1010361997+1010761514
1391+1012474353+1015391777+1018661163+1020639482+1019884434+1016070139
1383+1009225467+999223972+986540299+972694276+959232329+946835417+936438621
1373+930566792+931811732+940683056+954988738+970500174+983703064+993125395
1363+997702783+996719754+991187885+982620319+971928459+960578998+951071158
1353+945156898+942111016+939145063+932891882+920707314+902054236+879607299
1343+858197693+842088084+833359361+831742866+835303100+841947364+850026141
1333+857569222+862065837+861837727+857731352+852940970+850834973+852961537
1323+858751425+866515999+874536581+881544226+886850969+890518446+893304687
1313+896211407+899928839+904533800+909555601+914271567+918002235+920273866
1303+920954304+920471094+919676017+919211946+919147717+919260345+919337809
1293+919144213+918377812+916780975+914227775+910695114+906128626+900385514
1283+893531046+886339343+880367278+877224857+877508373+880325756+883855237
1273+886530473+887988342+889094573+890974212+894004005+897874873+902363443
1264+907559960+913404281+919433893+925098502+930103824+934322178+937439166
1254+938784407+937608173+933737175+928231710+923368860+921558511+923897290
1244+929633784+936929032+944067600+950159171+955083395+959057159+962313895
1234+965023840+967263032+969019598+970316440+971241143+971772298+971622690
1224+970253314+967096101+962006309+955569200+948743213+942061709+935325513
1214+928290100+921736341+917643071+917868002+922535570+929853266+937371304
1204+943318716+947090711+948997858+949842697+950618116+952195814+954964474
1194+958715643+962879824+966813883+969975118+972016498+972775049+972295991
1184+971028539+969775749+969163951+969304347+970103706+971550740+973442706
1174+975194601+976268848+976646177+976742002+977072684+978037157+979657415
1164+981376287+982330055+981925542+980133423+977490626+975030850+973913719
1154+974764007+977268809+980249100+982195888+982383450+981766721+982208734
1145+984562695+988006992+991289029+993888488+995826582+997089169+997656460
1135+997775511+997834809+997961710+997911624+997441131+996675897+995982937
1125+995508681+994919526+993680749+991813955+990366856+990635321+992696358
1115+995154578+996471597+996015117+993756202+989612263+983449327+975716284
1105+968216476+963944209+965218733+971610817+980193954+987934718+993330604
1095+995858437+995030402+991051058+986021537+983134410+984037249+987512882
1085+991013883+992915256+993096460+992113691+990475267+988650190+987307544
1075+987110251+988199938+990159247+992589245+995439391+998644289+1001778146
1065+1004361255+1006348786+1007981306+1009261345+1009974482+1010135508
1057+1009960792+1009475052+1008553463+1007285232+1006034583+1005167297
1048+1004694532+1004075533+1002497641+999435928+994999714+990163010+986747454
1038+986281372+988319897+990607942+991341840+990634153+989658261+989285603
1028+989775885+990980925+992554860+994305392+996254062+998172693+999588975
1018+1000541965+1001746550+1003659926+1005675809+1006231941+1003741997
1010+998133506+991676220+987463575+986845225+988948109+992387735+996393808
1000+1000409289+1003684645+1005603276+1006112112+1005834954+1005787853
992+1006695623+1008429028+1010246903+1011595194+1012491999+1013185867
983+1013754781+1014147421+1014357884+1014433986+1014428342+1014351202
975+1014125752+1013700802+1013196313+1012785442+1012496865+1012292695
966+1012209327+1012296782+1012552141+1012974431+1013589731+1014419518
958+1015462753+1016676552+1017954320+1019122834+1019967867+1020313925
949+1020126623+1019499514+1018512983+1017095273+1015033262+1012270766
941+1009187838+1006287347+1003664533+1001306420+999836224+1000238985+1002778886
931+1006725077+1011037439+1014798080+1017254418+1018169584+1018106848
922+1017933170+1018077393+1018489302+1019124261+1020138301+1021636134
914+1023413721+1024985710+1025877779+1025993067+1025672312+1025290311
905+1024900071+1024407843+1023882723+1023463353+1023097896+1022666588
897+1022322347+1022427189+1023016474+1023563589+1023560539+1023082844
888+1022179551+1019731323+1013738950+1003403594+990810750+979996920+973823799
878+971659735+970496476+968488314+966959534+968725702+975019756+984418277
868+994227280+1002266805+1007428807+1009134639+1006931324+1001221884+994316941
858+989677076+989339062+992534488+997130366+1001626267+1005382042+1007925836
849+1008872402+1008186904+1006123271+1002989933+998988920+994065085+987817808
839+979741691+969834139+958997731+948698317+940313058+934846001+932802999
829+934024194+937968829+944231157+952381235+961487417+970369705+978241392
819+984858473+990361147+995199668+999919462+1004801710+1009799247+1014786402
809+1019636341+1024000346+1027285368+1029074957+1029561605+1029534097
800+1029897283+1031019344+1032561230+1034166306+1036056132+1038500856
792+1041019282+1042544040+1041951771+1037781232+1027766048+1010148094+986994963
782+965883730+955974102+960963009+976394581+993956155+1007521971+1015498177
772+1019355745+1021027905+1021203919+1019385524+1015143944+1008981267
764+1001884416+994277754+985720893+975459368+962551802+945462667+922831413
754+895273144+865597265+837235809+813548863+798145449+793769053+800050909
744+813372461+829753843+847453931+866378718+885758687+903321753+916715059
734+925464218+931185856+935106161+935642246+930303323+920626152+913211659
724+914452900+925268677+941427918+957636855+970860960+980692994+987792765
714+992761560+996145586+998325869+998879796+996566059+990154317+978914629
704+962687591+942367932+920251093+899199678+881187203+866751441+855979846
694+850088035+851716078+862712150+881125699+901251049+917519609+928105847
684+934653119+939594212+944392638+949491189+954794624+959924770+964442276
674+967778746+968776112+966223690+961159589+959533881+966994049+977612921
664+983947134+986057933+986776195+987584313+987533384+984550757+977288402
654+966165819+953067901+940281851+930400899+926806021+932008701+944715145
645+959965124+972664822+980528075+983932991+983941684+981174063+976648513
635+972964881+973314054+978782148+986985750+993034891+991633401+979748114
625+959083370+935820920+916841117+905760509+902068833+903050305+905796517
615+908040185+909096331+910963708+917007853+928141141+941303677+952726125
605+961271957+967147809+968315155+960754298+944154991+926084320+917308886
595+922605573+937565354+953780519+965912666+973971396+980335907+986197031
585+990893664+993642601+994886762+995657835+996406330+996888696+996839324
575+996649686+997330968+999465512+1002201149+1003659472+1002811844+1000767739
565+999400764+999048672+998646430+997808988+997316241+997489659+997694089
555+997676702+997972350+998561505+998082448+995128692+990260197+985865830
545+983643636+983021912+982281397+980246829+976737071+972291320+967484006
535+962475505+958129407+956952200+961032558+969501446+979583778+989034137
526+996424041+1000892305+1002453005+1000926820+994847381+983109821+967780822
516+953362706+942889679+936563900+933802312+934618150+938624289+944010508
506+948555586+950691233+948810361+941679060+930737355+919721820+912121582
496+910248820+914813102+924293693+935716856+946823284+957135479+966450243
486+973344546+976612181+977762140+979786457+983363364+986442983+987581848
476+988065706+989971686+993121113+995011133+994016686+991145455+988239060
466+986085376+983706827+978879141+970195962+958958156+948503295+941843590
456+939936896+942389796+948682941+956832370+963241258+966466463+968923320
446+973487472+979868592+984947096+986374926+985363546+985084377+987282956
436+991411648+995771695+998683086+998989634+996977319+994995562+995122463
426+996135141+994655408+989639966+983677827+979593705+978835608+980922726
416+982362689+979942553+973561173+966130590+960781935+957228838+953596720
407+951357918+954667009+964624971+977084491+986046839+987480638+983388407
397+982512167+988134996+994366507+997289252+997982925+996839713+991831862
387+983609380+977983633+979979338+987700185+996462838+1003851770+1008746734
377+1009628942+1004905969+996496834
##END=
