##TITLE=X9676
##JCAMP-DX=4.24
##DATA TYPE=INFRARED SPECTRUM
##DATE=19/11/2018
##SAMPLING PROCEDURE=Instrument type and / or accessory
##ORIGIN=Default
##XUNITS=1/CM
##YUNITS=TRANSMITTANCE
##RESOLUTION=4
##FIRSTX=3996.5625
##LASTX=399.65625
##DELTAX=-2.0390625
##MAXY=1.0754935
##MINY=0.55678874
##XFACTOR=1
##YFACTOR=1.0016313e-009
##NPOINTS=1765
##FIRSTY=0.96178883
##XYDATA=(X++(Y..Y))
3997+960222389+960737903+960681312+960764384+961352319+961887828+961987860
3982+961751734+961501743+961520130+962015709+962703438+962492187+961142317
3968+959562569+958784151+959435461+960484699+960912023+961483057+962078787
3954+962202563+962459041+962681421+962673209+963255966+964115255+963666687
3939+962220773+961503766+961817371+962983660+964486345+964643980+963914834
3925+963847709+963567488+963243886+964146794+964694383+963581949+962235114
3911+960994917+960652570+963929889+970088149+974127523+973579399+970021560
3897+966028602+964862968+966928119+968031508+967387160+968667049+969922718
3882+969793408+969603698+967416021+966181239+968497095+972492671+975700070
3868+974820072+972933146+973058588+971738949+969500036+970347186+976194280
3854+984848704+982576943+971604342+965604670+965870193+969805964+974951465
3840+979420126+979868753+976088357+973480437+972481960+971165831+970563257
3825+971006708+973866939+978906933+979276296+976837616+974069860+969192679
3811+966365058+968332200+972328311+973878246+975898409+977500293+974587754
3797+971197370+967666905+964094547+962508611+962793057+964326805+965726185
3782+966250744+967807522+968472221+965759271+963888413+966370592+971097516
3768+972921483+971976562+970071844+968903532+970676798+972609663+973493232
3754+977932972+986635002+990299478+986845064+986187088+985257461+979068853
3740+975720838+979074506+984774200+984018633+976380360+969464926+967040647
3725+968001754+969854284+970285238+968928525+967677676+968835574+973531376
3711+977619665+975176106+970263339+968006277+968392183+968024367+965939519
3697+964495747+965146522+969764190+977395797+979804307+973483175+967548842
3683+966062760+968554520+974635360+982522791+984417809+981350908+981314549
3668+978474729+971257354+966159876+964589947+965359440+967921121+970152774
3654+970613125+974527473+982860853+984424950+976064375+968767557+966193141
3640+966081385+966160352+966602553+968066915+971860582+977777896+977375981
3625+970544096+967240652+969474507+973798148+974919926+974581685+975527319
3611+975612118+974334907+971929670+968624382+967092003+968040137+968867887
3597+968414856+967990686+967862447+968503760+971245214+973060374+970812178
3583+968009609+966461103+965636150+965363010+965388658+965894889+967960396
3568+971705565+973909844+971835767+968597901+966695742+966005930+966199270
3554+966639150+966079838+965231974+966171242+967700170+967484098+966102392
3540+964956157+964686945+964912597+965195377+966041396+967323308+967518136
3526+966328520+965518741+965530345+965429956+965387765+965699882+965841153
3511+965678043+965578309+965808365+966563218+967583357+967500760+966083290
3497+965182345+965344622+965454057+965314333+965325996+965284579+965079338
3483+964857553+964351739+963768624+963969759+964473848+964412258+964284138
3468+964263489+964247481+964377922+964238258+963755473+963422885+963551957
3454+963823728+963326066+962467491+962914452+964629520+966029435+966220931
3440+965478098+964692241+964366913+964525620+964923963+965317844+965629426
3426+965773136+965938151+966122981+966020628+965759390+965531238+965424303
3411+965518682+965586878+965749095+966192724+966194450+965431087+964703369
3397+964698311+965304990+965757129+965523978+964996563+964655763+964497770
3383+964726398+965207517+965080409+964293719+963809208+964071815+964763114
3369+965538379+966054012+966123933+965966357+966016998+966443311+966817197
3354+966655574+966352026+966483538+966676759+966833918+967115449+967017380
3340+966564111+966513648+966959479+967389421+967378948+966763759+966224739
3326+966295910+966553995+966495023+966146665+966224085+966862601+967023569
3311+966314001+965588246+965321652+965307549+965279700+965272559+965821754
3297+966543521+966537154+966527514+967010358+967154009+966792679+966461222
3283+966598566+966879144+966876645+967086587+967504092+967319678+966685625
3269+966292578+966478003+967113247+967172338+966851889+967114199+967367880
3254+966923001+966391836+966798868+967625131+968106845+968639675+969027843
3240+968798084+968358086+968238773+968365286+968325892+968184264+968220504
3226+967832693+967123780+967294983+967963074+967999790+967500998+967022795
3212+966982925+967251959+967244580+966986615+967028925+967439051+967755036
3197+967881965+967758249+967226430+966806485+966861292+967184834+967307003
3183+967061475+967238986+968018773+968414082+967860245+967009882+966671998
3169+966406773+966091978+966368152+966808032+966750251+966466757+966303587
3154+966444382+966840821+966617073+966059784+966108045+966120006+965854900
3140+965620023+965322843+965363843+966125838+966596602+966032708+965823301
3126+966385648+966413795+965890188+965565038+965415258+965163600+964522466
3112+963629733+962960749+962283851+961645275+961771014+962376861+962579722
3097+962608345+962917249+962877260+961674076+959620292+958175389+957911413
3083+958149681+958331298+957878565+957077712+956868721+957071642+956794396
3069+955609601+953493571+950245589+945680346+940730507+938280223+940149773
3055+944338867+947986622+949746320+949579758+948789557+948933863+950052903
3040+951130050+951635685+951032576+948554562+943850489+938168647+935595420
3026+938374364+942900629+945059028+944101432+939999635+933878806+929654066
3012+929766833+932346010+934882520+936931841+939307205+942490443+945432319
2997+947183210+948307665+949341431+950197685+950760865+950891543+950073314
2983+948186329+945475402+941448109+936367174+931439174+926880418+923479025
2969+923397440+926198640+929179017+931075642+931643999+931073857+930011230
2955+928345732+924487976+917189134+908360354+902773426+902763607+904689213
2940+903350769+896919488+887375426+879192600+876847764+881441510+890835672
2926+901954781+911230166+916296045+917192824+915751194+914429531+913552984
2912+912086539+910629496+910061675+911014272+914336461+918943418+921952834
2898+922015853+921566273+923644158+928251829+933636193+938310751+942083650
2883+945102647+946939943+947800601+948481606+949574165+951054832+952365367
2869+953005073+952692064+951884486+951518277+951727208+952066520+952402619
2855+952845891+953637044+954670571+955128958+954440813+952386433+948466610
2840+942849214+937428194+934463884+934717029+937062996+939312739+940294435
2826+941067260+943353065+946983860+950413995+952865290+954542809+955877563
2812+956877766+957641725+958529340+959353698+959880518+960662210+961814812
2798+962446128+962423931+962128119+961818977+962143472+962858694+963010676
2783+962898921+963132547+963442344+963681029+963818015+963702570+963303513
2769+962863752+962836319+963052331+963226391+963569393+963895137+964105080
2755+964605360+965121766+965416567+965768495+966008786+966092394+966324890
2741+966745787+966953469+966677592+966462769+966884143+967344791+967208994
2726+967042492+967202092+967414176+967502783+967361512+966971262+966623321
2712+966491333+966258540+966172373+966589759+967000658+967247912+967662740
2698+968040196+968131302+968118687+968047992+968000148+968185514+968351302
2683+968341959+968239844+967861792+967545153+967795799+968320239+968737982
2669+968988390+968998744+968828790+968700730+968541726+968359038+968550950
2655+969017132+969282893+969269265+969164651+969284678+969530266+969284261
2641+968444252+967525277+966842844+966425518+966330901+966410105+966670867
2626+967425542+968293401+968523993+968372367+968588439+968972085+969060810
2612+969042423+969241951+969875350+970720060+971101206+970868472+970242512
2598+969098836+968291318+969042006+969849345+969487182+969435292+969521458
2583+968915433+968458832+967989615+967009763+966202781+966011405+966173206
2569+966201293+966408499+967509924+968607065+968911565+969005706+969297651
2555+970078211+971078534+971574708+971899381+972638881+973332323+973780058
2541+974252727+974403995+974171856+973888897+973697878+973392366+972693390
2526+972358184+972866736+973455028+973674194+973642477+973524414+973545241
2512+973958878+974130855+973102624+971784472+971559771+972260413+973153622
2498+973927756+974606618+975141829+975632231+975854313+975228056+974584779
2484+974934921+975418063+975195208+974838757+974815609+974961105+974948073
2469+974692369+974968722+976087583+977153899+977467683+977159314+976527463
2455+975615986+974951108+974828879+974693975+974391201+974104434+974119549
2441+974681479+975303095+975691501+976120669+975948990+974677492+973398674
2426+972696842+972555273+973212713+974082535+974572996+974710459+974470524
2412+974067956+974116990+974352818+973958819+973379870+973270733+973325956
2398+973089294+972905951+973349402+973858787+973905738+973493172+972105813
2384+969916767+967908625+966010036+963544042+961043891+959421358+958361469
2369+957578111+957434995+957168163+955022380+952294613+951933818+952899567
2355+953682865+955350505+958695663+962006248+963139510+962371267+961931209
2341+961874260+961690679+962543185+963706260+963303810+961855694+961191946
2327+961646643+962548838+963144389+963599860+965077850+966797024+967418342
2312+967481718+967759915+968692756+970566054+972437984+972978134+972894407
2298+973961497+976043488+977171394+977055831+977466492+978460209+979040706
2284+979532655+979806925+978991017+978268892+978553577+978468719+978241400
2269+978894555+979592698+979400667+978858077+979356215+981273370+982468282
2255+981528062+980725960+981133587+980710250+979564670+980032102+981711643
2241+982548379+982484766+982926728+984936001+987681026+988262296+985796064
2227+983742458+984602938+986850657+987680252+985990952+983412965+982643829
2212+983738769+984856856+987202109+990840045+993044919+994159020+994265062
2198+992206279+989758257+988035810+986615007+987162656+988870642+988247538
2184+986983776+987410029+987287264+985665743+985120356+986399054+987929054
2170+989471430+989496483+988519726+988234982+986387331+984813297+985346068
2155+985265138+984323966+983293831+983632667+984785447+985739294+986492422
2141+986072715+986397864+987719170+987568616+987032096+986578946+985317385
2127+983994711+983216352+983574885+984770927+985001698+985219733+986709327
2112+987534518+986674813+985199441+984498918+984675120+985048114+985565472
2098+985812131+985695675+985577076+985595940+985809037+986223210+987441330
2084+989291360+990248956+989983195+989248574+988311925+987573258+987525057
2070+987370099+985127140+981801143+981345374+983652661+985872531+987452576
2055+988681110+989469109+989691013+989660545+989939755+988964723+985477639
2041+982387530+982256376+984265649+985911747+986718551+987932267+988718600
2027+989321412+989295645+987071014+985054243+986611854+989133130+988217130
2013+986307115+986839113+989709639+993033196+994364440+992794035+989141877
1998+987074049+989079335+992622356+994715416+995693363+996184717+993841666
1984+989359020+988019862+989914643+990332981+991528190+996671727+1000034321
1970+999107669+996781518+992631758+987208655+984881254+986057422+987319339
1955+988024742+989066838+989139497+988025456+988447364+991012022+992785942
1941+991427503+989018935+988111623+988496756+989485891+990470562+990539948
1927+990590708+991761341+992269655+992267691+993706286+994476552+993319309
1913+992572846+992110591+990513527+988804053+988532401+989417754+990411888
1898+991470349+992150580+991675293+991330328+991729564+990931627+989978316
1884+991117707+992608491+992654371+992118624+992399976+994286902+997815700
1870+1001445126+1001369671+997641165+995791312+996742957+997567732+997844562
1856+998485339+999004126+999002460+999258104+1000863857+1003712246+1003535389
1841+1000058957+998647438+999447576+999585158+999723215+1001985455+1003391024
1827+1002248598+1000885993+998771808+996483623+995805237+995777269+995545249
1813+996311052+997659255+997514592+996394303+996364430+997656756+998857261
1798+998145729+997042876+998737175+1001137115+998326454+993404404+991486773
1784+991769850+992705845+992667165+990773337+989913988+992067388+992156590
1770+985329227+976703248+970633179+967859710+965529869+961583208+957177209
1756+952133764+948347238+947996143+947185055+941811581+934604322+929363193
1741+926683924+923269320+921075038+925315190+930564413+927467758+921395903
1727+916144777+912929583+910979639+911228618+915023238+914623049+902945582
1713+885683507+864601047+838312567+804797429+762375198+717044772+656313371
1699+598092655+598901898+645608436+696818090+745193637+790554292+828657345
1684+864730535+883735705+887871362+893785939+904329073+915436220+925398739
1670+936136701+942333224+944240620+948464408+952760081+955753133+962412268
1656+976005582+995047884+1000340428+998115261+1001894171+1000528234+992793797
1641+990052462+993963240+1002309057+1005410235+996157641+988187554+985961198
1627+984714871+981641603+974938551+963997430+953853235+936566524+899199818
1613+850135293+792661336+735371437+701378036+700393602+724059822+760299455
1599+798025051+830048930+854815622+874618968+891009256+902144134+906645524
1584+906382858+901858140+892940098+883849900+880841317+888599140+904929028
1570+925962395+941471852+949981672+959240991+972316529+993395776+1005661833
1556+997306970+991201672+990296027+991757473+994383006+1000489316+1011968802
1542+1025803835+1028319339+1017444688+1012786674+1013348663+1010552998
1529+1008237915+1009101013+1009379509+1007455034+996078317+969504677+923125848
1515+853335193+787669246+757030882+775516373+838029073+888849131+906463133
1501+916665587+918564473+908726385+904199942+916368704+938931058+957882135
1486+965683994+969590249+973827248+977591518+980943877+985588442+990157552
1472+987414849+975523927+964284673+954405525+938860303+921722302+908506564
1458+884726923+847406276+840116361+864881923+901335247+933868213+952710749
1444+959279016+958810870+951774219+935838033+920250144+923850590+935878200
1429+929309993+891635038+842820087+813517787+818967490+852910904+892923436
1415+920656462+940703848+956029189+967202806+975978863+982980404+987844196
1401+992831108+998117225+1000899442+999852109+995727223+992789096+992326484
1387+990229497+984508797+977901671+971353994+965092965+960691130+957475222
1372+953264110+950358058+949792736+950224225+952311275+952694682+948656498
1358+945820189+947659687+952214753+956528398+957924207+956218244+955668751
1344+957118177+955588654+947286277+931282193+909272248+884216110+858231297
1329+832641317+813632160+813506540+834069321+858323653+869490784+870325139
1315+876422582+893474595+911949374+921014876+915459726+898589985+886994399
1301+889703600+894208621+889398327+876836815+859505354+836289072+806085589
1287+776428862+757707900+742267233+712527255+671629786+639707963+623652524
1272+613817648+604717692+597864026+590024618+576535621+562118663+555881913
1258+559245936+568307510+581442020+598706416+619422547+641219158+660996379
1244+677967283+692061948+701287109+706310023+712077497+722062807+735989066
1230+751955958+766947938+777272025+781865473+783331204+785736619+794402587
1215+811007579+829361379+844025591+855318104+864988144+874412833+883385146
1201+888889120+888918993+888892274+897949088+915808321+932652295+941090230
1187+937812672+918740973+889155357+869377779+864604736+843619452+774028981
1172+677637730+618116594+622111813+663200658+712470901+756548693+785974530
1158+797840935+804631819+819515852+841879510+863881600+881217167+897145200
1144+913556435+927855509+939077803+947468668+952951993+955473150+954565838
1130+948113313+930062823+890386212+823550882+741438412+672885932+642717618
1115+653878143+690587767+728012969+737219801+703209024+650516858+619111977
1101+617831196+633452409+657979048+687671241+717128380+742495028+763746192
1087+781489445+795073416+802638197+803631318+804412950+814226343+832748907
1073+851840185+866946419+878169427+886501915+893223473+899605719+906115074
1058+912423054+917356232+917838719+910614738+899108236+894075205+900375450
1044+911431182+920604750+925582617+924786644+917995462+904720633+880184770
1030+836820593+773915024+709587522+674699663+683209245+720336850+764312109
1015+801537128+822119070+823512797+821189621+831863792+850769762+863522056
1001+867927520+874446396+888736721+904954081+917655198+926305515+931336523
987+933677194+935993526+941385269+949171536+955165258+957474865+957517056
973+955580144+949711508+936760579+913676641+880289325+838532745+792589689
958+755677442+745744677+765660432+799612058+829855233+848962577+862138148
944+877000282+892826022+906218974+917026857+926167160+934318507+941398241
930+946941312+951617893+955924931+958698758+954968109+936968260+909303608
916+888062203+867957452+835489409+817780314+842177703+884871407+916339664
901+934329397+945444042+952847557+955634772+952401845+946760111+946614377
887+953822529+962782762+969244094+972816214+973707637+971889800+967245711
873+960735702+957536991+962718851+973863428+983832731+985939418+974937659
858+948808124+904202024+840177296+773184033+727369097+713892835+732309832
844+775402594+828697096+876680845+908294836+912320047+884614811+851514500
830+847508629+874104882+911809531+942397968+955812283+953679175+947968353
816+952341207+966960729+982492561+994619608+1003016126+1007880275+1011136410
801+1013651438+1012029857+996203283+955708324+906589289+890621564+917800277
787+953515767+968332021+952765853+908333754+854327065+821909008+820142586
773+812296037+758343381+687041175+663267842+695867100+744740011+771541208
759+764274382+749330782+762730815+804776006+849905415+885844118+914617455
744+937139285+953227215+965979687+977696906+986849705+992697573+996396326
730+997392483+991158946+969338711+924568787+861258090+809847658+810237254
716+858940390+915142312+951238591+963542138+950366329+902881789+825313913
701+747573523+694116506+658226480+632563425+636034382+680362760+744375765
687+801283685+842900422+871498034+890387104+902646854+910664784+915761310
673+917652460+915694066+914962659+924655252+937617130+949670567+962186675
659+973155407+981132694+986445827+987840923+982316062+969588107+960760635
644+967488382+982799918+993371259+990115302+961217832+911273547+885254220
630+910928403+954032948+975783737+967715523+933868332+892377573+872368629
616+867208431+838246216+799102019+801193353+844693088+890191979+921105447
602+944671396+965125158+980585582+991880297+1000808395+1007332329+1012546144
587+1018523679+1023998257+1027589776+1030354260+1028702092+1013765930+974047009
573+901659742+810439163+743843053+737609993+779090873+832073139+875179231
559+905006210+925909909+940151498+947435106+952713248+960886315+970493872
544+977940351+982970109+989284755+996398587+1001799316+1006250244+1008434528
530+1008085338+1009201819+1009720011+1003777347+990997085+966760188+923158577
516+865508537+817196128+803450058+827296586+867517810+900107963+910893115
502+894093652+860972394+846632915+873632808+920863191+955523255+971127925
487+977427158+978594220+973063289+969911412+978751380+993629283+1007808390
473+1019843557+1025349317+1026178257+1031549291+1040217639+1042126285
461+1040625623+1044627150+1049391564+1050184086+1052770285+1057009485
449+1051938369+1031394928+1006227631+995497702+1005454627+1023304041+1037134790
434+1044588351+1046310262+1041593097+1034107045+1031572618+1037601092
422+1051523482+1068801029+1073741823+1064965290+1059713628+1061319737
410+1064355813+1064328678+1065591785+1067925791+1058073956+1032199828
##END=
