##TITLE=X8294
##JCAMP-DX=5.0
##DATA TYPE=LINK
##BLOCKS=1


$$ === CHEMSPECTRA SPECTRUM ORIG ===
##TITLE=X8294
##JCAMP-DX=5.00
##DATA TYPE=INFRARED SPECTRUM
##DATA CLASS=XYDATA
##ORIGIN=ComPlat
##OWNER=
##XUNITS=1/CM
##YUNITS=TRANSMITTANCE
##XFACTOR=1
##YFACTOR=8.8201851e-010
##FIRSTX=3997.453
##LASTX=373.96442
##MAXX=3997.453
##MAXY=0.9470601628471438
##MINX=373.96442
##MINY=0.5886195871056599
##NPOINTS=2559
##XYDATA= (X++(Y..Y))
2559I71784204I72108238I72257990I72181830I72364154I73204549I74524676I75727624
2551I76236888I75954684I75447988I75302291I75325132I75012586I74506565I74266530
2543I74147999I73634409I72760902I72169801I72371655I73255232I74266731I75008126
2535I75549625I76087136I76504225I76493818I75954549I75071851I74129956I73289358
2527I72483767I71643440I71050650I71148434I71807720I72349220I72474914I72560332
2519I72817262I72884096I72669740I72735831I73472088I74467235I75007315I74914463
2511I74548328I74169826I73785445I73456343I73346461I73444719I73542098I73527704
2503I73424919I73243406I73067974I73106088I73346934I73468642I73333351I73289358
2495I73660629I74184085I74236525I73542774I72225553I70510232I69107119I68889587
2487I69793167I70914008I71486930I71640129I72126281I73122645I74146512I74896420
2479I75582670I76168702I75860887I74466492I73492767I73988921I75039549I75423930
2471I75269448I75333512I75403049I74981770I74374992I73775241I72992693I72311647
2463I72229405I72638114I73335514I74282478I74653276I72336921I67276714I64783035
2455I66756029I70205255I72929914I74289844I74550761I74421688I74469938I74571237
2447I74265718I73836669I74137254I75039076I75529419I75157675I74483724I73956146
2439I73266990I72440855I72420919I73651236I75051646I75337769I74994001I74709838
2431I73964188I72823411I72354153I72809220I73626976I74315253I74593402I74645640
2423I75116453I75901028I75742356I74091909I72619327I72576888I73302266I73737060
2415I73676644I73581699I73855793I74553802I75408388I76057064I76305817I76255945
2407I76104977I75788984I75112263I74269706I73766118I73783418I74087179I74344514
2399I74316605I74008046I73709894I73701108I74027035I74588739I75123278I75122467
2391I74257677I73266652I73543518I75281139I77087757I76998893I74265381I71202631
2383I70119904I70077195I69466362I68550889I69177400I71625667I74581238I76639515
2375I76792443I75369936I74153135I74016560I74372086I74813638I75229239I75320266
2367I74812016I73803151I72653724I71897464I72129931I73324228I74734639I75807298
2359I76543555I76911920I76609781I75754587I74923046I74482440I74728828I75788646
2351I77156146I77982957I78075335I77821041I77496196I77518631I78342740I79494666
2343I79466892I77276096I74382560I73258340I73913775I74968525I75715392I76049090
2335I75917044I75357975I74815057I75043672I76179920I77205274I77222912I76128021
2327I74972648I74908854I75514619I75880957I75746613I75377302I75216535I75631191
2319I76411779I76673236I76191206I75957861I76450501I76585859I74755115I71829413
2311I70434680I71080857I72762997I74460748I75537731I75888323I75868861I75898122
2303I76093353I76372043I76754127I77134250I76876712I75682685I74560830I74101776
2295I73900395I73523447I72863890I72203860I72135877I72793880I73581023I74014668
2287I74411619I75567465I77548636I79034396I78597034I76693375I74947509I74265043
2279I74515215I75134631I75627541I75808852I75980972I76578155I77348674I77498020
2271I76612146I75063742I73750981I73189682I73233810I73809097I74899731I76030033
2263I76512334I76244727I75750060I75527932I75718974I76175866I76481519I75981040
2255I74447300I72945862I72604528I73094465I73434650I73214888I72779080I72533031
2247I72551885I72710692I72721504I72428150I72336785I73171165I74748560I75810540
2239I75423457I74096775I72929981I72509784I72802260I73425865I73900395I74012438
2231I74015344I74204156I74355462I73923776I72889908I71997411I71929293I72584863
2223I73287939I73529461I73321255I72920858I72551141I72440652I72759483I73289291
2215I73475197I73134336I72820370I73110954I73889853I74553667I74698080I74403036
2207I73916884I73399172I72881731I72256841I71553021I71231690I71673309I72419298
2199I72627436I72251030I71921792I71868405I71881042I72004304I72399700I72897679
2191I73345651I73847414I74238620I74084949I73614406I73737533I74707068I75641665
2183I75796350I75437040I75095233I74829113I74547787I74403847I74593808I75070229
2175I75482047I75373382I74628408I73631841I72844698I72464237I72570401I73157515
2167I73874783I74159891I73784432I73072164I72532693I72402944I72520258I72617300
2159I72656360I72807193I73225498I73925938I74647464I74883986I74390129I73602716
2151I73155758I73121969I73140012I72994045I72684202I72298672I72131552I72592972
2143I73742196I75187882I76519835I77462948I77665410I76977606I75987933I75624163
2135I76103625I76765142I76971794I76742639I76474829I76331429I76051320I75437986
2127I74830735I74688011I74952712I75393723I76103558I77017612I77557151I77347998
2119I76722703I76188030I75882917I75577331I74949874I74101370I73682998I73979596
2111I74265449I73797406I72902950I72348544I72250354I72353747I72771917I73605757
2103I74263421I74062040I73269896I72736980I72755226I73044728I73469520I73982231
2095I74286803I74211860I74050755I74145566I74467641I74791472I75004139I75083677
2087I74920545I74401212I73736722I73376196I73445733I73645627I73771186I73898501
2079I74105357I74429797I74997111I75803108I76436715I76328591I75407644I74405942
2071I74217942I74964606I75968065I76555787I76552475I76146875I75672413I75448799
2063I75558612I75780537I75845547I75736139I75668088I75757898I75825679I75584224
2055I74912436I73949659I73123185I72952214I73499389I74179625I74426148I74332418
2047I74328566I74557992I74955618I75572601I76390424I77067213I77305019I77270825
2039I77243861I77076607I76459083I75537799I74851143I74710987I74915680I75053538
2031I74962578I74844318I74939467I75201262I75439203I75689172I76126602I76589102
2023I76579236I75913057I75039347I74540016I74573399I74838776I74870200I74537989
2015I74388710I75059349I76275272I77071809I77048697I76720946I76611606I76665262
2007I76558083I76148700I75657208I75542056I76026046I76758046I77209735I77314142
1999I77392532I77561408I77613172I77479099I77386179I77404763I77274744I76914623
1991I76742301I77208586I78207314I79107785I79316194I78794293I78016678I77414224
1983I77063497I76973619I77243321I77747314I78152171I78417345I78755638I79038721
1975I78859370I78246374I77699672I77454906I77289206I77116748I77192705I77554785
1967I77735691I77310087I76452596I75709581I75384803I75386560I75580913I76040373
1959I76868198I77913487I78764626I79034328I78669072I78061346I77823068I78270770
1951I79069739I79565353I79553189I79520549I79987442I80858584I81597747I81788383
1943I81340615I80356753I79021826I77574924I76324604I75701133I76068147I77247510
1935I78437551I78918230I78733000I78533714I78925190I79998322I81238573I81844135
1927I81448468I80594221I80183483I80427845I80705386I80453930I79756123I78966007
1919I78270026I77792118I77721432I78126897I78842003I79558054I79909390I79623199
1911I78823824I78085066I77930381I78267931I78453837I77968225I76926922I75823246
1903I74877363I73900530I72820303I72002277I71793867I72028902I72332596I72650075
1895I73055675I73292602I73024454I72420311I72021333I72062623I72225350I72076882
1887I71582823I71089507I70898735I71020713I71313256I71678580I72029510I72169126
1879I71921994I71470644I71336570I71761025I72356045I72700826I72926535I73358761
1871I73991354I74624218I75128752I75374058I75244308I74831950I74423310I74290925
1863I74543395I75053741I75514822I75645652I75427782I75219914I75509686I76292640
1855I76895837I76787037I76242903I75769252I75331011I74728220I74243891I74260921
1847I74595700I74746668I74545760I74177260I73771388I73272734I72596553I71748726
1839I70825954I69984141I69444196I69451832I70042054I70901776I71683175I72314079
1831I72778945I72905856I72668997I72359018I72228053I72302321I72562359I72919304
1823I73106629I72966338I72708259I72615948I72669672I72656427I72511811I72391118
1815I72463223I72776039I73287331I73852482I74174556I74014060I73502160I73037092
1807I72851253I72859092I72928224I73111900I73539395I74138943I74644423I74948657
1799I75221873I75543813I75730192I75711608I75722893I75905961I76063687I76005030
1791I75845074I75835072I76151470I76896580I77977618I78936476I79266254I79006284
1783I78674275I78569395I78517360I78331319I78136628I78151225I78370109I78560001
1775I78538377I78442214I78587370I79021691I79446754I79670706I79845664I80131788
1767I80408450I80474135I80335804I80158616I80044815I79940678I79685978I79148196
1759I78396937I77727311I77394221I77353540I77319886I77000514I76225603I74986568
1751I73431812I71769472I70171668I68798493I67819767I67289824I66996875I66536943
1743I65641405I64439809I63340525I62659343I62412415I62393561I62356866I62184679
1735I61942143I61740897I61612837I61602160I61842263I62335985I62745032I62634137
1727I61920721I60901043I59846427I58777284I57654483I56564525I55574311I54593963
1719I53550836I52604683I52004054I51748814I51556218I51227588I50918015I50940924
1711I51460393I52508250I54080171I55972409I57699287I58878582I59642682I60437664
1703I61428216I62300439I62730502I62870253I63186989I63924057I64926773I65899957
1695I66636417I67088105I67398556I67815037I68476215I69334518I70226406I70935971
1687I71294402I71324677I71200942I71035985I70836294I70649036I70549697I70503880
1679I70413326I70268440I70078141I69749174I69258088I68818631I68620156I68490812
1671I68060276I67170888I65965034I64657679I63359379I62068175I60720814I59234784
1663I57584337I55874288I54225531I52583396I50860034I49280476I48229240I47704365
1655I47328161I46994193I47088599I47921559I49254729I50564517I51548446I52201921
1647I52578328I52726661I52820796I53115502I53694641I54340277I54696411I54576123
1639I54121867I53668016I53466364I53534212I53705319I53840203I54031853I54515641
1631I55311772I56130812I56770366I57409852I58330596I59496579I60610865I61518499
1623I62318550I63061158I63588467I63788834I63828570I63971834I64282150I64668762
1615I65157077I65875426I66694871I67148114I66974237I66577151I66645810I67397948
1607I68407962I69106714I69284713I69113945I68860326I68719022I68833768I69227002
1599I69703762I70003197I70030702I69888180I69800465I70003130I70508813I71053285
1591I71449830I71844821I72443828I73134065I73554262I73515878I73256178I73182518
1583I73400456I73642181I73626030I73310781I72850240I72452411I72234270I72178181
1575I72288332I72648318I73183802I73625219I73876134I74113602I74411957I74641450
1567I74760657I74768496I74463316I73755508I73069326I72959107I73455396I74094004
1559I74426756I74371410I74201182I74225240I74502105I74941089I75447515
1552I75798513I75768238I75517998I75432310I75542056I75569290I75521174
1545I75888999I77171148I79140222I80676260I80737755I79470474I77925246
1538I76986119I76991256I77785291I78673667I78910796I78496883I77978361
1531I77594521I77189799I76740206I76489696I76645935I77083229I77395911
1524I77400168I77366379I77420779I77177230I76481384I75931708I76117276
1517I76921314I77931936I78867141I79364985I79063792I78116085I77120397
1510I76524836I76483073I77121073I78429306I79934664I80962856I81292094
1503I81184037I80806279I80144560I79487706I79326466I79683681I80154426
1496I80574555I80998064I81221948I81085982I80982994I81336965I81869341
1489I82013417I81742633I81439345I81243506I81001984I80656933I80312625
1482I80077388I80088808I80478866I81081793I81463944I81492597I81483879
1475I81564094I81421775I80932176I80477311I80421628I80721266I81145653
1468I81525169I81778112I81960774I82242775I82698788I83168655I83361116
1461I83072627I82354075I81497732I80877911I80805874I81415017I82491595
1454I83469645I83811385I83434234I82700342I82074439I81867449I82172089
1447I82860028I83613653I84059327I84076829I84063854I84583931I85512987
1440I85946295I85324918I84225703I83641495I83897952I84559198I84997168
1433I84869987I84361128I84025606I84243070I84860053I85388509I85411013
1426I84796260I83719885I82588907I81866098I81826835I82415503I83339491
1419I84260573I84948647I85463994I86114360I86910964I87248987I86667415
1412I85689162I85216998I85384455I85606177I85339178I84350248I82733658
1405I81019824I79891549I79689560I80321410I81451712I82583163I83226839
1398I83323542I83207985I83067221I82868070I82708384I82785355I83026809
1391I83258938I83721101I84546764I85217606I85370872I85314242I85323567
1384I85381144I85631991I86107197I86163556I85123538I83226636I81381296
1377I80295460I80127733I80779045I82160195I84002562I85703624I86687282
1370I86864538I86573549I86118415I85529476I84791800I84126837I83874164
1363I84080546I84389713I84475469I84459183I84700367I85227878I85636046
1356I85578131I85191318I84948242I85151515I85606853I85901288I86028942
1349I86438327I87284803I88016060I87985109I87160866I86117401I85631045
1342I86160651I87360287I88269475I88230686I87472804I86775336I86736208
1335I87332445I88088165I88641287I89020735I89421943I89966415I90606510
1328I91009407I90713012I89609673I88087219I86691337I85854457I85763024
1321I86210658I86687215I86822167I86755738I86953268I87632152I88551679
1314I89515470I90724905I92222897I93418006I93733796I93354212I92792643
1307I92180593I91604427I91631864I92597074I93595802I93131139I90813027
1300I87771429I85595837I85327352I86754927I88282991I88467951I87701892
1293I87301832I87451111I87286560I86408795I85457236I85733831I88175948
1286I91993403I94880519I95168061I93170131I90687467I90038453I92438807
1279I96288632I98415230I97730264I96020349I95138395I95430465I96417976
1272I97176871I96497785I94030664I91031234I89217386I89259216I90831881
1265I93337386I95968247I97855485I98780892I99060055I98673849I97418191
1258I95660769I94371660I94298676I95183131I96283361I97611125I99526137
1251A001114750A000729287I98456452I96333436I95839782I96535290I97249990
1244I97468063I97243435I96551509I95400055I94275227I93862598I94384229
1237I95500340I96680987I97433936I97510502I97228906I97352032I98334340
1230I99833683A001180030A002070161A002366556A001608945I99678322I97666403
1223I96942445I97614706I98828669A000046146A001176989A002033602A002288572
1216A001741667A000658534I99871729A000025062A000855996A001795459A002748572
1209A003591535A003672628A002623419A001144146A000361260A000661710A001471154
1202A002030966A002037589A001460612A000319565I98988963I98044162I97464414
1195I96855946I96720316I98239258A001196857A003251552A002330132I99271167
1188I96943256I96855608I97796557I97955905I97199780I96881287I98209524
1181A001121575A004354282A006493044A007082117A006476961A005122639A003917664
1174A004315087A006208475A006817889A004512684A002358853A004143913A008365347
1167A010098441A008118081A005866330A005724079A006603668A007030623A007106648
1160A007041774A006268416A004836110A004209464A005647446A008221272A009766162
1153A009878882A010013564A010588919A010574525A010053772A010808884A013656737
1146A016724014A017196719A014204318A009703450A006687938A006575624A008369132
1139A009906724A010006536A009495582A009712708A010759012A012206658A014256082
1132A016583723A017743016A017259498A016153862A015043158A013984353A013634639
1125A014154918A013798447A011265167A008423261A008460226A012018792A016717121
1118A019930366A020499639A018460013A014912125A012135566A012260517A015023628
1111A017547716A017287475A014913409A013293034A013637680A014447124A014407793
1104A014063216A014378668A015013288A014932195A014171205A013773376A014158973
1097A014779267A015279206A015790633A016034723A015311035A013661467A012255449
1090A012258895A013445489A014603093A015031940A015126819A015718865A016988647
1083A018209030A018629363A018342023A018055291A018153548A018473664A018927852
1076A019657487A020607493A021463430A021917821A021786180A021250020A020938014
1069A021157371A021442210A021300635A020938014A021055937A022082913A023665849
1062A024973069A025539640A025622963A025709394A025956796A026131011A026015994
1055A025917736A026315362A027165690A028047983A028650301A028951089A029090637
1048A029185651A029254850A029316684A029500292A029946979A030673911A031541944
1041A032204137A032293745A032084795A032543241A033873842A035119229A035401028
1034A034726401A033868775A033526359A033860665A034870003A036485782A038129809
1027A039046093A039081909A038524665A037746036A037166559A037181899A037942754
1020A039147054A040162609A040547193A040380141A040091720A040082057A040443799
1013A040987055A041516458A042058362A042776238A043645015A044371001A044766059
1006A044990957A045329926A045961641A046857584A047737308A048361117A048877882
999A049598056A050678689A051964351A053068231A053776308A054229821A054730300
992A055525485A056643083A057885225A059101689A060447833A062063275A063634114
985A064745157A065353828A065833426A066601512A067713636A068899622A070066078
978A071315384A072470892A073198027A073496517A073641538A073741823A073338047
971A071676451A068365827A063199523A055887836A046088348A033583192A019667624
964A007578407I99221903I93879628I90888781I91391355I95889452A003313858
957A012187331A021062154A029070093A035689651A040379601A042847532A042731096
950A038981421A031065388A021125947A011600487A002772765I94132299I85282615
943I75173556I61348947I42739443I22660195I03105214H80253597H52678445
936H28545558H10858690G94375649G79047237G67164605G56602640G44973964
929G33650400G24889986G18023769G11922666G09260854G12130602G18581216
922G26611456G35911342G47135297G59548953G71289606G82713454G95627320
915H09482812H21542632H31217371H39911831H48845920H57946790H66258896
908H73450566H79724330H85191691H90009294H94308712H97819433I00888400
901I04452845I09305453I15361550I21436704I27044829I32478874I37851762
894I43131325I48712217I55368334I62533919I68638130I73925196I79468446
887I85692473I92238575I98677904A005228601A012202265A018879602A024169370
880A027942156A030320075A030475841A027234957A019966925A007165778I85778635
873I52766937I08181233H56964280H07257551G67180553G41718618G30116636
866G27004622G27391639G29843690G35404713G44808804G57359576G71914157
859G87447599H02787296H16942561H29606796H41020238H51568822H61395340
852H70483844H79177695H87287608H91961677H90155329H80820775H62302028
845H36596003H15488833H08458539H13072328H22711521H32500534H41008209
838H49465944H58250281H65058043H70141766H74738121H78942863H82495212
831H85476868H88233424H90987141H93623003H95697904H96836518H97667384
824I00013203I03996426I07825843I10863048I13270228I15319382I17282644
817I19253881I21185045I23016261I24623255I25770654I26347023I26792021
810I27867248I29654471I31699840I33537477I34726841I35072095I34782863
803I34236566I33642222I33359477I34218388I35881606I37456366I38791563
796I40007013I41109270I42044340I42909806I43827644I44778866I45715626
789I46631369I47604688I48779524I50113843I51331455I52187459I52709158
782I53192946I53897915I54783045I55583028I56100402I56524924I57340044
775I58577187I59741075I60425297I60593903I60715475I61310090I62213399
768I62999731I63619755I64481301I65863803I67213867I67915389I67392542
761I64635784I58720924I50508293I43397850I40539456I42267346I46839305
754I52048182I56570066I60295886I63426348I65793184I67455119I68935675
747I70718033I72859363I74936629I76418537I76894823I76217696I74722611
740I73037294I71925846I72207780I73873296I76170595I78667585I81292770
733I83886126I85995356I87042200I86372439I83240828I77563571I70490634
726I63643678I58711125I57111565I58597257I60964836I61598173I59165787
719I53486705I43792841I28898616I10413590H93705650H82863442H78383997
712H79456655H84806228H92280643H99506304I04986505I08579265I11310275
705I14317274I17948621I21865145I25467839I28313597I30284429I31521233
698I32415960I33462871I35018641I37251403I40082700I43175724I46224012
691I49205533I52201718I55144991I57912359I60507269I63014058I65482260
684I67902009I70208836I72305227I74072785I75309995I75725461I75042320
677I73048918I69723562I65641067I62189814I60925709I62495468I66258388
670I70826765I74657669I76213506I74108533I67428291I56013362I41003984
663I25227466I12193988I04346073I02240289I04678486I09379113I14091836
656I17592420I20005141I22357042I25642798I30005536I34695418I38777845
649I41784099I43813048I45319892I46843968I48743978I51134263I54000024
642I57171303I60258448I62938168I65295611I67634470I70044825I72411053
635I74707135I77007543I79268890I81327842I83099253I84657861I86128821
628I87544436I88782997I89609943I89803013I89292667I88197505I86650790
621I84541424I81507058I77281164I72018428I66225005I60432258I55026460
614I50352256I46819302I44850566I44784069I46759969I50564112I55675745
607I61578576I67839230I73785310I78373420I80428453I78771384I72200887
600I59641398I40264551I13556486H79880772H41409146H02397779G68287879
593G44085049G32723777G34140202G45637643G63314577G83519925H03553761
586H21730633H37348952H50671054H62566255H73830014H84749936H95238444
579I05208700I14732200I23897675I32618219I40457755I46355991I48529622
572I45136148I35480061I20613812I02599125H83090773H62743984H42076339
565H22673475H07149562G97786896G95314301G98894356H06937030H17708012
558H29439136H40510568H49934662H57607821H64015592H69732855H75089727
551H80109386H84699997H88834323H92506892H95710000H98568125I01260955
544I03744903I05862580I07756103I09792350I12034167I14141640I15867165
537I17385768I19084938I21205183I23685887I26238291I28579785I30646982
530I32546046I34232039I35188531I34499510I31485687I26463121I20782688
523I16083211I13534388I13478705I15339587I17938687I20264368I22054498
516I23660005I25476827I27483272I29226164I30267805I30629480I30734698
509I31000886I31558468I32300943I33125389I34041673I35088719I36334376
502I37895079I39691426I41323896I42484135I43271211I43850959I44139312
495I44039973I43681677I43225326I42616587I41645160I40238533I38691886
488I37529147I37086041I37270730I37709106I38020571I37978470I37551921
481I36865265I36018113I34887068I33248244I31196861I29230489I27770071
474I26838582I26345536I26451768I27452524I29391865I31922171I34574791
467I37109896I39546607I41925134I44167086I46144946I47825532I49319874
460I50749680I52082647I53122057I53510831I52721727I50500656I47593673
453I45556683I45369156I46521555I47730450I48113074I47436285I45784893
446I43540980I41533657I40687789I41381945I43310473I45899504I48626258
439I51096826I53144290I54859813I56394162I57775109I58942714I59863390
432I60581401I61190816I61748803I62196707I62377950I62181367I61718191
425I61307251I61204804I61409632I61809894I62376058I63092514I63868779
418I64637000I65412925I66193716I66893482I67398151I67618724I67530738
411I67240694I66962546I66842461I66845705I66888616I67025123I67413018
404I68156371I69220582I70386835I71345761I72031605I72755226I73778350
397I74925681I75847033I76468949I76961319I77411927I77759275I78018570
390I78378015I78947491I79509736I79660029I79088593I77715079I75823922
383I74107385I73254083I73373019I73862078I73678875I71893274I68602923
376I65408668I64292422I65737973I68490812I71263654I73903233I76656883
369I79156644I80679977I80826012I79409113I76212763I71475645I66455917
362I63072850I62792539I65777236I71031727I77275082I83645144I89791930
355I95616302A000950131A005419575A008798993A011495269A014141200A016408089
348A016510536A011883367I99768538I77411318I43722899I02741444H64872475
341H41948280H39161990H52010036H71102516H89073276I03403704I14840189
334I24677385I33387995I40802130I46734965I51185082I54085240I55119649
327I54008066I51000257I46814099I41888777I35958510I28663176I20367897
320I12015718I04193145H96358407H86659205H72387841H51185860H22948110
313G91770197G66291300G56482690G67668463G96692342H34110366H70013301
306H98226723I16464010I23719270I18301511H98707537H65675499H22758015
299G75626935G31223083F96215617F74750759F67355141F71823300F84648099
292G01963493G20482375G38428876G55417127G71238314G85142461G96458659
285H05395519H12806478H19344605H24976856H29245053H32071484H34198420
278H36526331H39217944H41869079H44253688H46423468H48416870H50357832
271H52590662H55376411H58617971H61972655H65036418H67604297H70100206
264H73400829H77767757H82325524H85973968H88411355H90109984H91809762
257H94061649H96804689H99375743I00962667I00845015H98639014H95024696
250H91939309H91257721H93329581H97174676I01650675I06020171I09857427
243I12942477I15150573I16338789I16677758I16960975I17842592I18828819
236I18728263I16841431I12930245I06305146H96018222H82765792H70579669
229H65049798H68340014H77296133H87408775H96437270I03640968I08243472
222I10103544I10396425I10591319I11351701I12538160I13899510I15630711
215I18094182I21199844I24503913I27672084I30515071I32716815I33716219
208I33566940I33491389I33994841I34347258I33240811I29517288I22913611
201I14146236I04697070H96673994H92228946H92130148H94887109H98229224
194I01394622I05100103I09654018I14232194I17904020I20529610I22479425
187I23804621I23700754I20751535I14100080I04733765H95547544H89730469
180H88683152H91544385H96606957I02719413I09380532I16083481I22040982
173I26622875I29798817I31810532I32509419I31454128I28806575I25630566
166I22403536I17427733I08732193H98500345H93102588H96340430I04942580
159I12951194I17803262I20574346I22931587I25494262I28123569I30593596
152I32704043I34192235I35122981I36050483I37141184I37751004I37603212
145I37567936I38592885I40499518I42084414I41863368I38738515I32922859
138I26655177I23110464I23958427I28188241I33176342I36737814I38432388
131I39201623I40028367I41079468I42042178I42992994I44396715I46151704
124I47256056I46929859I45936334I46220768I48683429I51549527I52095149
117I50303938I49215669I51067429I54865558I58353167I60683308I62158391
110I62627176I61364422I58232338I53939340I48528406I40112163I25528862
103I03214622H76987439H55577522H46232493H49847487H62182416H78022727
96H93752887I06595999I13574867I13350172I08240364I02337127H97101625
89H90490311H80672307H68880026H58577762H52294605H49830525H50229705
82H54376871H63319475H74812388H84004826H87358497H84370894H76965409
75H69115196H65410865H68322646H76948987H87766463H96544380I01348400
68I02884235I02488906I01817929I02462957I04816210I08603255I13280364
61I16555105I15773841I13113515I13674815I18911736I26466027I32896166
54I35838695I35463842I33795216I31316878I26132870I19720910I18656158
47I26202745I37789658I46079260I48582737I48258231I47116305I44274805
40I39092148I33130660I29561957I30769230I35587643I38862046I34380912
33I20928048I08931614I07641289I12344078I16119027I18228730I21616798
26I26124693I28028082I25701860I22270340I23191017I32994423I54677422
19I89611294A030064497A053208724A046470973A020603100I88771914I60015169
12I41786262I37599495I46938239I70548413A003988417A023931497A011081424
5I72547762I21727490H68902191H35134233H38310716
##END=


$$ === CHEMSPECTRA PEAK TABLE EDIT ===
##TITLE=X8294
##JCAMP-DX=5.00
##DATA TYPE=INFRAREDPEAKTABLE
##DATA CLASS=PEAKTABLE
##$CSTHRESHOLD=0.93
##MAXX=3997.453
##MAXY=0.9470601628471438
##MINX=373.96442
##MINY=0.5886195871056599
##$CSSOLVENTNAME=- - -
##$CSSOLVENTVALUE=0
##$CSSOLVENTX=0
##NPOINTS=30
##PEAKTABLE= (XY..XY)
375.380951892103, 0.7366038518406528
388.12973892103173, 0.8269801095566525
405.12812162627006, 0.8134595111039934
416.46037676309606, 0.8005564173382594
477.37124812353386, 0.7633084016851112
491.5365670445658, 0.7495662534130177
514.2010773182169, 0.7463927225894454
566.6127573260355, 0.8142005160226886
602.0260546286158, 0.7877330139449039
627.5236286864733, 0.7838349895891435
651.6046708522281, 0.7868753038650395
696.9336913995307, 0.7629899339077609
790.424796278342, 0.5886195871056599
813.0893065519936, 0.6672317350745919
854.1687314229866, 0.7401564080684349
1001.4880482017197, 0.8297040420289744
1042.5674730727128, 0.8170539094078714
1110.5610038936666, 0.8057051263008296
1168.638811469898, 0.7014819347497115
1211.1347682329942, 0.6462759340311123
1238.0488741829554, 0.8333170368111172
1307.4589368960123, 0.7957926353657494
1382.535127177482, 0.7747509442417845
1444.862530430023, 0.8295732095773306
1566.6842731508991, 0.7130753959655569
1599.2645066692726, 0.6412315334595532
1682.839888303362, 0.6255812016464075
1735.2515683111992, 0.8766202286079143
2715.491637646599, 0.8352664070885124
2799.067019280688, 0.8387272907224577
##END=


$$ === CHEMSPECTRA PEAK TABLE AUTO ===
##TITLE=X8294
##JCAMP-DX=5.00
##DATA TYPE=INFRAREDPEAKTABLE
##DATA CLASS=PEAKTABLE
##$CSTHRESHOLD=0.93
##MAXX=3997.453
##MAXY=0.9470601628471438
##MINX=373.96442
##MINY=0.5886195871056599
##NPOINTS=203
##PEAKTABLE= (XY..XY)
3993.2034043236904, 0.8574823691456733
3981.871149186865, 0.8602346735074065
3970.5388940500393, 0.8574717593450165
3949.290915668491, 0.8564846474475315
3937.9586605316654, 0.8579127147968874
3923.7933416106334, 0.8585095952449932
3915.2941502580143, 0.8582639645561987
3908.211490797498, 0.8584592293420166
3896.8792356606723, 0.8545785498802554
3878.4643210633308, 0.8586386398451171
3872.798193494918, 0.8602057053734825
3861.465938358092, 0.8575243311762866
3851.5502151133696, 0.8509564950039779
3843.0510237607505, 0.8594579653614449
3837.3848961923377, 0.8589419677747432
3824.636109163409, 0.8576932500692107
3813.3038540265834, 0.857634361221372
3797.722003213448, 0.8578308176141969
3792.055875645035, 0.8587170795152484
3776.4740248319, 0.8588797404868442
3766.5583015871775, 0.8588224004635091
3758.0591102345584, 0.8584392022297285
3743.893791313526, 0.8542798119749554
3732.5615361767004, 0.8591006349665256
3721.229281039875, 0.8572315530700586
3707.063962118843, 0.8595115497499644
3697.1482388741206, 0.8621697383265879
3687.2325156293978, 0.8584318708918734
3677.3167923846754, 0.8598049241007051
3667.401069139953, 0.8598876547908876
3660.318409679437, 0.8601590351280628
3653.235750218921, 0.8608128983820071
3646.153090758405, 0.8559413505059268
3637.6538994057855, 0.8607343987346171
3617.822452916341, 0.8574418377490832
3602.2406021032057, 0.859319801571946
3585.2422193979673, 0.8583713132650138
3573.9099642611413, 0.8604336930460214
3563.994241016419, 0.8578551966058133
3556.911581555903, 0.8577921349284038
3549.828922095387, 0.8576190423238903
3539.9131988506647, 0.8577716306441019
3524.331348037529, 0.8572596268372135
3514.4156247928067, 0.8577106549404685
3507.3329653322908, 0.8580455732450487
3491.7511145191556, 0.8566443280785819
3483.2519231665365, 0.8572059224941766
3470.5031361376073, 0.8587459276946551
3457.7543491086785, 0.859442229269208
3446.422093971853, 0.8577314573470268
3435.0898388350274, 0.8576773957864935
3418.0914561297886, 0.8583115891456462
3411.0087966692727, 0.8574380230190275
3398.260009640344, 0.8605185705692572
3384.094690719312, 0.8596928671770836
3365.6797761219705, 0.858806427108293
3357.180584769351, 0.8575428085820526
3347.2648615246285, 0.8579720217214998
3337.349138279906, 0.859130795589475
3324.6003512509774, 0.8585358220653879
3306.1854366536354, 0.8592782576181064
3296.269713408913, 0.8603638962752695
3289.187053948397, 0.8605573132323089
3279.2713307036747, 0.8581618620934811
3272.1886712431588, 0.8593758300337566
3253.7737566458172, 0.8597131324343694
3248.107629077404, 0.8598307328443262
3233.942310156372, 0.8595623328476961
3226.859650695856, 0.8594288781550221
3218.360459343237, 0.8613895135728271
3211.277799882721, 0.8604461506754566
3198.5290128537918, 0.8620727012961733
3192.862885285379, 0.8615047889819916
3180.1140982564502, 0.8617088157396877
3163.115715551212, 0.8618350581670055
3153.1999923064895, 0.8603074506187035
3139.034673385457, 0.8624580454809887
3131.952013924941, 0.863955255143362
3117.7866950039092, 0.8605864595339718
3109.28750365129, 0.8630848484070461
3099.3717804065673, 0.8645399752022703
3088.0395252697417, 0.8623684006477064
3076.707270132916, 0.8625526975333523
3062.541951211884, 0.8571401785984781
3051.2096960750587, 0.8573408078208739
3042.7105047224395, 0.8563506556055849
3031.3782495856135, 0.8567368341799108
3012.963334988272, 0.8593426299750218
3004.464143635653, 0.8601620154686082
2991.715356606724, 0.8593011451164224
2974.7169739014853, 0.8550677252840679
2960.5516549804533, 0.857523138687261
2950.635931735731, 0.8578652692571975
2944.969804167318, 0.8576669650355941
2932.2210171383895, 0.8580728126226931
2916.6391663252543, 0.8605956986778641
2908.1399749726347, 0.8607045962111827
2892.5581241594996, 0.8627346112049843
2885.475464698983, 0.8630041437133812
2825.981125230649, 0.8481509043759816
2799.067019280688, 0.8387272907224577
2715.491637646599, 0.8352664070885124
2691.410595480844, 0.8409749817103976
2653.1642343940575, 0.852538938525065
2641.831979257232, 0.8544281083930972
2631.9162560125096, 0.8553819611366071
2616.3344051993745, 0.8583649944844082
2605.002150062549, 0.8574791506601304
2585.1707035731038, 0.8581679418470706
2578.088044112588, 0.8592634749878788
2566.7557889757622, 0.8603493526720581
2562.5061932994527, 0.8604277323649308
2551.1739381626267, 0.8617198409710627
2537.0086192415947, 0.861281986696273
2529.9259597810787, 0.8620552373296753
2524.259832212666, 0.8607898309519151
2510.094513291634, 0.8612761450876812
2495.929194370602, 0.8637840703448857
2486.0134711258797, 0.8652451587032189
2471.8481522048473, 0.8644463974484519
2463.348960852228, 0.8656869485446003
2456.266301391712, 0.8647500235003343
2436.434854902267, 0.8650889355847278
2425.1025997654415, 0.866025264384481
2416.6034084128223, 0.8679625342499375
2408.104217060203, 0.8675900057940724
2399.605025707584, 0.8679287988059671
2386.8562386786552, 0.8659894420847158
2371.27438786552, 0.868979628602633
2359.942132728694, 0.8641043259737556
2347.1933456997654, 0.8667669846201879
2335.8610905629394, 0.8690653996106195
2321.6957716419074, 0.8644908026703378
2304.697388936669, 0.8677952241587756
2299.0312613682563, 0.8683112217454774
2290.532070015637, 0.8687425808359595
2274.950219202502, 0.869344825720643
2265.0344959577797, 0.8703195999432101
2245.2030494683345, 0.8694612336415742
2239.5369218999217, 0.8703368257647104
2222.538539194683, 0.8746134592119438
2211.2062840578574, 0.8690769628732855
2204.1236245973414, 0.8708184907809103
2198.4574970289286, 0.8691915229654383
2187.125241892103, 0.873232241157765
2178.626050539484, 0.8777304844016914
2168.7103272947616, 0.8725080448658149
2151.7119445895232, 0.8769898367004928
2138.963157560594, 0.8783491207183648
2127.6309024237685, 0.876605207832689
2119.131711071149, 0.87957435379905
2104.966392150117, 0.879321689894657
2063.8869672791243, 0.8791257680050492
2053.971244034402, 0.8792450980533041
2048.305116465989, 0.8792677474066224
1733.8350364190774, 0.8739822461933363
1682.839888303362, 0.6255812016464075
1599.2645066692726, 0.6412315334595532
1566.6842731508991, 0.7130753959655569
1507.1899336825645, 0.8232403351979193
1444.862530430023, 0.8295732095773306
1419.3649563721656, 0.8572565865194095
1398.1169779906177, 0.8441901164650681
1382.535127177482, 0.7747509442417845
1325.8738514933539, 0.8475542620728735
1307.4589368960123, 0.7957926353657494
1238.0488741829554, 0.8333170368111172
1211.1347682329942, 0.6462759340311123
1168.638811469898, 0.7014819347497115
1110.5610038936666, 0.8057051263008296
1062.3989195621575, 0.8265272336246189
1042.5674730727128, 0.8170539094078714
1012.8203033385453, 0.8338330943750776
1001.4880482017197, 0.8297040420289744
973.1574103596558, 0.847800429028922
951.9094319781075, 0.8527729468559531
913.6630708913212, 0.8584281161390763
903.7473476465984, 0.8505237652567312
883.9159011571537, 0.8492008406878969
854.1687314229866, 0.7401564080684349
813.0893065519936, 0.6672317350745919
790.424796278342, 0.5886195871056599
725.2643292415946, 0.7861058071024157
696.9336913995307, 0.7629899339077609
665.76998977326, 0.8233566840236104
651.6046708522281, 0.7868753038650395
627.5236286864733, 0.7838349895891435
602.0260546286158, 0.7877330139449039
577.9450124628615, 0.8269522739344953
566.6127573260355, 0.8142005160226886
545.3647789444876, 0.8343333558695424
536.8655875918685, 0.8372257900400332
514.2010773182169, 0.7463927225894454
491.5365670445658, 0.7495662534130177
477.37124812353386, 0.7633084016851112
466.03899298670785, 0.7954201060278658
456.1232697419855, 0.8053830219611626
440.54141892885036, 0.8102717356814846
426.3761000078184, 0.819890852265824
416.46037676309606, 0.8005564173382594
405.12812162627006, 0.8134595111039934
388.12973892103173, 0.8269801095566525
375.380951892103, 0.7366038518406528
##END=

##END=

