##TITLE=X7400
##JCAMP-DX=4.24
##DATA TYPE=INFRARED SPECTRUM
##DATE=29/10/2018
##SAMPLING PROCEDURE=Diamant-ATR
##ORIGIN=ComPlat
##XUNITS=1/CM
##YUNITS=TRANSMITTANCE
##RESOLUTION=4
##FIRSTX=3997.453
##LASTX=373.96442
##DELTAX=-1.4165319
##MAXY=0.94231349
##MINY=0.26242566
##XFACTOR=1
##YFACTOR=8.7759783e-010
##NPOINTS=2559
##FIRSTY=0.87198603
##XYDATA=(X++(Y..Y))
3997+993605503+993756552+993917042+993801514+993478428+993103589+992785733
3988+992801694+993436455+994447753+995230440+995613361+995862416+995898413
3978+995305081+994171599+993267747+993235554+993946043+994776816+995283212
3968+995450833+995399827+995129378+994673716+994260911+994143752+994379631
3958+994770975+994902939+994460929+993715869+993436727+994134719+995454705
3948+996348369+996106649+995258625+995129989+996329624+997857710+998429647
3938+997988995+997185118+996398153+995847067+995903167+996555179+997111291
3928+997081204+996674851+996293288+996081451+995948400+995748518+995402408
3918+995031100+994961077+995373543+996112150+997019195+998045299+998869755
3908+998874305+997835908+996416898+995704099+996148690+997398720+998986506
3898+1000253311+1000473434+999644835+998552918+998207691+998941952+999743791
3888+999614339+998851757+998187112+997589909+996764638+996330846+997021911
3878+998182357+998822959+998945416+998605622+997450202+995975499+995836879
3869+997484025+999216204+999832831+999597360+999086957+998503270+997882296
3859+997248214+996513070+995732829+995651938+997300171+999726608+1001236424
3849+1001833898+1001960429+1001689504+1000879175+999532159+998046793+997096689
3839+997256500+998489958+999977768+1000966110+1001300742+1001129453+1000666592
3829+1000223903+1000162166+1000508751+1000783954+1000683775+1000582714
3820+1000807590+1000954768+1001027237+1001707299+1002896882+1003474184
3812+1002853618+1001294154+999540241+998838988+999809671+1001053181+1001099026
3802+1000413937+1000440154+1001529218+1003084403+1004654666+1005654894
3793+1005664199+1005028690+1004336471+1003848276+1003626456+1003712712
3785+1003956809+1004027308+1003826475+1003642825+1003782736+1004071659
3776+1004026289+1003631143+1003443078+1003935347+1004829691+1005182932
3768+1004631982+1004029278+1004160835+1004714842+1004978227+1004863786
3759+1004715589+1004565558+1004139577+1003395060+1002514708+1001788868
3751+1001556385+1001573433+1001121507+1000339024+1000228318+1001317654
3742+1002401217+1002256348+1000967265+999232708+998265557+999207171+1001337010
3733+1002828217+1003472486+1004038515+1004810810+1005665421+1006343514
3724+1006524176+1006222009+1005880721+1005717990+1005490668+1005006957
3716+1004286279+1003380118+1002684367+1003239867+1005435859+1007936937
3707+1009413541+1009665109+1009207138+1008637850+1008081331+1007314673
3699+1006605881+1006569477+1007353250+1008637714+1010214973+1012056704
3690+1013704937+1014009820+1012477795+1010086268+1007985159+1006795712
3682+1006612673+1007033425+1007485215+1007807825+1008303083+1008720506
3673+1008296630+1007442902+1007511567+1009086584+1010867257+1011634866
3665+1011415015+1010660718+1009739547+1008790598+1007928040+1007645773
3656+1008365703+1009295636+1009234781+1008310961+1007916290+1009047260
3648+1010321061+1010457440+1010298852+1010598098+1011173363+1011671134
3639+1012178141+1012750757+1012835383+1011820553+1009839658+1007558974
3631+1005713575+1005427369+1007313654+1009637738+1010743035+1010688836
3622+1010290973+1010456014+1011569529+1012868256+1013256067+1012678357
3614+1011901579+1011595881+1011803098+1012448523+1013713494+1015150842
3605+1015659004+1014974934+1013891643+1013092589+1012481531+1011780210
3597+1011121134+1010798864+1010914188+1011218868+1011299487+1011112644
3588+1011256834+1012328783+1013892458+1015023360+1015300873+1014964271
3580+1014766291+1015185752+1015697242+1015548569+1014964068+1014709172
3571+1014919513+1015264944+1015810733+1016774488+1017568585+1017552624
3563+1017099951+1016826582+1016822167+1016844444+1016757034+1016534602
3554+1016222451+1016071334+1016323989+1016824408+1017205632+1017239251
3546+1016851779+1016260214+1016071877+1016733941+1017952050+1018959409
3537+1019312582+1019183266+1018883612+1018529217+1018231057+1018123679
3529+1018099839+1017896357+1017571030+1017561318+1018160150+1019076703
3520+1019636347+1019478030+1019038330+1019150938+1019993120+1020698312
3512+1020331487+1019059995+1018000068+1017917683+1018603179+1019527814
3503+1020410815+1021098485+1021403029+1021241384+1020733969+1020136699
3495+1019715132+1019618417+1019796837+1020048881+1020205432+1020296238
3486+1020447559+1020604178+1020559760+1020271176+1019869781+1019364811
3478+1018809039+1018749271+1019799418+1021554757+1022715339+1022608708
3469+1021730529+1020612056+1019224764+1017800117+1017085824+1017284484
3461+1017686898+1017811256+1018060583+1018862150+1019818299+1020127326
3452+1019596615+1018893664+1018751648+1019128049+1019307760+1018776710
3444+1017783681+1017053495+1017060898+1017423377+1017235380+1016214980
3435+1015054602+1014404084+1014132616+1013864001+1013617323+1013591582
3427+1013724633+1013671793+1013065014+1011818176+1010273450+1008970920
3418+1008241006+1008020272+1007933405+1007521755+1006545094+1005151486
3410+1003751358+1002747123+1002247790+1001942703+1001344142+1000201898
3401+998580764+996615490+994399599+992083597+989874226+987886947+986067969
3391+984287432+982509815+980835094+979285003+977639827+975696762+973663910
3381+971957879+970559720+968965006+966880265+964530644+962133208+959571954
3371+956713559+953650528+950653716+948117388+946173169+944223245+941573358
3361+938609894+936356648+934806828+932787900+929551202+925492425+921283550
3352+917275100+913735556+910750087+907778609+904016362+899305641+894228367
3342+889319801+884594206+879782898+874698560+869390773+864098946+858978340
3332+853842452+848282417+842019703+835039232+827463868+819516585+811565770
3322+803889480+796286337+788223865+779511894+770504412+761586106+752842146
3312+744224920+735648649+726994136+718340439+710072107+702570774+695925274
3302+689964387+684512614+679673663+675801457+673096829+671442280+670705302
3292+670873195+671785469+673069865+674482287+676096221+678064348+680380078
3282+683032274+686218509+690087998+694334568+698420444+702181876+705834299
3272+709467094+712992104+716511204+720233719+724047312+727638881+731082593
3262+734834177+739023356+743229311+747126578+750883392+754661056+758159985
3252+761033797+763481900+766131447+769485235+773592505+778053764+782296938
3242+786099664+789772734+793554474+797045864+799708587+801780356+804169234
3233+807497689+811591036+815750739+819315548+822203419+825033696+828462398
3223+832428738+836393856+840130701+843782378+847290612+850379452+853054265
3213+855603972+858134120+860491552+862579961+864462782+866241214+868005450
3203+869808129+871642864+873563312+875770374+878432010+881434119+884370144
3193+886822050+888771635+890670078+892874898+895207676+897409304+899705338
3183+902395568+905220004+907662130+909633516+911432323+913232828+914999034
3173+916746020+918564726+920478790+922480468+924537091+926442054+927984131
3163+929327412+930772434+932173242+933127353+933580027+933756477+933882941
3153+934313133+935357847+936772170+937967119+938678899+938996755+939089123
3143+939234807+939693185+940445580+941428693+942766269+944392360+945834394
3133+946714475+947192821+947796068+948963374+950701462+952560309+954052806
3123+955075175+955845432+956614195+957510305+958459254+959234470+959710371
3114+959952023+960001128+959836427+959596269+959517008+959512865+959094763
3104+957896282+956120907+954321693+952861253+951830259+951407605+951882623
3094+953181079+954729065+956036893+957151358+958315540+959419546+960012877
3084+959736587+958582729+956856051+955049162+953672193+953018959+953088031
3074+953762456+954915771+956264010+957381736+958114231+958843602+960197682
3064+962497180+965440880+968279443+970411251+971791819+972655192+973071190
3054+973099240+973105828+973505661+974265119+974894923+974925757+974330253
3044+973421375+972417208+971364548+970444124+969886993+969566352+969223978
3034+969071502+969552700+970553200+971399865+971594110+971146123+970318407
3024+969333122+968292211+967311884+966581426+965996856+964894616+962671458
3014+959629413+956818017+955180787+955105941+956462127+958752117+961401935
3004+964015010+966285711+967874244+968569860+968410660+967550140+966151981
2995+964335447+962071810+959249344+955909479+952287890+948672414+945332277
2985+942464306+940121272+938237500+936645775+935066003+933327576+931615636
2975+930206202+928944355+927219646+924461838+920502833+915384740+908868420
2965+900388185+889625160+876766255+862115877+846205487+830599708+817632677
2955+808558024+802353651+796997166+791920775+788918870+790445326+796973056
2945+806092534+814086002+818164814+817320798+811653385+801561592+787696075
2935+771231270+753884075+737819442+725372731+718147484+716049702+717462395
2925+720475575+723972467+727840666+732343965+737134082+740986796+742907855
2915+743406780+744283465+747187093+752496987+759386040+766743320+773972370
2905+780916573+787282726+792499979+796075384+797844443+797972061+796910571
2895+795276941+793633462+792377048+791769454+791897955+792530475+793194848
2885+793658320+794341982+796072599+799349369+803826588+808319972+811209880
2876+811076422+807244695+799972516+790469776+780818907+773334349+769364885
2866+768547696+769230543+769560081+768423678+765938560+763360598+762341286
2856+763927034+767954976+773063696+777142577+778142872+775042825+768404457
2846+760316991+753899696+752131928+756168835+764683640+775176284+785729918
2836+795407411+803740672+810542586+816019762+820706372+825275823+830330888
2826+836139775+842483990+848806744+854546762+859345912+863020273+865542202
2816+867156136+868264082+868964859+868876226+867562014+864961775+861292372
2806+856724686+851374586+845571473+839885110+834807632+830663618+827892430
2796+826985794+827962725+830240150+833140314+836328858+839825207+843782242
2786+848221970+852953542+857763288+862556257+867296591+871970432+876592113
2776+881134126+885489500+889528648+893190581+896587089+899915205+903172414
2766+906179005+908929207+911539158+913870306+915669792+917056065+918457959
2757+920129420+921973732+923753318+925351427+926880193+928520615+930266853
2747+931965277+933587226+935235798+936843756+938126930+939001373+939822977
2737+940961417+942275086+943277351+943735933+943839237+943837674+943855469
2727+944071176+944722781+945805054+947037017+948223069+949376927+950483853
2717+951481364+952434932+953421440+954338061+955079453+955748241+956495882
2707+957300778+958000876+958441256+958578382+958502993+958352216+958232544
2697+958276080+958659273+959391904+960179276+960721126+961101534+961588234
2687+962108825+962339407+962295056+962352243+962642389+962894364+962938511
2677+962939530+963030132+963073668+962954336+962839011+962951076+963241697
2667+963439881+963329311+962890561+962273526+961673471+961194310+960861988
2657+960718952+960807042+961148601+961781053+962610399+963277965+963531910
2647+963652668+964130607+965025426+965970844+966674609+967161038+967582808
2638+967960092+968176275+968239847+968419557+968986536+969903225+970883281
2628+971697753+972318931+972746882+972834224+972493276+972044814+972001482
2618+972411095+972806174+972934879+973075197+973423820+973701808+973660446
2608+973492757+973438490+973426265+973335119+973218164+973124030+973018893
2598+972979704+973268152+974101098+975340600+976521897+977318846+977827144
2588+978190573+978208707+977647569+976734820+976048034+975939569+976220953
2578+976447459+976416285+976221292+975955393+975695268+975621237+975778467
2568+975987247+976363445+977423712+979160170+980538700+980575104+979553551
2558+978552983+978146970+978214412+978636047+979413028+980273685+980779945
2548+980779266+980497746+980376105+980905050+982298454+984202806+985880719
2538+986729218+986699334+986329589+986241159+986496191+986674476+986551884
2529+986280280+985894438+985181096+984148200+983126850+982329085+981777320
2519+981662878+982197393+983063007+983581085+983537821+983465828+984064253
2509+985513826+987296672+988666713+989335705+989498912+989256241+988551592
2499+987712738+987415868+987955680+988959847+989842577+990244990+990129394
2489+989783013+989715162+990291039+991395996+992509986+993049730+992672514
2479+991510302+990155407+989107433+988255877+987253680+986263369+985878138
2469+986412245+987577309+988739861+989423183+989740088+990226245+991065507
2459+991802824+992044476+992006578+992079318+992320970+992668099+993186721
2449+993855237+994500865+995098679+995747838+996344498+996660180+996627716
2439+996260687+995541300+994623185+993858497+993465524+993439104+993814962
2429+994705638+995964768+997077129+997589773+997519478+997166644+996807087
2419+996760903+997270966+998017453+998312420+998036062+997788501+998025399
2410+998597676+999143532+999526046+999924996+1000557516+1001235133+1001466122
2400+1001175501+1000885560+1001020716+1001513733+1002201810+1003111570
2391+1004257143+1005497188+1006551275+1006968767+1006411704+1005241545
2383+1004401876+1004385372+1004712464+1004733179+1004499202+1004458927
2374+1004706080+1005014631+1005384309+1006079517+1007026904+1007563524
2366+1007299323+1006963401+1007457165+1008323322+1008376298+1007612968
2357+1007187938+1007649237+1008256695+1008028355+1006908184+1005703795
2349+1005179332+1005511519+1006280418+1006836259+1006999941+1007205189
2340+1007752472+1008462690+1009118709+1009723994+1010250290+1010560947
2332+1010679192+1010685576+1010323098+1009296858+1007996976+1007296335
2323+1007542402+1008185313+1008597643+1008791073+1009033744+1009311868
2315+1009402131+1009161090+1008674798+1008246235+1008149928+1008400002
2306+1008830669+1009274106+1009599500+1009815072+1010217214+1011191158
2298+1012723183+1014188105+1014753794+1014175540+1013205604+1012912946
2289+1013574806+1014617075+1015548094+1016346877+1016988973+1017315591
2281+1017400420+1017461818+1017463109+1017258336+1016976001+1016872426
2272+1016920376+1016807565+1016302187+1015537567+1014949669+1014915303
2264+1015371643+1015795587+1015719791+1015284369+1014957819+1014717661
2255+1014168069+1013536161+1013595589+1014516488+1015915462+1017867900
2247+1020452381+1022538753+1022694081+1021273034+1020092416+1020035365
2238+1020253314+1019774153+1018863169+1018517603+1019261576+1020652332
2230+1021648688+1021500151+1020569336+1019996380+1020360352+1021268823
2221+1022278355+1023241636+1023746877+1023372989+1022571285+1022427096
2213+1023637122+1026059212+1028910951+1031297248+1032805773+1033472795
2204+1033328198+1032534984+1031575508+1030658887+1029555967+1028293712
2196+1027111329+1025717652+1023654780+1021355079+1020016076+1020335155
2187+1021738611+1022934579+1023272742+1023382701+1024315147+1026562959
2179+1029973731+1033646801+1035787711+1035023430+1032375241+1030592124
2170+1031035560+1032468968+1033324666+1033644560+1033916843+1034046906
2162+1034594053+1036546354+1038955404+1039813955+1039272852+1038649298
2153+1038312085+1038274051+1038615407+1038911937+1038765098+1038459739
2145+1038066630+1036894706+1034437502+1031069043+1027891638+1026495449
2136+1028186062+1032547685+1037274027+1040234774+1041259249+1041436583
2128+1041407378+1040948592+1039902927+1038936115+1039048520+1040246660
2119+1041165454+1040707415+1039599266+1039264838+1039686812+1039661275
2111+1038743296+1037730911+1037506171+1038173736+1039069099+1039362572
2102+1038927286+1038474341+1038648754+1039304095+1039829168+1039889683
2094+1039651767+1039426890+1039302940+1039135387+1038783436+1038362548
2085+1038234319+1038490166+1038584164+1038065475+1037545088+1038062351
2077+1039536170+1040770783+1041069418+1040924277+1041019702+1041439163
2068+1042082618+1043112865+1044469866+1045338537+1044759536+1042701283
2060+1040075711+1037915512+1036945169+1037453738+1038660165+1038594692
2051+1036052523+1032778538+1032383731+1036415341+1042592206+1047582410
2043+1050283439+1051678270+1052287765+1051121139+1047757366+1044116964
2034+1042484149+1042806012+1043803048+1045313407+1047466881+1049337953
2026+1050407729+1051699324+1053859998+1055559509+1055157570+1052936382
2017+1050782907+1050537452+1052892507+1056553692+1058532957+1057110211
2009+1054268592+1053127435+1053768852+1053795204+1052137463+1050365280
2000+1050712680+1053448687+1056017683+1055528946+1052199404+1049205785
1992+1049137391+1051414680+1053388851+1053026305+1050260143+1046694451
1983+1044194730+1043754622+1045792840+1050657531+1057502641+1063333058
1975+1065526604+1064653451+1062778711+1060476361+1057386094+1054423038
1966+1053189987+1053510560+1053730614+1053468383+1054284961+1057125425
1958+1060283949+1060934739+1058146368+1053829571+1050982111+1051226819
1949+1053789024+1056546900+1058065138+1058454240+1058320509+1057698517
1941+1056543979+1055481471+1055273438+1055994659+1057010440+1057535582
1932+1057176024+1056223882+1055459058+1055386182+1055768628+1056149444
1924+1056510496+1057064435+1057706599+1058226715+1058861136+1059953596
1915+1061011283+1061011894+1059781832+1058372534+1057772819+1057683846
1907+1057268460+1056527815+1056057212+1055928235+1055627019+1055053520
1898+1054879514+1055667159+1057065386+1058147658+1058362279+1057833673
1890+1057058594+1056771097+1057749455+1060082165+1062532713+1063296722
1881+1061911128+1059591865+1057517583+1055804149+1054112856+1052478071
1873+1051507931+1051965155+1053884381+1056145573+1057751085+1058967632
1864+1060225132+1061328867+1061938023+1062052872+1062025026+1062250921
1856+1062843573+1063597802+1064165868+1064248660+1063887744+1063594610
1847+1063950228+1065094238+1066503807+1067297564+1067309586+1067211580
1839+1067454047+1067818359+1067871403+1067518773+1066932030+1066312143
1830+1065928814+1066128900+1067068613+1068412913+1069407299+1069671976
1822+1069697241+1070033571+1070736250+1071608384+1072317244+1072550067
1813+1072403092+1072222906+1072120350+1072065133+1072144053+1072360032
1805+1072611532+1072904802+1073265175+1073587038+1073741823+1073673294
1796+1073421386+1073122072+1072878246+1072699486+1072575264+1072447103
1788+1072239614+1071917479+1071397567+1070682799+1070093814+1069875458
1779+1069786961+1069559232+1069230102+1068777293+1068044662+1067039204
1771+1065935198+1064961730+1064314540+1063872666+1063418906+1063139695
1762+1063298963+1063619943+1063672851+1063392690+1062825099+1062113930
1754+1061414172+1060519828+1059112704+1057352746+1055576828+1053712412
1745+1051546984+1049021999+1046324841+1043780906+1041543214+1039681651
1737+1038355145+1037409863+1036221299+1034611508+1032985416+1031364826
1728+1029739617+1028157401+1026411095+1024500902+1022813481+1021423336
1720+1020165835+1019174980+1018141881+1016044982+1012815755+1008772464
1711+1003798357+997829727+990472448+980730908+968978250+957476753+946284622
1701+932155176+913543688+893387067+870826966+841922377+810008140+779679516
1691+747762019+710382017+670851393+632820670+588480708+526637918+460530457
1681+410513404+373694167+345265412+328514230+329526717+348116607+376169573
1672+409884484+451568073+496595805+533586196+560951424+584809336+609152895
1662+632145769+650456924+665109406+678764853+693951103+717710771+757334510
1652+794179726+813674826+826898519+843078816+861239328+874261033+880268444
1642+880803026+876464767+865823382+841779410+791753018+719634615+650379090
1632+590514172+530917632+466563677+403499925+353050065+320219717+303534111
1622+299027245+301128423+306082766+314002576+326133774+340966443+357124429
1612+376231853+400067624+428270213+458394743+487842268+515694129+542348256
1602+567860649+591629520+613401977+633625022+653070950+672195354+690504607
1592+707055260+721238973+732194546+738087786+736404372+724850985+703504442
1582+677529222+655916916+646134761+652726266+677582877+711039123+736777173
1572+751870036+760078192+762723120+762201035+764683776+774585737+790322258
1562+806522455+821217047+839314599+861946898+877618353+886094581+892876460
1553+899307543+905326092+910826970+915102813+917680842+918620012+917519877
1543+913634155+906457333+897326987+890444114+885959968+879688696+866856414
1533+844801283+815125078+777717230+726937696+659665239+586104463+521662622
1523+471508002+436978618+421997311+426323073+445887619+474319363+504227643
1513+532763064+560112094+586283019+615108687+655359106+699720801+729677778
1503+748388834+764004461+779543340+795241148+809831010+820608027+826017284
1493+827207070+826122081+824396626+822601690+819767610+815166440+809303831
1483+803542555+799926128+800151140+804408713+811904885+821574499+831922342
1473+840215667+841629039+833829682+820796974+808862228+803765530+806809205
1463+811166752+809806492+801797539+787425286+766339004+744337460+728378847
1453+714468708+695967859+670013829+638028822+604272990+572369960+542448096
1443+513929281+490143668+476948127+478446839+496560590+526207929+549809620
1434+555464401+546646478+532448740+522959584+524499963+537581265+561247716
1424+592818288+626701059+660171839+694898898+728580699+754817132+773493549
1414+788352094+801317427+812751074+822718984+831379949+839360240+847214476
1404+854310068+859711310+863553361+866265121+867550264+866593368+862696983
1394+855869803+847002707+837109983+827459114+820724845+819881916+824310030
1384+829661150+831589136+827467060+817074595+802533906+786040779+767853303
1374+747545836+726563808+706945029+688527515+670056889+651512369+633921892
1364+618528152+607452501+602601393+602456049+602440292+597427132+583337010
1354+559432202+529829043+501430782+480139116+468423644+465350560+468572893
1344+476041762+486539025+499836442+516093215+534274578+551821588+566543007
1334+578131439+588512630+601130223+618539699+640175912+662915657+683471703
1324+699786070+710652398+714788669+710788031+698580662+681069174+663370231
1315+650218192+644269395+645621302+652307892+661830056+672476806+683550963
1305+694874855+706207712+717069694+727033189+736078434+744648796+753322529
1295+762353851+771544643+780491271+788740925+795786122+801259969+805200636
1285+807907574+809531628+809898860+808555919+804699198+796941610+783246023
1275+761396819+730107427+690508138+647236730+607866189+580276628+569434104
1265+575458936+594167275+619848885+647901783+675138782+698303489+712826044
1255+713505699+697927020+670710735+643639320+629258441+632894972+650573607
1245+673796791+695307696+711121779+719461560+719641611+712299409+699947918
1235+686485970+675813275+670627604+671894409+678827202+689226391+700125456
1225+708645219+712887239+712601236+709393403+706281675+706455748+711771482
1215+722160076+736289862+752598999+769938927+787679435+805416411+822687199
1205+838905801+853285322+864307658+868193719+857943542+827900241+783637978
1196+744414751+728689368+736481866+749844859+749060814+724336303+675579773
1186+609298035+537686878+476226160+438189697+429459626+447083281+482195129
1176+524801960+567191046+604912437+635957257+659080126+672674990+675342332
1166+667857434+654900931+644374260+643613307+655264156+676564040+702141804
1156+727232189+748858147+764791290+771553201+763392180+734177886+682719580
1146+618228838+559421980+524709727+520815482+540256384+568945027+595831332
1136+617426184+636134183+655398634+675982391+695994550+713391937+727762084
1126+740037575+751364047+762510605+773742604+784616064+793863364+799817731
1116+801450343+799592108+797187812+797562651+801814451+807904993+812009750
1106+810091204+798833328+777637291+751743573+732143268+729109577+744178396
1096+768915268+791114793+800882481+791672603+759257471+703317328+631132094
1086+558250599+502717929+476088014+478458792+501074179+533005056+566172243
1077+596431523+622118907+642304461+655929752+661767504+658553015+644778032
1067+618621132+579183828+528923629+475124327+428442622+398768387+390871499
1057+402950944+428913396+462062041+497420499+531953550+563774875+591537424
1047+614306577+631677882+644000440+652645036+659939560+668355069+679278788
1037+692356865+706026982+718772397+729911620+739402813+747431666+754412273
1027+760936199+767434249+774068338+780875619+787722971+794262858+800212878
1017+805579754+810388616+814146992+815895947+815391181+814194738+814754246
1007+818150212+823394360+828964447+834261232+839464562+844739342+849965900
997+854887302+859240979+862914796+866095801+869066193+871752959+873621042
987+873937540+871758053+865267678+851211447+826427576+792315650+758103545
977+736847944+735889554+751757632+774757774+796862485+814728098+827888423
967+836696023+841557929+842683941+840265926+834131034+821942275+799790224
958+768645769+738730562+721284003+715741083+711104460+700333421+687215612
948+678918959+678607691+686823318+704105719+729069777+756805362+781475538
938+799208643+807617700+804965097+792875973+779199132+774286355+782649568
928+799905956+818300650+833249594+844372042+852867490+859650999+865220746
918+870006924+874375271+878421483+882059032+885292742+888151340+890490367
908+892060833+892458493+890728147+884869749+871499082+847274311+813678698
898+781080120+764295353+770861525+794638852+822211298+843899672+857538072
888+864483973+865245401+858423858+842298642+818245433+792985389+774882267
878+765774674+757222989+736874907+700693861+660498389+638303550+649714716
868+691303458+744982273+793374831+829344856+853948201+870590136+882042800
858+889797739+893909017+892966519+883874479+862768569+829608989+793307388
849+768674431+764507597+775635477+788636263+794172595+792521985+789347840
839+789087578+792034266+795219210+794797304+787912665+772905108+748602164
829+715086014+676551883+642553108+623666417+624546294+642121014+670193880
819+703230597+734979589+756235258+756550058+728619345+672344366+597410221
809+522390465+468096245+447395160+458877131+490279640+528837814+568655968
799+609188891+649769390+687878152+721267770+749303077+772283591+790693837
789+805204711+816753683+826218185+834098569+840762950+846822182+852882704
779+858998715+864599433+869065378+872391524+875112520+877699175+880082824
769+880404959+873853865+856690116+834304088+820735576+825406022+843281347
759+861654171+872843925+876643323+874999777+869997823+865395228+865447932
749+871343414+880052804+885874731+882284520+865402087+839598836+818211542
739+813672042+825900601+843283521+853517873+847913691+816154307+748119946
730+649911611+552893469+495974084+496919570+544240790+612953787+681051039
720+735131114+770994644+791281056+799645899+797831538+788924914+780055645
710+778786734+787277700+801308666+814788341+824079041+828373901+828121789
700+824312543+818168550+810294686+800344706+787717673+772098922+753337607
690+731261285+705841770+677655821+647792706+616919380+585216572+553521302
680+523488970+496599473+473738189+455526976+442719349+435818987+434584239
670+439704233+453949650+475329371+494356686+506433652+511097306+507179697
660+496391474+486297882+485739902+498386564+521374922+548837952+575873167
650+600220462+621498680+639631414+653863892+662142275+661658631+651893117
640+637737454+627942871+628772488+639487088+654512033+668908125+681072637
630+691517671+701026727+710129294+719314518+729101698+739593595+750138536
620+760049870+769395040+777768101+782271944+779240902+769682741+760911273
611+760299197+768315688+779852910+790823221+800525232+809128331+815996737
601+820331940+822125857+822502462+823194546+825463752+829538694+834686806
591+839490982+842395018+841968425+836790565+826581682+814205130+805231878
581+804391597+812232045+825287369+839180190+851261842+861098059+869221657
571+875443485+878265679+876040755+867748585+850855829+820469066+776135421
561+730216979+703114321+706443727+733768272+769195973+801527090+827739411
551+847350923+859412607+864523705+865269580+863393414+858688874+851000562
541+841733158+833234381+827417752+824454831+821809970+814577388+797760089
531+769177295+730285508+684189392+634623416+587962359+552620099+533895222
521+532086262+544528490+566826598+593689947+620381362+643774409+662442268
511+676183700+685419114+690537819+691835119+690594870+689592808+691577439
501+697598229+707381130+720529298+735784417+750211004+761310020+769453721
492+776861532+785028869+793627485+800619231+803110122+799363700+790183230
482+777425251+762283827+746439792+733568458+727944512+731979110+745104525
472+763196848+780914264+795981250+808552794+818353762+824685752+827398191
462+827008750+825002454+823426282+822791928+821139484+817089877+812016066
452+808483993+808100461+810753947+815444157+820672684+823693131+820234070
442+806346140+781171741+746446109+705244092+664644848+635616512+624993058
432+630909255+647331476+668727463+690927056+710747076+726431436+738463304
422+748285191+755796441+760195350+763699577+768856383+773507744+774608218
412+772151626+768547085+764945532+760414861+755198830+751774951+751963491
402+754869768+758027681+759956890+762983178+771546953+784390780+796666542
392+807518132+819067783+830221405+835847184+834004299+831232228+836332933
382+848766401+860837662+867655945+868268972+862742149+852568176+842806533
##END=
