##TITLE=YM-299
##JCAMP-DX=4.24
##DATA TYPE=INFRARED SPECTRUM
##DATE=14/4/2020
##SAMPLING PROCEDURE=Diamant-ATR
##ORIGIN=Lara
##XUNITS=1/CM
##YUNITS=TRANSMITTANCE
##RESOLUTION=4
##FIRSTX=3997.453
##LASTX=373.96442
##DELTAX=-1.4165319
##MAXY=0.96262354
##MINY=0.64978653
##XFACTOR=1
##YFACTOR=8.9651303e-010
##NPOINTS=2559
##FIRSTY=0.93264008
##XYDATA=(X++(Y..Y))
3997+1040297289+1040183998+1040733364+1041567285+1042061667+1041803373
3989+1041032346+1040487037+1040599130+1041071506+1041314575+1041010473
3980+1040326276+1039796923+1039808956+1040147498+1040343828+1040384384
3972+1040681173+1041378866+1042010473+1041952764+1041202681+1040542419
3963+1040726050+1041632706+1042489697+1042816072+1042761554+1042622069
3955+1042465895+1042268236+1042085734+1041936542+1041673328+1041167776
3946+1040574797+1040247225+1040364771+1040694669+1040811550+1040648263
3938+1040606710+1041034806+1041805500+1042448144+1042554719+1042110267
3929+1041537965+1041295295+1041426602+1041569080+1041349347+1040732300
3921+1039990460+1039501796+1039594011+1040315505+1041285987+1041955823
3912+1042061534+1041824581+1041730106+1042008545+1042377537+1042342699
3904+1041741342+1041026895+1040852638+1041346687+1042014064+1042308924
3895+1042101092+1041544148+1040902235+1040584105+1040836216+1041351408
3887+1041655510+1041648596+1041603519+1041675722+1041792203+1041940598
3878+1042129482+1042214250+1042019914+1041561966+1041085335+1040832227
3870+1040875841+1041204543+1041729774+1042154679+1042106012+1041643277
3861+1041294364+1041353469+1041751116+1042436975+1043308858+1043779838
3853+1043101159+1041880495+1041248556+1041308193+1041753376+1042316903
3844+1042783029+1042973176+1042769399+1042217973+1041620473+1041356461
3836+1041436376+1041486040+1041247492+1040887210+1040855098+1041379332
3827+1042167245+1042687224+1042700454+1042415101+1042187922+1042178414
3819+1042261587+1042466693+1043151887+1044349681+1045328273+1045434051
3810+1044736224+1043795395+1043200820+1043096173+1043160530+1043140518
3802+1042983016+1042671932+1042380928+1042468754+1043110999+1044022841
3793+1044616352+1044492025+1043736157+1042921318+1042641682+1042887676
3785+1043147699+1043130745+1043023771+1043077690+1043351808+1043742806
3776+1044001366+1043877970+1043387577+1042841735+1042573269+1042627786
3768+1042778641+1042828571+1042749454+1042572471+1042320559+1042075895
3759+1042041256+1042348815+1042786752+1042974173+1042702383+1042029222
3751+1041354533+1041238317+1041754174+1042673395+1043894791+1044974041
3742+1045189785+1044650193+1043933551+1043319496+1042801578+1042356328
3734+1042150624+1042388108+1043022774+1043841868+1044699392+1045469886
3725+1045774720+1045143112+1043754108+1042505122+1042044979+1042143044
3717+1042253343+1042284458+1042562764+1043262120+1043966727+1044106745
3708+1043877438+1043779240+1043802177+1043691280+1043558709+1043851908
3700+1044616684+1045317901+1045563098+1045418693+1045125161+1044836550
3691+1044567618+1044217043+1043761621+1043485443+1043614290+1043972910
3683+1044260059+1044350944+1044313446+1044321558+1044622003+1045287385
3674+1045829171+1045798854+1045454661+1045249355+1045335520+1045483382
3666+1045410847+1044968589+1044185396+1043332660+1042738151+1042541688
3657+1042793600+1043549135+1044592018+1045406792+1045559175+1044903966
3649+1043860617+1043292570+1043457120+1043938471+1044403999+1044765877
3640+1045023705+1045246231+1045532847+1045756835+1045539562+1044793002
3632+1043989798+1043597536+1043654248+1044008081+1044554122+1045128685
3623+1045570744+1045890603+1046214584+1046534177+1046628320+1046338579
3615+1045777911+1045228546+1044877837+1044709165+1044802310+1045373283
3606+1046208268+1046675525+1046515229+1046027030+1045580185+1045270896
3598+1045088661+1045158470+1045581315+1046161795+1046561237+1046636697
3589+1046343764+1045562433+1044499006+1043923711+1044327674+1045416100
3581+1046493888+1046959947+1046631910+1045828041+1045147500+1044966728
3572+1045086467+1045080018+1044921518+1045005422+1045487770+1045903169
3564+1045863411+1045568616+1045388242+1045444821+1045542953+1045411712
3555+1045060405+1044823984+1044964334+1045352075+1045727648+1046089327
3547+1046570811+1047082878+1047253412+1046796062+1045871389+1044996912
3538+1044601060+1044704312+1045059541+1045471149+1045842933+1046067985
3530+1046103953+1046139789+1046477865+1047124431+1047626193+1047476004
3521+1046608175+1045417097+1044444555+1044085868+1044319031+1044687890
3513+1044750918+1044489100+1044182272+1044089126+1044309923+1044713486
3504+1044980823+1044954428+1044895456+1045141650+1045635234+1046021578
3496+1046057680+1045834623+1045666216+1045736624+1045857161+1045683037
3488+1045186594+1044720800+1044560571+1044615155+1044719537+1044953697
3479+1045412177+1045869993+1046067918+1046144177+1046308993+1046281734
3471+1045683768+1044824450+1044430393+1044720800+1045286653+1045697597
3462+1045800516+1045662626+1045543086+1045692478+1045994851+1046050699
3454+1045711426+1045289113+1045118180+1045115986+1045000436+1044794199
3445+1044796593+1045094977+1045498275+1045881162+1046215648+1046294499
3437+1045830766+1044930693+1044186925+1044093115+1044470484+1044724722
3428+1044633704+1044527129+1044664487+1044895256+1045081348+1045406193
3420+1045992923+1046520083+1046542688+1046048039+1045435114+1045019583
3411+1044826311+1044805302+1044887012+1044871255+1044640752+1044410581
3403+1044425474+1044592351+1044714750+1044832893+1045081348+1045408587
3394+1045615289+1045563231+1045330268+1045191115+1045334190+1045594279
3386+1045619078+1045318832+1045009145+1045039063+1045365438+1045597271
3377+1045462041+1045081747+1044706240+1044386779+1044109271+1044035805
3369+1044340040+1044900509+1045374281+1045535440+1045413706+1045149030
3360+1044838744+1044532847+1044283262+1044129549+1044053756+1044027627
3352+1044145971+1044606313+1045424144+1046238386+1046603056+1046485776
3343+1046250951+1046148166+1046093249+1045943591+1045700190+1045421153
3335+1045187923+1045133738+1045302676+1045574068+1045901108+1046447548
3326+1047248691+1047902837+1047917065+1047318501+1046627988+1046224357
3318+1046022310+1045817469+1045645872+1045685098+1046003694+1046461975
3309+1046768005+1046740547+1046586235+1046669275+1046949576+1046992259
3301+1046658238+1046391567+1046572473+1046927702+1046932489+1046581182
3292+1046395689+1046751916+1047489500+1048150494+1048403137+1048260260
3284+1048005822+1047871922+1047796328+1047588430+1047256204+1046990198
3275+1046866403+1046763950+1046599665+1046476402+1046511174+1046629317
3267+1046646471+1046508448+1046379600+1046506054+1046983084+1047610370
3258+1048061071+1048226419+1048250487+1048219106+1048067919+1047821858
3250+1047687625+1047861085+1048341040+1048855700+1049005025+1048663625
3241+1048164190+1047894726+1047871523+1047880964+1047836153+1047836884
3233+1048004892+1048304739+1048470087+1048232337+1047693210+1047272360
3224+1047232137+1047457388+1047737555+1048049569+1048497412+1049050900
3216+1049465300+1049543420+1049401674+1049295099+1049264848+1049188457
3207+1049062202+1048982420+1048954629+1048925110+1048904633+1048967993
3199+1049206009+1049642616+1050100764+1050255873+1049921520+1049230941
3190+1048540295+1048196302+1048302545+1048654516+1048982354+1049206142
3182+1049314180+1049155480+1048630582+1047982819+1047599998+1047554655
3173+1047582114+1047477400+1047307331+1047231671+1047311719+1047533247
3165+1047875312+1048315842+1048824651+1049324219+1049638427+1049617551
3156+1049382926+1049271829+1049442297+1049698197+1049815809+1049858626
3148+1049993191+1050121175+1049976237+1049578258+1049297625+1049369030
3139+1049609240+1049776384+1049935815+1050233135+1050531520+1050547144
3131+1050220304+1049715217+1049168179+1048636432+1048193908+1047895324
3122+1047719472+1047680046+1047877573+1048284993+1048607312+1048606780
3114+1048482786+1048612032+1048953965+1049109074+1048983816+1048967860
3105+1049332397+1049834757+1050082547+1050018721+1049871856+1049806701
3097+1049800717+1049755707+1049560241+1049103090+1048426739+1047845859
3088+1047689221+1047945653+1048375080+1048846259+1049301681+1049556651
3080+1049462708+1049146970+1048817404+1048427802+1047748060+1046708169
3071+1045544216+1044598800+1044062997+1043955159+1044269234+1044964667
3063+1045808693+1046443824+1046705110+1046759163+1046889473+1047220901
3054+1047656976+1048001434+1048094580+1047868132+1047345959+1046641351
3046+1045921917+1045323154+1044874713+1044501665+1044074167+1043460976
3037+1042569878+1041368760+1039911144+1038362310+1037003357+1036199221
3029+1036327870+1037580114+1039724055+1042179345+1044421883+1046222296
3020+1047544417+1048453865+1049122969+1049729578+1050363978+1051076564
3012+1051860355+1052540297+1052854970+1052675394+1052055023+1051113263
3003+1049931626+1048528860+1046915136+1045158936+1043291040+1041150357
2995+1038462968+1035007013+1030533771+1024627445+1016893049+1007303988
2986+996326920+984827346+973945285+964926266+958932513+956831322+958772351
2976+963748020+969823084+975037102+977938572+977342335+972193140+962074659
2966+947801134+931538377+916388978+905437042+900567416+901854432+907960545
2956+917087137+927704854+938729591+949370644+959019808+967180174+973354899
2946+977171801+978706873+978442329+976840773+974267006+971327041+968907918
2936+967754803+968093212+969575428+971526163+973366002+974850212+975910914
2927+976452700+976443126+976088827+975804006+975997145+976815508+978000669
2917+979028859+979492526+979388809+979052994+978858724+978987439+979392532
2907+979892566+980347323+980859124+981799554+983546580+986165822+989345399
2897+992606886+995611408+998334500+1000935126+1003435759+1005637143+1007412691
2887+1008949624+1010555302+1012277795+1013800101+1014647320+1014413891
2878+1012798904+1009513217+1004295343+997157384+988597044+979565194+971417926
2868+965953925+965015622+969392793+977955061+988138099+997490207+1004824963
2859+1010147550+1013937459+1016690602+1018820980+1020577646+1021992845
2850+1023087653+1024085526+1025256792+1026645397+1028090648+1029362705
2842+1030209856+1030523665+1030554780+1030726777+1031218766+1031928958
2833+1032737482+1033575658+1034363970+1035049630+1035596269+1035913004
2825+1035971909+1035975965+1036193903+1036613489+1036912605+1036832823
2816+1036471344+1036105212+1035819792+1035517219+1035250680+1035253140
2808+1035586828+1036016521+1036300810+1036425603+1036529253+1036749252
2799+1037154278+1037740277+1038454591+1039197095+1039767470+1039950902
2791+1039798053+1039734693+1040180408+1041047439+1041776845+1041925306
2782+1041589823+1041206604+1041079218+1041201684+1041432586+1041709164
2774+1042074631+1042548536+1043038265+1043434914+1043733099+1043935812
2765+1043924908+1043607974+1043146436+1042819662+1042687822+1042590023
2757+1042448543+1042346289+1042327474+1042362245+1042508911+1042863742
2748+1043312116+1043550930+1043440831+1043183069+1043081214+1043222229
2740+1043455524+1043627521+1043753643+1043937341+1044223293+1044576394
2731+1044899312+1045045047+1044945320+1044713686+1044467426+1044159268
2723+1043765078+1043453131+1043364972+1043419290+1043487437+1043573535
2714+1043740811+1044010408+1044350146+1044674925+1044927834+1045183003
2706+1045544283+1045945719+1046181874+1046115588+1045802776+1045469421
2697+1045326943+1045327076+1045242241+1045068583+1045086866+1045404731
2689+1045752780+1045874314+1045816273+1045741743+1045710296+1045693674
2680+1045629383+1045485045+1045356928+1045406858+1045647268+1045882957
2672+1045918194+1045790211+1045757832+1045996779+1046345493+1046489500
2663+1046360785+1046184201+1046172233+1046319896+1046471615+1046516160
2655+1046538366+1046746065+1047191248+1047639091+1047798389+1047623534
2646+1047358259+1047314246+1047583510+1047930761+1048026699+1047817936
2638+1047578789+1047561570+1047720801+1047871988+1048015596+1048322823
2629+1048832430+1049295232+1049359190+1048873983+1048039996+1047290643
2621+1046972712+1047094247+1047385252+1047587166+1047674195+1047818069
2612+1048160200+1048621673+1048960414+1049038733+1048973644+1049005490
2604+1049297958+1049841738+1050409852+1050658573+1050471085+1050139126
2595+1050024240+1050177355+1050412179+1050553593+1050534578+1050460115
2587+1050550801+1050835556+1051061671+1051094847+1051142450+1051356200
2578+1051476205+1051138860+1050406462+1049773924+1049670008+1050086868
2570+1050678917+1051096842+1051240449+1051295698+1051516761+1051936946
2561+1052304674+1052276883+1051734233+1051018788+1050685898+1050832497
2553+1051006356+1050992593+1051138062+1051616089+1052004893+1051919128
2544+1051491762+1051014467+1050603191+1050374815+1050522212+1051024174
2536+1051574603+1051956226+1052267044+1052633442+1052948581+1053068387
2527+1053039067+1052982688+1052936082+1052850582+1052668546+1052494223
2519+1052641487+1053245437+1053927107+1054193180+1054016263+1053692083
2510+1053357065+1053004030+1052743276+1052726189+1052985347+1053499742
2502+1054152026+1054573740+1054453336+1054047910+1053938808+1054285727
2493+1054729315+1054899516+1054658043+1054070316+1053402075+1052860755
2485+1052328409+1051711828+1051366571+1051674264+1052418563+1053041594
2476+1053331335+1053449080+1053454864+1053234467+1052854106+1052569218
2468+1052438043+1052302480+1052157277+1052173765+1052415704+1052835291
2459+1053375082+1053861752+1054035743+1053815013+1053399017+1053147970
2451+1053325086+1053739819+1053844799+1053454066+1053013803+1052943794
2442+1053182209+1053490766+1053727852+1053816343+1053845729+1054104555
2434+1054745404+1055538902+1056067524+1056078361+1055688427+1055324222
2425+1055366174+1055785362+1056185269+1056211996+1055877045+1055422886
2417+1054960616+1054444560+1053996850+1053955762+1054443163+1055120113
2408+1055518026+1055462644+1055080222+1054599470+1054274757+1054301683
2400+1054656913+1055114263+1055485315+1055724861+1055835891+1055844800
2391+1055838417+1055880502+1055928704+1055912548+1055802382+1055593154
2383+1055313784+1055062870+1054951175+1055000241+1055146242+1055336190
2374+1055559579+1055792875+1056019987+1056304543+1056688959+1057105089
2366+1057615294+1058485782+1059615428+1060280943+1059952042+1058981627
2357+1058074240+1057448218+1056868070+1056178089+1055466367+1054800055
2349+1054150696+1053614362+1053524740+1054141122+1055164525+1055876180
2340+1055794936+1055120911+1054666553+1055075701+1056083547+1056871461
2332+1056954035+1056337453+1055186133+1053857032+1052943595+1052780374
2323+1053019787+1053020185+1052631448+1052246766+1052148235+1052249292
2315+1052404402+1052597740+1052866007+1053231541+1053689623+1054188925
2306+1054686897+1055185335+1055647805+1055966667+1056043058+1055863482
2298+1055538636+1055236329+1054995388+1054733769+1054512042+1054543157
2289+1054850916+1055184936+1055290182+1055048177+1054471419+1053782436
2281+1053322825+1053242910+1053418829+1053705114+1054093851+1054626662
2272+1055266380+1055899716+1056455730+1056903107+1057111937+1056927906
2264+1056472152+1056063070+1055770802+1055369033+1054796797+1054341973
2255+1054360656+1055097708+1056685103+1058907762+1060990404+1061992798
2247+1061550407+1060210934+1059093987+1059135540+1060373756+1061938879
2238+1062921061+1063178159+1063143919+1063004965+1062409326+1061093921
2230+1059542361+1058624470+1058584978+1058882830+1059126764+1059565299
2221+1060353877+1060893735+1060450613+1059250093+1058501007+1059184805
2213+1060966403+1062453672+1062496089+1061147774+1059428539+1058302350
2204+1057964008+1058093122+1058540965+1059405269+1060492099+1061250959
2196+1061422822+1061372892+1061506926+1061570153+1060908162+1059487644
2187+1058238591+1057858430+1057677724+1056699397+1055478600+1055604589
2179+1057520952+1060169381+1062268711+1062792812+1061162135+1058087936
2170+1055389909+1054368168+1054961347+1056233271+1056811225+1055601797
2162+1053425611+1053190786+1056811691+1062360859+1066344572+1067682582
2153+1067560649+1067121981+1066542032+1065670348+1064689894+1064032490
2145+1063999049+1064530995+1065140396+1065321967+1065236600+1065496490
2136+1066052370+1066016535+1064925118+1063378012+1062144583+1061476941
2128+1061477672+1062236798+1063302419+1063813356+1063507259+1062961351
2119+1062633713+1062242981+1061302352+1059911153+1058777319+1058452141
2111+1058709969+1058958756+1059068789+1059298893+1059653458+1059943731
2102+1060198701+1060441305+1060432795+1060166057+1060190058+1060928174
2094+1061996122+1062683510+1062889082+1063092858+1063459390+1063474482
2085+1062649603+1061160207+1059548544+1058188262+1057332002+1057274160
2077+1057972718+1058694279+1058656582+1058045120+1057835094+1058611040
2068+1060089932+1061631718+1062615829+1062605789+1061748333+1060740620
2060+1060148970+1060094453+1060495490+1061042129+1061049775+1060061742
2051+1058749661+1058690822+1060837422+1064427012+1067861958+1069999517
2043+1070159546+1068407401+1066319840+1065624872+1065930437+1065640895
2034+1064726261+1064381138+1064799528+1065515238+1066650403+1068298698
2026+1070193520+1072233944+1073741823+1073091135+1069885495+1066255615
2017+1064550076+1065096582+1066922393+1068891013+1069752658+1068912554
2009+1067358534+1066484124+1066345037+1066140729+1065695413+1065365714
2000+1065092194+1064486317+1063650002+1063176164+1063344305+1063891675
1992+1064519759+1064935290+1064647809+1063717817+1063315384+1064378345
1983+1066093458+1066681651+1065374224+1063030894+1061298429+1061340713
1975+1062983624+1065090000+1066691690+1067539440+1067874258+1068041202
1966+1068235072+1068506996+1068877383+1069196445+1069095986+1068438516
1958+1067501277+1066492700+1065398092+1064380539+1063752988+1063498882
1949+1063315517+1063095917+1062971058+1062920529+1062730582+1062359928
1941+1062009619+1061801720+1061814020+1062297166+1063259270+1063907233
1932+1063183544+1060966602+1058253750+1056204816+1055361387+1055625399
1924+1056568289+1057713759+1058713028+1059312523+1059362054+1059111406
1915+1059104159+1059461582+1059652660+1059105821+1057842341+1056353543
1907+1055066394+1054225159+1054094450+1054897721+1056501339+1058313187
1898+1059606054+1060060745+1060029231+1060118321+1060516300+1060938413
1890+1061112670+1061107019+1061222437+1061634378+1062156484+1062456930
1881+1062549876+1062794939+1063310929+1063782972+1063934359+1063828781
1873+1063696342+1063769144+1064191124+1064777122+1065086809+1064993398
1864+1064744212+1064567894+1064581523+1064850788+1065302088+1065707579
1856+1065857503+1065662968+1065191656+1064716887+1064525277+1064599740
1847+1064729253+1064904241+1065265720+1065672874+1065816814+1065675534
1839+1065429340+1065196044+1064986483+1064821002+1064794608+1064930636
1830+1065030762+1064936952+1064877913+1065050176+1065130490+1064721940
1822+1064001376+1063392174+1062979369+1062577134+1062073777+1061500809
1813+1060909159+1060276887+1059499877+1058582385+1057824855+1057591493
1805+1057907230+1058450944+1058916405+1059264787+1059586441+1059833233
1796+1059871063+1059698668+1059460518+1059269906+1059106818+1058925048
1788+1058733572+1058606186+1058695808+1059112602+1059777851+1060506460
1779+1061153425+1061632782+1061930568+1062167321+1062521420+1062962149
1771+1063222836+1063240588+1063228222+1063304679+1063347828+1063148905
1762+1062621613+1061962082+1061492499+1061298229+1061210336+1061063936
1754+1060880438+1060796667+1060905835+1061170645+1061468763+1061699666
1745+1061816812+1061848459+1061903442+1062071383+1062294108+1062441439
1737+1062516899+1062647476+1062859496+1062968465+1062905570+1062830110
1728+1062874588+1063038075+1063217518+1063241585+1062939345+1062318175
1720+1061624737+1061188862+1061070784+1060954170+1060700928+1060468231
1711+1060374354+1060438047+1060629524+1060819272+1060776123+1060357068
1703+1059483057+1057900448+1055563236+1053113331+1050899980+1048722198
1694+1046745666+1045220035+1043942394+1042670270+1041467956+1040418624
1686+1039277343+1037804767+1036560833+1036323349+1037096436+1038613623
1677+1040764346+1043426138+1046067918+1048107079+1049574269+1050764550
1669+1051731640+1052415571+1052889343+1053274358+1053683772+1054182077
1660+1054705048+1055157810+1055527334+1055886885+1056397822+1057171042
1652+1057915939+1058417702+1058815082+1059180151+1059473616+1059664228
1643+1059694280+1059517363+1059279945+1059275358+1059646876+1060216718
1635+1060674534+1060983756+1061290916+1061668551+1062131286+1062623940
1626+1063010284+1063196110+1063236266+1063266185+1063326686+1063301355
1618+1062916806+1061878577+1060280212+1058405269+1056154819+1053088731
1609+1048710497+1042790076+1035647662+1028268229+1022259317+1019451125
1601+1020888463+1025980946+1032890464+1039722991+1045368895+1049590026
1592+1052636235+1054849187+1056518093+1057878176+1059029363+1059876980
1584+1060309531+1060367307+1060080890+1059273363+1057673402+1055295700
1575+1052822459+1050872521+1049155414+1047160931+1045093980+1044038066
1567+1044766541+1047069049+1050162129+1053283134+1056256607+1059147574
1558+1061085677+1061537044+1061638367+1062097711+1062782573+1063350355
1550+1063690891+1063876982+1063926380+1063797400+1063553134+1063440907
1541+1063736100+1064342709+1064762230+1064866810+1064855907+1064834233
1533+1064801190+1064720610+1064523748+1064118655+1063477341+1062705783
1524+1061896528+1060893602+1059382731+1057240984+1054371027+1050280872
1516+1044463503+1036776045+1027212248+1016090575+1004006599+990226259+972692110
1506+954327830+941769284+935648744+935038678+940903584+953937431+971993819
1496+989922555+1003535221+1012672250+1019075152+1024033003+1028047233
1487+1031382053+1034322351+1036986603+1039316369+1041145703+1042133870
1479+1041728444+1039215445+1033293762+1020797047+997320405+964582606+933645153
1469+913359059+906526198+914275487+933139734+951927191+961896746+963438466
1459+961309218+961970212+969903066+981184502+990461549+996091496+997169351
1449+992992166+985231708+978627224+977555287+982878206+992429770+1003075543
1439+1012922633+1021739936+1029283587+1034708894+1038141247+1040530053
1431+1042418824+1043788481+1044468888+1044284392+1042832826+1039530783
1422+1033691142+1024102879+1009637278+991796168+973903200+957435936+943889490
1412+936883171+939091070+948652740+960777804+971944952+981181776+988656748
1402+994766850+1000251661+1005860134+1011603172+1016812469+1020837602
1394+1023171823+1023378326+1020882679+1014182855+1000933065+980841506+958763841
1384+942318650+937292053+945184817+962071867+980835855+996150336+1006523920
1374+1012395208+1014198679+1011998891+1005511287+994998949+983243009+975476301
1364+976283961+985905400+998969963+1009419872+1015737341+1019478251+1022168033
1354+1024504182+1026714209+1028895980+1031154076+1033510370+1035781563
1346+1037722592+1039303737+1040750184+1042278474+1043827973+1045141783
1337+1046133605+1046954562+1047674328+1048128221+1048014864+1046965931
1329+1044560638+1040546807+1035349876+1030369154+1027405719+1027489623
1320+1030257393+1034376270+1038419886+1041455656+1043129349+1043565889
1312+1043315640+1043087131+1043262053+1043683967+1043876507+1043347021
1303+1041776513+1039237917+1036363107+1034096368+1033108667+1033419618
1295+1034535701+1035898576+1037234658+1038600526+1040177150+1042020912
1286+1044009477+1045972446+1047768471+1049270898+1050441034+1051382528
1278+1052161067+1052633243+1052612566+1052113596+1051261326+1050033813
1269+1048229943+1045714418+1042676719+1039626522+1037092646+1035321287
1261+1034210589+1033348878+1032090118+1029845651+1026501657+1022572860
1252+1018982938+1016708088+1016458038+1018385637+1021946705+1026130338
1244+1029989259+1033032941+1035183796+1036472807+1036848979+1036207931
1235+1034568943+1032305064+1030188049+1029033006+1029154540+1030127016
1227+1030991852+1030643803+1028114649+1022606568+1013307049+999434627+981064629
1217+960397177+942033961+931219781+930921929+940090472+954639711+970104582
1207+983600233+994081855+1001642194+1006753160+1009792587+1010941979+1010426853
1197+1008850029+1007272939+1006769847+1007568398+1008408702+1006963252
1188+1001413153+991886122+980217677+968477827+958354293+951792559+950810243
1179+955677276+963788509+971097801+974660531+973920354+970326043+966104779
1169+962914897+961128113+960278568+960033837+960591513+962442853+966117345
1159+971943090+979702419+988560079+997458693+1005574514+1012511756+1018263238
1149+1023007074+1026885740+1029982943+1032412969+1034313242+1035786882
1140+1036873445+1037567947+1037920717+1038063659+1037978160+1037292301
1132+1035402133+1031556509+1024697255+1013679897+998462816+981649165+968618509
1122+964883650+972090421+986526702+1001960590+1013857279+1021054144+1024570268
1112+1025775441+1025425331+1023566279+1019865260+1014092768+1006582293
1103+998449320+991480298+987692649+988464939+993542529+1001031330+1008775566
1094+1015705428+1021796914+1027182529+1031682498+1035025961+1037215045
1085+1038558707+1039404196+1039947844+1040306729+1040632373+1041111131
1077+1041895787+1042981752+1044121571+1044929829+1045129882+1044760890
1068+1044217509+1044015461+1044444422+1045460312+1046845726+1048352475
1060+1049780639+1050997513+1051878439+1052369763+1052664557+1053048176
1051+1053542292+1053995653+1054433988+1054977370+1055540165+1055948716
1043+1056236596+1056575935+1056999245+1057389312+1057704650+1058038272
1034+1058422289+1058709969+1058628326+1057588966+1053875182+1043634302
1026+1021903489+987898088+950925063+927766751+929806643+952903456+982244671
1016+1005813062+1020957674+1030541483+1037275148+1042156940+1045488701
1007+1047672600+1049248958+1050637298+1051958819+1053118317+1054028430
999+1054731509+1055322560+1055797329+1056047446+1055974246+1055430266
990+1054009349+1051131480+1046549137+1040781565+1035051824+1030789140
982+1028901897+1029133996+1030218566+1031119703+1032130474+1034306261
973+1037911675+1042034408+1045666017+1048453333+1050286190+1050795598
965+1049582447+1046597471+1042011670+1035968718+1028902562+1022136852
956+1017705562+1017056137+1019714206+1023293624+1025077083+1023919114
948+1020831818+1017799705+1016002815+1014848237+1012199077+1005577572+994033587
938+979699560+967459144+962228639+965625821+974807463+984430963+989867107
928+989429902+985157112+981970022+984611802+994007193+1006785937+1018640208
918+1027561693+1033923441+1038800645+1042945518+1046637296+1049788284
909+1052246234+1054092056+1055550604+1056752918+1057796732+1058864680
901+1060025175+1061064668+1061767879+1062241851+1062752389+1063389780
892+1064110610+1064923788+1065797068+1066521887+1066906968+1067059884
884+1067322233+1067921263+1068728457+1069329016+1069362391+1068891212
875+1068391445+1068248436+1068357870+1068410194+1068382270+1068388918
867+1068173707+1067124973+1064735237+1060805310+1055335458+1048466164
858+1040579451+1032557241+1025972636+1022607233+1023204667+1026619335
850+1030503853+1032941923+1033257926+1031352267+1026781824+1018702903
841+1006497658+990879739+975243139+965153977+964258292+969798019+973360683
832+966988431+948574287+922281874+895705969+876965517+872092567+882350068
822+903307927+927366977+947890423+961477558+967623229+967483411+962784586
812+954996669+944969339+932840618+917986014+899701915+878808015+858246473
802+840749623+825160758+806035358+779172038+748801038+727530766+726500249
792+745528448+774550535+804006835+831553288+859285633+887810080+914585706
782+936388523+951661052+960813506+965524831+968244398+971704476+977799353
772+986460417+995889582+1004037515+1009740396+1012913458+1014511890+1016204796
762+1019201341+1023213177+1026946441+1029255198+1029236981+1025670860
754+1016808015+1000186638+973714649+940208018+910956358+899866000+911135535
744+935055033+957227971+969378566+971367198+967693105+964338672+965908117
734+973109636+983369863+994081323+1004298136+1013725372+1021788005+1028052618
724+1032500529+1035132536+1036033940+1035869722+1035590817+1035516554
715+1035148892+1033895783+1031779034+1029466754+1027694730+1026638017
707+1025730232+1024072096+1021167501+1017290031+1013028809+1008602506
698+1003713666+997777356+990053664+979622504+965291668+945641702+919522149
688+886900100+849524841+810841823+775176092+746840463+729355048+724793181
679+733298870+752536097+778145710+805328690+829951067+849506957+863251927
669+870646120+871832013+869608556+865805881+859979337+852393867+845978799
659+845176059+853086774+869625376+891622860+914732638+935722343+953416321
649+967696629+978358824+985302847+988611472+987684006+980918096+966463731
639+943552877+914910751+888762344+875490814+879330986+895144370+914345430
629+930773933+941209680+945502549+947287737+950411334+954462396+957148921
619+959523099+965088822+974766508+985840710+995339817+1002258443+1007100012
609+1010692993+1013436628+1015334375+1016499591+1017300469+1018146357
601+1019415688+1021334711+1023581637+1025345151+1026197820+1026654240
592+1027575323+1029303599+1031524463+1033562560+1034741605+1034951564
584+1034821121+1034949902+1035226613+1035060334+1033935076+1031826571
575+1029388434+1027398207+1025934806+1024540350+1022917784+1021021500
567+1018956875+1017218626+1016375929+1015949561+1013915785+1007781682+996262562
557+980115224+961872612+945076646+933436922+929752657+934424623+944541841
547+955209687+962489991+964804001+961401233+950473231+929970063+900990593
537+870408436+848697768+842907725+851392870+866182651+880104804+891561761
527+903599995+919160005+937233015+954285878+968514660+980777015+991814917
517+1000296272+1004808541+1006385298+1007266756+1008496396+1009921701
509+1011585354+1014091771+1017790064+1022106933+1025718331+1027618737
500+1028265902+1029050092+1030616545+1032248884+1032698522+1031543478
492+1029791932+1028847380+1028999098+1029625320+1030436437+1031495077
483+1032404592+1032597797+1032206200+1031870052+1032003887+1032565352
475+1033067314+1032532841+1030205601+1026880089+1024568540+1024445011
466+1025842724+1027614216+1029623725+1031920514+1033422875+1032736551
458+1030137188+1027851900+1027642805+1028896113+1029083601+1025876233
449+1019646325+1013498326+1010689203+1012247212+1016859408+1022208057
441+1026353063+1028854294+1030660957+1032669601+1034526659+1035226746
432+1034459310+1032815070+1031401333+1031328998+1032698322+1034365765
424+1035413901+1035781297+1035068644+1033489227+1034064854+1038366033
415+1043426603+1046569680+1047680644+1047085870+1043982950+1038226947
407+1031877831+1027605706+1026665210+1028855025+1033439763+1039383320
398+1044530586+1046173696+1043891666+1039155210+1032940859+1025990986
390+1020095098+1017650113+1019792525+1025035862+1029408446+1029468349
381+1025917453+1023236314+1026505978+1037471079+1050452203+1057653523
##END=
