##TITLE=cz-PHOS-18_F1
##JCAMP-DX=5.0
##DATA TYPE=LINK
##BLOCKS=1


$$ === CHEMSPECTRA SPECTRUM ORIG ===
##TITLE=cz-PHOS-18_F1
##JCAMP-DX=5.00
##DATA TYPE=INFRARED SPECTRUM
##DATA CLASS=XYDATA
##$CSCATEGORY=SPECTRUM
##ORIGIN=Angelika Moesle
##OWNER=
##XUNITS=1/CM
##YUNITS=TRANSMITTANCE
##XFACTOR=1.0
##YFACTOR=8.7695745e-10
##FIRSTX=3997.453
##LASTX=373.96442
##MAXX=3997.453
##MAXY=0.9416258910564314
##MINX=373.96442
##MINY=0.1588243395906012
##NPOINTS=2559
##XYDATA= (X++(Y..Y))
2559A072223224A072762207A073144932A072899773A072113253A071332305A071040861
2552A071275009A071698447A071936401A071859190A071646384A071519692A071381446
2545A070932520A070218385A069776053A069999598A070580856A070930481A070946590
2538A070981661A071175097A071236879A070959164A070639512A070756756A071294516
2531A071772803A071978269A072191891A072573597A072824873A072727271A072512154
2524A072406193A072255781A071933207A071610837A071442617A071341005A071286224
2517A071509293A072095037A072632049A072531865A071747791A071000624A070947949
2510A071423654A071838528A071862723A071646316A071485980A071362619A071046162
2503A070492635A070004288A069935437A070237620A070538581A070660718A070810383
2496A071063222A071002595A070285401A069415213A069281589A069879703A070573380
2489A071053027A071361803A071656715A071985406A072034478A071437044A070622656
2482A070345213A070581808A070778234A070627074A070222260A069545983A068632703
2475A067942288A067790313A068115674A068860666A069883917A070740444A071133229
2468A071444928A072081784A072727407A072843632A072380365A071763764A071279631
2461A070978331A070830773A070702654A070557339A070793595A071365474A071521255
2454A071244492A070883448A070583235A070357039A070407811A071044327A072156276
2447A073158458A073643066A073741823A073550426A072845535A071596088A070280848
2440A069388706A069001087A069025011A069365665A069843884A070282615A070661669
2433A070969767A071054726A070881409A070766612A070935375A071246734A071591398
2426A071983978A072334895A072407212A072167083A071827449A071582697A071583310
2419A071728284A071677445A071248570A070629793A070173051A069968945A069840758
2412A069652352A069512814A069676072A070218725A070816568A070979282A070488285
2405A069586627A068831507A068548015A068638888A068960102A069398901A069643244
2398A069367092A068925303A069088425A069853672A070352282A070003744A069174540
2391A068771628A069317408A070132067A070179712A069346158A068524565A068841771
2384A069992665A070584663A070559786A070676827A071255570A071727129A071576581
2377A070921374A070023998A069150343A068559026A068120431A067470797A066880635
2370A066876353A067455437A068186904A068737373A069084415A069226059A069115000
2363A068932508A068960102A069233604A069520155A069463402A068716982A067354777
2356A066268723A066168267A066725058A067203685A067110637A066582258A066304406
2349A066545215A066764275A066617669A066335196A066162218A066012690A065716351
2342A065336956A065040074A064710771A064140660A063431962A062857772A062508759
2335A062160765A061470623A060078104A057659275A054888170A053152755A052408442
2328A051782665A050901466A050009188A049074430A047760006A046033630A044315275
2321A043010366A042028235A040908877A039421270A037995992A037200568A037117851
2314A037253583A036488744A034548950A032762831A031619617A030767576A030012592
2307A029324217A028516287A027395502A026184592A025450203A025502470A025957920
2300A025910615A024491725A022161321A020559666A020024897A020045016A020261968
2293A020345704A019912275A018969973A017997630A017251210A016582341A015748991
2286A014729750A013705070A012768818A011848946A010933355A010129231A009521193
2279A009127185A008859801A008494136A007814596A006744107A005352676A003924405
2272A002934933A002718322A002972180A002675502A001362029I99656112I98054457
2265I96600087I95191323I93733488I92203402I90660811I89208277I87963451I86956240
2257I85959496I84560928I82701948I81050608I80021104I79241788I78246199I76845048
2249I75155987I73474130I72038384I70951922I70216378I69676851I69014372I67912414
2241I66198340I64004892I61841077I60177096I59026269I58067791I56972086I55667585
2233I54415351I53455581I52593821I51430760I49949883I48582852I47617713I46780421
2225I45598261I43981653I42269075I40726483I39242888I37636543I35989078I34499297
2217I33233809I32221161I31542437I31086103I30443402I29274156I27633691I25940620
2209I24633672I23718081I22789577I21566705I20243376I19252342I18724846I18380386
2201I17897884I17154999I16107619I14683631I12936593I11175690I09743886I08684340
2193I07835697I07150516I06612893I06068745I05438006I04807403I04113387I03161161
2185I02049620I01106842I00410379H99833878H99420975H99265873H99194508H98929842
2177H98433543H97857790H97350752H97103962H97331245H97871859H98023902H97280134
2169H96123258H95478790H95636950H96187895H96647152H96813265H96713964H96476417
2161H96257494H96192721H96309013H96455280H96455551H96367194H96404984H96579116
2153H96647764H96563960H96728237H97528691H98803558I00027178I00820495I01113707
2145I01079859I01094064I01514172I02360776I03382804I04358750I05126715I05573873
2137I05867493I06416535I07375557I08468135I09441363I10364226I11344794I12290290
2129I13108415I13916957I14906224I16071461I17165126I17978970I18673258I19670954
2121I21105137I22570721I23627412I24370094I25255303I26504275I27890813I29063932
2113I29966134I30903814I32157474I33584114I34736708I35366019I35717955I36335032
2105I37562458I39198709I40695218I41726898I42445179I43131651I43780673I44214170
2097I44533210I45143694I46251429I47602012I48859752I49976593I51067609I52160120
2089I53148164I53831782I54067833I54000953I53971455I54189699I54725215I55646787
2081I56842744I57909562I58540981I58853971I59158126I59650211I60389222I61265324
2073I61934125I62081614I61853175I61797782I62273487I63036694I63548490I63632633
2065I63647858I63989463I64622173I65195003I65474554I65519073I65473195I65366757
2057I65230143I65289614I65805760I66694300I67550215I68152135I68683166I69324643
2049I69926836I70268101I70378752I70427689I70511833I70703977I71103762I71722063
2041I72432799I73064082I73458158I73531631I73448302I73642010I74428258I75608719
2033I76650661I77230153I77457368I77650804I78044812I78643674I79267886I79765750
2025I80152213I80500411I80841200I81217740I81726681I82465489I83455572I84572279
2017I85586898I86349970I86864212I87196573I87492300I88002057I88818551I89664339
2009I90241995I90682153I91306435I92062098I92564854I92708537I92900138I93570162
2001I94637728I95647250I96353705I96980705I97876789I99091166A000382889
1994A001494430A002301884A002809806A003109135A003311542A003521834A003846311
1987A004255883A004458699A004217890A003810832A003800637A004315491A004918091
1980A005226867A005330858A005495136A005800174A006245497A006935572A007905876
1973A008897795A009557284A009836766A010055214A010521946A011162949A011587203
1966A011527323A011110410A010675010A010476817A010591886A010907731A011170494
1959A011244102A011354618A011848878A012639136A013148689A013023289A012658643
1952A012689704A013172682A013631802A013728792A013592925A013619228A014044093
1945A014599524A014711603A014206672A013508169A012989033A012598764A012247235
1938A012083909A012253556A012655652A013017648A013134008A013052039A013008880
1931A013132445A013273681A013177711A012743331A012065898A011305001A010603440
1924A010120259A009987315A010145271A010362156A010506043A010661009A010902566
1917A011104769A011069154A010746852A010236891A009614716A008848994A007870194
1910A006699860A005552160A004751707A004459038A004525647A004715276A004953434
1903A005297826A005780395A006315844A006727047A006940126A007140154A007540959
1896A008015848A008200788A008003342A007793934A007964193A008369891A008381785
1889A007603828A006455041A005774074A005867870A006214232A006123292A005410856
1882A004302985A002976802A001494634A000038769I98930422I98382876I98244698
1875I97966235I96970918I95172905I93023635I91005814I89217181I87436975I85451643
1867I83305703I81234189I79354818I77629258I76174481I75271872I74936996I74799769
1859I74545910I74263437I74242571I74549037I74950181I75263579I75562637I75924972
1851I76217572I76342292I76482781I76883858I77515820I78069688I78161716I77535938
1843I76233612I74615101I73089298I71769300I70439787I68818761I66777628I64365935
1835I61718666I58877896I55646311I51658451I46635718I40584023I33781764I26577952
1827I19198104I11852239I05025239H99415334H95542951H93661949H94026663H96872192
1819I01982060I08524956I15515146I22376402I28980264I35281196I41100781I46248235
1811I50666805I54424594I57645984I60476221I63047977I65454504I67725095I69777647
1803I71430278I72546101I73175073I73463255I73417581I72935759I72135781I71450328
1795I71207548I71296722I71453455I71687807I72209866I73077675I74144154I75264191
1787I76383957I77536142I78879045I80621257I82803287I85264868I87851780I90479474
1779I92983738I95101743I96649907I97670168I98451523I99353928A000465741
1772A001498780A002131898A002305759A002128839A001741288A001345309A001120405
1765A001033610A000858118A000370383I99478920I98220433I96646781I94653769
1758I91945330I88239875I83509470I77953055I71759105I65050844I58175247I51910883
1750I47134667I44263107I43149594I43465100I44992398I47576592I51044976I55313270
1742I60468880I66581813I73412551I80387789I86879233I92476768I97069471A000783150
1734A003823814A006274248A008092991A009350663A010282498A011016139A011473697
1727A011656326A011797494A012099678A012519513A012940504A013398878A013995157
1720A014658656A015171267A015461625A015722008A016134503A016607217A016912800
1713A016994225A017037520A017290019A017805077A018322446A018476597A018218932
1706A017911651A017896358A018091833A018176792A018090269A018117320A018474830
1699A019013133A019398509A019460087A019299140A019106656A018934766A018707754
1692A018445535A018327000A018466062A018767906A019039028A019142747A019070429
1685A018926950A018830572A018842874A018994985A019242999A019391916A019272361
1678A018993897A018844641A018964944A019243135A019466476A019491216A019303490
1671A018974119A018633738A018451517A018471295A018489647A018309940A018061111
1664A018019923A018223961A018467489A018551633A018411416A018133429A017904174
1657A017822885A017809563A017795834A017879978A018140293A018409717A018440778
1650A018231642A017985803A017796853A017626459A017554141A017752878A018180598
1643A018561963A018712648A018680024A018560673A018380491A018193920A018130098
1636A018269635A018552177A018848311A019052894A019091635A018939864A018689267
1629A018529272A018594385A018825406A019018638A019050447A019030057A019145058
1622A019374176A019483672A019329250A019033183A018804608A018685325A018561896
1615A018386812A018263655A018280646A018368121A018411144A018414271A018458449
1608A018534573A018539875A018447779A018375325A018401900A018391433A018140429
1601A017670298A017197787A016845852A016589410A016454155A016536735A016820636
1594A017172028A017509351A017832740A018148314A018485433A018882907A019227298
1587A019243950A018811201A018184200A017742615A017598999A017612186A017687969
1580A017833760A017971598A017937886A017701563A017411817A017242306A017280028
1573A017498340A017791960A018088910A018350517A018452332A018324961A018228379
1566A018524106A019170613A019794012A020148938A020158182A019701236A018751729
1559A017584659A016582545A015879149A015337788A014838906A014424100A014074271
1552A013523190A012557915A011428838A010668213A010450174A010354747A009906841
1545A009256324A009066694A009693287A010759154A011641849A012142837A012558867
1538A013253019A014257579A015269752A016002306A016407053A016553183A016527016
1531A016471894A016502751A016608917A016832326A017412225A018504871A019839346
1524A020866268A021282229A021281617A021232749A021250080A021179394A020864840
1517A020346452A019907382A019883389A020279708A020717351A020880541A020791843
1510A020606836A020450102A020463491A020706340A020995474A021059228A020848051
1503A020591679A020589300A020927574A021306426A021255042A020727274A020347063
1496A020739100A021722999A022515296A022638114A022344358A022220861A022549620
1489A023006294A023026276A022502043A021898763A021654555A021780839A022011181
1482A022072012A021916706A021795791A021906511A022092062A022145621A022139708
1475A022147932A021915891A021118563A019839210A018651002A018143216A018327612
1468A018636932A018555575A018048469A017389388A016878136A016735540A016939919
1461A017103516A016775369A015978654A015255615A015031730A015148634A015224894
1454A015237264A015487112A016141844A016982738A017508467A017318770A016510160
1447A015589336A014935760A014509874A014099487A013638735A013247854A013112054
1440A013376516A014045181A014864666A015402969A015457071A015288647A015211164
1433A015144624A014908777A014689989A014780930A015059189A015158761A015011815
1426A014830954A014675376A014422469A014106216A013945065A014047696A014344850
1419A014730294A015080327A015246915A015199610A015103639A015218641A015767886
1412A016783321A018021690A019220977A020312672A021078326A021059499A020287320
1405A019491964A019147301A018879305A018015641A016382721A014601223A013523190
1398A013249213A013170439A012979314A012910055A013176692A013671903A014128101
1391A014321945A014035733A013185120A012159421A011562530A011494563A011492252
1384A011252938A011044618A011181436A011332120A010790555A009415232A007948084
1377A007297431A007553261A007917227A007748600A007285401A007150417A007537221
1370A008047860A008158580A007726374A007059273A006597637A006581325A006913550
1363A007296208A007593837A007977650A008543752A008999202A008996892A008527372
1356A007771097A006904171A006176986A005803029A005740702A005864403A006178617
1349A006613202A006919260A006967177A006861623A006770818A006910016A007432007
1342A008081097A008354530A008245238A008354666A009078928A010138610A011026198
1335A011507409A011648102A011754063A012205164A013016492A013783710A014301214
1328A014768967A015131506A014893144A013887972A012535894A011192515A009963390
1321A009097891A008738887A008483601A007978262A007644269A008120586A009330000
1314A010614383A011398729A011407225A010695468A009776343A009426039A010121482
1307A011552879A012687189A012643282A011611943A010539755A009996966A009917580
1300A010118560A010286644A009839349A008584396A007269904A006900093A007650658
1293A008710680A009150498A008799106A008178290A007738336A007464767A007153136
1286A006724261A006316252A006182220A006345614A006465236A006290831A005953033
1279A005609797A005201924A004748852A004454417A004353825A004190635A003842165
1272A003668916A004008346A004340435A003722406A002178659A000776829A000304114
1265A000793685A002172678A004334454A006702239A008458589A009024554A008250540
1258A006673557A005406710A005329431A006488821A008230625A009717619A010490886
1251A010557970A009909764A008559656A007095771A006256576A006043362A006134914
1244A006622581A007401285A007695925A007081566A006118194A005464618A005051851
1237A004369933A003199328A001984067A001491168A001956949A002683862A002710981
1230A001862678A001029804A001363593A003062373A004998157A005755995A005018751
1223A003697801A002811096A002550510A002451209A002166969A001841812A001790565
1216A002051152A002364551A002447811A002131014A001335250A000125156I98821266
1209I97842738I97355954I97244284I97308921I97238302I96675531I95717325
1202I95005772I94989596I95529055I96377290I97435544I98407684I98742628
1195I98170137I97143827I96529605I96784687I97717406I99071727A000780091
1188A002420556A003150119A002579668A001153709I99607379I98614577I98615597
1181I99316274I99848324I99899843A000008659A000463498A000909026A001308063
1174A002199933A003935960A006555361A009853622A012599443A012896937A010494013
1167A007427725A005689591A005542781A006209746A006980294A007551562A007971465
1160A008470347A009318446A010568913A011767996A012508775A013218288A014251123
1153A014508788A012602434A008896775A005114721A002686921A002057677A002871249
1146A004607208A006974721A009391579A010851658A011182728A011115916A010483478
1139A008298117A004828510A001852483A000844660A001901556A004070536A006225719
1132A008025635A009750720A011074048A011211206A010335988A009553410A009415232
1125A009276374A008287854A006468363A004514364A002940847A001656872A000279034
1118I98689070I97204183I96281455I96063823I96294165I96635906I96848237
1111I96754985I96343306I95770339I95159039I94595996I94201920I93920942
1104I93514293I92976669I92626704I92603663I92630035I92389430I91896257
1097I91388200I90952936I90402874I89615470I88697365I87569307I86001228
1090I84383193I83564592I83687817I84158424I84547945I84912660I85334535
1083I85638214I85624688I85252362I84675181I84210080I84076795I84219595
1076I84476375I84678512I84588183I84110031I83502401I83051641I82647506
1069I82120757I81822244I82316844I83588109I84884861I85506900I85499288
1062I85413717I85606948I86023590I86457426I86680768I86467214I85885276
1055I85402502I85272956I85319446I85263033I84861073I84101807I83376050
1048I83086848I83189411I83470185I83947861I84597766I85082715I85187657
1041I85172500I85282064I85173859I84460336I83547940I82964506I82692228
1034I82437282I82067335I81746664I81710573I82022884I82452031I82586267
1027I82262673I81626157I80923441I80472612I80463708I80779350I81126732
1020I81251044I81085950I80754202I80385682I79953136I79339525I78554772
1013I77780010I77223424I76972352I76878081I76651341I76230894I75893571
1006I75789920I75751247I75582687I75263240I75027936I75221100I75862442
999I76712580I77536482I78112983I78327149I78312672I78295680I78337684
992I78382066I78469132I78725982I79201755I79741349I80103277I80277070
985I80449843I80765824I81175668I81436868I81337839I81039394I80858328
978I80708867I80360262I79908550I79513046I79040332I78336732I77597177
971I77076274I76681247I76239661I75737177I75276629I74955958I74765649
964I74619247I74409160I73947116I73157265I72477590I72167726I71947171
957I71685496I71475273I71324045I71138629I70912026I70755564I70835902
950I71290673I71823878I71736268I71049524I70282782I69750664I69517128
943I69434071I69245325I68875106I68545803I68345163I67922609I66818816
936I65283837I63932642I62827286I61806957I60724030I59400362I57862869
929I56514528I55576304I54476726I52326436I49620512I47557494I46040934
922I44698099I43215999I41178604I38657348I36369492I34473333I32347377
915I29760532I27376570I25487480I23745404I21795483I19684275I17817615
908I16477499I15707902I15393212I15074581I13818404I11988446I10919928
901I10588315I10589810I10485140I10139253I09768762I09396232I08910128
894I08274971I07402812I06074386I04770701I04579848I05714634I07991343
887I11169981I14617907I17679980I20354028I22762322I24461782I25077432
880I24547217I22222727I17050329I09335333H99525577H85962858H65622958
873H35593130G94817769G44684296F87879265F28509411E73756592E32567580
866E10891235E09609945E26301686E56369849E93388881F31579845F68232431
859G02621358G34067154G61978842G86329030H07212534H24342938H37121108
852H44784041H45087652H33076224H09343860G85685106G69601878G63979874
845G72890147G93405675H15647578H35243505H51380495H63170893H72013063
838H82719242H96854929I06256675I10675789I13800053I16660467I19440272
831I22257323I24915126I27173415I29074603I30743614I32321073I34092036
824I35781097I36518885I36568909I36551645I36821000I37495782I38257155
817I38726131I38791244I38474651I37907530I37002269I34883042I30624195
810I24837167I17586457I06485930H89680615H67103223H38046622H02108579
803G61047346G15774981F70959764F50059744F57383519F75261294F96937776
796G21206471G46862248G72063050G93157729H07391425H16559635H24166970
789H32466147H41088034H47980623H52544168H55400436H57047153H57716090
782H57378359H55702483H52287998H46839108H38566846H25954584H10135954
775G95566907G83534341G72144679G59851797G47488637G37922681G32283618
768G29577422G29730689G35005038G45219812G54636784G61495389G66818743
761G70456501G71548196G70027015G67456754G66297296G68665829G75509820
754G86066200G99278003H15552966H34072900H49770752H60008431H67114438
747H73334148H78892262H83117600H86056313H88262812H89919249H90790525
740H90473932H88072774H82592143H74530513H65160031H55700580H48331131
733H45797165H49191668H57067340H67092349H77211357H85587201H91488959
726H95716065H99321267I02625645I05441133I07711860I09475550I10707666
719I11523412I12155850I12754916I13338689I13925793I14579097I15269376
712I15872520I16325999I16714569I17145348I17620305I18098932I18611408
705I19174655I19696849I20105130I20471951I20922984I21513418I22263507
698I23174137I24202962I25342981I26636811I28049109I29432928I30727166
691I32098751I33732215I35515548I37097560I38284817I39213322I40106076
684I41049941I42000671I42818796I43340379I43564264I43643583I43668391
677I43591723I43360702I42982462I42412282I41498935I40097376I38130667
670I35444522I31640990I26187342I18568588I07946484H92946999H72906632
663H49813979H28183104H12317440H03309566G97637538G88868230G72109064
656G47618455G20778072F99132719F89071076F93601725G11442186G37861646
649G66997293G94127830H16723368H34213389H47130281H56310657H62496655
642H66295157H68148089H68098676H65674410H60179642H51002528H37524292
635H19058733G95317262G66895614G35140361G01834497F69108193F39032418
628F12895975E91022795E73139379E58646184E46734667E36504804E27024283
621E17443340E07224114D96263634D84809404D73291963D62120444D51471425
614D41263617D31408085D22090788D13777712D06988060D02158456C99676554
607C99851434D02794667D08410519D16479150D26705683D38769106D52394254
600D67394759D83672578E01134494E19531235E38409663E57275788E75771150
593E93699629F10941772F27321202F42511473F56118711F67876281F77713767
586F85651017F91706993F95845741F97833044F97160913F93285540F85919829
579F74999823F60527154F42665012F21939532E99198815E75416767E51657047
572E29275267E10198000D96978211D92247058D97600827E12677864E35140662
565E61557743E88668196F14312146F37540870F58142173F76209917F91979951
558G05687645G17393084G27014570G34561686G40271775G44609124G48245320
551G51922908G56123030G60775884G65215048G68307028G68635923G64547267
544G53783995G33005365F98290398F47225634E81475394E07841022D36815413
537C79505587C44739950C37215467C56354516C96184721D47272152E00155116
530E48020919E87328623F17051850F37604420F49926460F55100286F54750049
523F51701161F49864406F52921110F62560063F77691202F95393825G12728539
516G27889584G40215429G49729935G56815415G62054354G66112356G69555592
509G72590478G75024192G76627070G77471772G77801958G77649915G76717060
502G74645817G71339604G66928102G61460453G54813771G46880056G37586921
495G26723533G13972006F99104105F81998577F62591668F40974387F17442663
488E92373854E66189120E39496940E13114284D87888265D64595992D44008113
481D26870708D13691937D04554652C99145965C96849274C96703619C97391960
474C97488372C95819633C91663758C84743336C75130279C63128264C49126236
467C33462232C16437619B98464350B80094591B61869298B44242102B27648540
460B12569872A99604791A89528484A83150273A81108376A83882199A91716086
453B04134862B19673908B36602805B54196272B73135496B94408794C17882473
446C42132987C65496933C87013520D06566899D24530042D41292911D56957594
439D71427444D84705549D96964685E08364712E18959934E28792051E37954246
432E46536032E54574690E62068757E68975857E75219729E80810195E85973826
425E91075198E96360762F01797486F07162980F12272984F17136810F21931240
418F26839516F31886310F36887974F41576511F45819929F49735063F53587396
411F57572265F61663911F65651227F69349613F72806918F76304528F80132596
404F84342506F88729267F93057101F97224667G01190981G04892153G08339127
397G11658798G14933135G18109938G21127221G23996403G26717687G29210057
390G31365784G33165496G34706457G36023056G36891545G36963387G36075255
383G34341947G32192609G30524685G30435852G32403920G35923619G40103827
376G44296065G48122910G51391741G54161962G56627213G58867287G60864038
369G62660352G64317536G65728339G66601654G66729977G66262564G65622038
362G65162238G65008223G65130157G65417728G65840078G66687157G68441943
355G71249615G74679325G78055885G80848059G82768618G83736000G83844205
348G83332749G82502729G81510607G80227040G78442348G76134918G73306720
341G69658766G64713720G58170484G49899446G39707305G27343329G12698430
334F95941032F77518565F57969060F37605236F16356270E93838215E69495469
327E42896234E14175563D84214110D54355050D25959841D00124358C77748728
320C59806656C47133869C39640244C35999900C34342547C32964505C30308062
313C24962075C16550275C06950675C00406386C01879685C14601476C38534106
306C70659476D06553782D42025126D74086980E01258739E23372693E41107668
299E55458200E67231096E76691091E83505177E87010195E86745122E82998819
292E76841367E69413398E61077722E51238741E38873473E23250351E04546329
285D84254652D65024935D49686631D39957893D35794881D35842288D38482419
278D42624871D48000424D55103373D64707221D77202748D92371133E09574976
271E27840778E45854352E62276840E76329096E88077218E98073069F06754767
264F14238062F20500183F25553299F29530827F32743381F35549897F38132664
257F40542317F42907248F45383917F47945546F50351597F52233822F53185980
250F52951356F51595811F49507168F47383998F46169962F46580758F48556370
243F51439010F54529290F57182607F58800575F59235839F58974571F58586749
236F58212791F57772837F57364013F57148827F57051158F56820816F56317856
229F55620236F54960748F54638446F54868176F55594545F56482202F57151410
222F57406900F57243778F56757674F56161667F55757804F55682495F55684127
215F55307926F54329873F52941025F51460420F49752599F46775960F41035354
208F33109998F25372369F17675520F08687083E98264533E87275405E76619249
201E67430037E61384970E59679936E62137302E67618919E74960365E83258795
194E91623627E99363976F06330310F12582712F17935904F22081245F24983186
187F26857868F27190909F23528070F12854650E96187309E80739034E74771416
180E80087496E91254089F01721769F08704892F12542475F14337634F15185869
173F15859224F16367961F16366941F15899800F15461681F15669458F16783242
166F18238903F19047445F18883643F18250798F17582269F16915575F16415878
159F16462775F17186086F18381567F19702448F20675336F20979559F20949109
152F21198958F21682411F21764856F21276101F20858033F21139350F22103062
145F23252869F23947225F23694930F22569387F21159809F19887864F18463876
138F16037502F11942730F06219930E99229333E90841934E80182856E66185449
131E48377715E27264004E04187596D80750416D57974763D36065289D15351976
124C97249976C83663740C75450780C71752122C70716602C70639357C70549844
117C70261288C70164774C71051172C74078005C80346652C89822925D00862689
110D11506950D20978466D29623461D38131231D47037086D56292057D65243077
103D73612668D82098552D91255479E00783136E10319866E19653543E28207530
96E35226335E40504762E44656730E48593274E52546130E55652893E57037222
89E56942815E56109941E54910891E53502570E52075897E50626489E49021164
82E47418047E46077557E44980187E44193803E44053552E44143439E43018780
75E39895875E35855748E32669498E30994879E30173662E29172024E27815596
68E27389983E29663599E35007479E41763283E48102548E53942354E60451741
61E67863024E74226180E77624761E78886850E79739775E80924856E82632746
54E84641594E85958262E85357157E82571235E78480269E74036279E69458495
47E64800271E60685244E57400848E53777804E48880131E44282704E42748541
40E45477880E51500993E59071558E66724942E73429328E78944623E84592318
33E93013701F03300860F09897179F11979772F13158805F16124297F19862104
26F21705180F22097897F24183277F28855366F33602966F36682984F39807044
19F46408732F56842362F64916634F66330291F64363649F63644621F65421973
12F67164321F66132098F63288404F62587862F65357472F67329006F65172736
5F60485218F56887152F57768623F63309745F65808096
$$ === CHEMSPECTRA INTEGRALS AND MULTIPLETS ===
##$OBSERVEDINTEGRALS= (X Y Z)

##$OBSERVEDMULTIPLETS=
(1, 160.65739471588032, 164.8526588519962, 163.06691757667892, 1.0, 1, m, A)
(2, 131.88985869115163, 135.03630924788985, 133.93415842011626, 3.7643347494228694, 2, d, B, 10.89946766999492)
(3, 112.11218350394748, 115.55828807007563, 114.13197061463913, 3.9177657777799992, 3, m, C)
(4, 115.10880214668812, 120.65254369017678, 117.9414724627023, 1.1014078388385424, 4, m, D)
(5, 52.43538087838891, 52.793413677040974, 52.58053127617025, 2.207932795522383, 5, d, E, 5.449733834999279)
##$OBSERVEDMULTIPLETSPEAKS=
(1, 163.08136118558153, 92219296.20316498)
(1, 163.0524739677763, 176166985.45429748)
(2, 133.9774892468241, 594285585.1603757)
(2, 133.89082759340846, 641537739.1552086)
(3, 114.19696685470088, 476534904.49856937)
(3, 114.06697437457738, 838024407.3217703)
(4, 118.71781644121754, 106974011.25963034)
(4, 117.16512848418705, 38964582.59423982)
(5, 52.60219668952416, 421807039.58620864)
(5, 52.55886586281633, 431209956.7421506)
$$ === CHEMSPECTRA SIMULATION ===
##$CSSIMULATIONPEAKS=
##END=


$$ === CHEMSPECTRA PEAK TABLE EDIT ===
##TITLE=cz-PHOS-18_F1
##JCAMP-DX=5.00
##DATA TYPE=INFRAREDPEAKTABLE
##DATA CLASS=PEAKTABLE
##$CSCATEGORY=EDIT_PEAK
##$CSTHRESHOLD=0.93
##MAXX=3997.453
##MAXY=0.9416258910564314
##MINX=373.96442
##MINY=0.1588243395906012
##$CSSOLVENTNAME=- - -
##$CSSOLVENTVALUE=0
##$CSSOLVENTX=0
##NPOINTS=67
##PEAKTABLE= (XY..XY)
378.2140156763094, 0.5760620817556824
385.29667513682534, 0.5810613618604719
392.3793345973413, 0.5819880945383764
430.625695684128, 0.47596737650658044
468.8720567709147, 0.4624985746472233
483.03737569194664, 0.47711181562536237
536.8655875918685, 0.32461875628686626
582.1946081391711, 0.5444660774316958
589.2772675996871, 0.544545947208412
599.1929908444095, 0.540570496510391
611.9417778733382, 0.5397337063424734
628.9401605785765, 0.5040500753082492
654.4377346364345, 0.4908154894907232
679.935308694292, 0.5750056488248377
694.1006276153244, 0.5740900622761227
721.014733565285, 0.5666635621421169
770.5933497888973, 0.3821735675648134
811.6727746598904, 0.2634436182302757
883.9159011571537, 0.6708796604711114
910.8300071071149, 0.6405611621584973
1018.4864309069585, 0.1588243395906012
1046.8170687490224, 0.3478921941240115
1111.9775357857698, 0.5699034323315246
1130.3924503831117, 0.29572361604087916
1178.5545347146208, 0.4316797247536821
1233.7992785066458, 0.3504993316206273
1297.54321365129, 0.6042860136777162
1410.8657650195464, 0.7417281250356292
1444.862530430023, 0.6720101226420552
1460.4443812431587, 0.6398083555746938
1505.7734017904609, 0.5700747354458928
1535.5205715246284, 0.8213159423925052
1570.9338688272087, 0.6699778421543613
1597.8479747771694, 0.44690623786184025
1633.2612720797497, 0.7932780368234675
1648.8431228928848, 0.7985472067221967
1721.0862493901482, 0.8513113239787518
1780.5805888584828, 0.857923684878816
1791.9128439953088, 0.8550580124333231
1821.6600137294758, 0.8598249531852246
1832.9922688663014, 0.8609184007361188
1847.1575877873338, 0.863954363410125
1857.0733110320562, 0.8621253353506175
1865.5725023846753, 0.8640424590477221
1876.9047575215009, 0.8641659004553416
1885.40394887412, 0.8610163314515178
1899.5692677951524, 0.8629934767473727
1915.1511186082876, 0.8625442965106104
1932.149501313526, 0.8704711771651393
1951.9809478029708, 0.8735055902553313
2062.470435387021, 0.8739140612503072
2073.8026905238466, 0.8725635388846902
2082.301881876466, 0.8745408043237157
2848.6456355043, 0.8271020629227752
2915.2226344331507, 0.8517076947148325
2953.4689955199374, 0.78370350395707
3003.0476117435496, 0.8543692807456039
3258.023352322127, 0.8536727406287499
3286.3539901641907, 0.8464657648684153
3304.768904761532, 0.8434557303183758
3326.0168831430806, 0.8365923745495897
3411.0087966692727, 0.7902086953949995
3420.924519913995, 0.7862484441235019
3426.590647482408, 0.7860758887138952
3432.256775050821, 0.7859228833167214
3443.5890301876466, 0.7852967962074855
3452.0882215402657, 0.7867220029004168
##END=


$$ === CHEMSPECTRA PEAK TABLE AUTO ===
##TITLE=cz-PHOS-18_F1
##JCAMP-DX=5.00
##DATA TYPE=INFRAREDPEAKTABLE
##DATA CLASS=PEAKTABLE
##$CSCATEGORY=AUTO_PEAK
##$CSTHRESHOLD=0.93
##MAXX=3997.453
##MAXY=0.9416258910564314
##MINX=373.96442
##MINY=0.1588243395906012
##NPOINTS=67
##PEAKTABLE= (XY..XY)
2082.301881876466, 0.8745408043237157
2062.470435387021, 0.8739140612503072
1951.9809478029708, 0.8735055902553313
2073.8026905238466, 0.8725635388846902
1932.149501313526, 0.8704711771651393
1876.9047575215009, 0.8641659004553416
1865.5725023846753, 0.8640424590477221
1847.1575877873338, 0.863954363410125
1899.5692677951524, 0.8629934767473727
1915.1511186082876, 0.8625442965106104
1857.0733110320562, 0.8621253353506175
1885.40394887412, 0.8610163314515178
1832.9922688663014, 0.8609184007361188
1821.6600137294758, 0.8598249531852246
1780.5805888584828, 0.857923684878816
1791.9128439953088, 0.8550580124333231
3003.0476117435496, 0.8543692807456039
3258.023352322127, 0.8536727406287499
2915.2226344331507, 0.8517076947148325
1721.0862493901482, 0.8513113239787518
3286.3539901641907, 0.8464657648684153
3304.768904761532, 0.8434557303183758
3326.0168831430806, 0.8365923745495897
2848.6456355043, 0.8271020629227752
1535.5205715246284, 0.8213159423925052
1648.8431228928848, 0.7985472067221967
1633.2612720797497, 0.7932780368234675
3411.0087966692727, 0.7902086953949995
3452.0882215402657, 0.7867220029004168
3420.924519913995, 0.7862484441235019
3426.590647482408, 0.7860758887138952
3432.256775050821, 0.7859228833167214
3443.5890301876466, 0.7852967962074855
2953.4689955199374, 0.78370350395707
1410.8657650195464, 0.7417281250356292
1444.862530430023, 0.6720101226420552
883.9159011571537, 0.6708796604711114
1570.9338688272087, 0.6699778421543613
910.8300071071149, 0.6405611621584973
1460.4443812431587, 0.6398083555746938
1297.54321365129, 0.6042860136777162
392.3793345973413, 0.5819880945383764
385.29667513682534, 0.5810613618604719
378.2140156763094, 0.5760620817556824
679.935308694292, 0.5750056488248377
694.1006276153244, 0.5740900622761227
1505.7734017904609, 0.5700747354458928
1111.9775357857698, 0.5699034323315246
721.014733565285, 0.5666635621421169
589.2772675996871, 0.544545947208412
582.1946081391711, 0.5444660774316958
599.1929908444095, 0.540570496510391
611.9417778733382, 0.5397337063424734
628.9401605785765, 0.5040500753082492
654.4377346364345, 0.4908154894907232
483.03737569194664, 0.47711181562536237
430.625695684128, 0.47596737650658044
468.8720567709147, 0.4624985746472233
1597.8479747771694, 0.44690623786184025
1178.5545347146208, 0.4316797247536821
770.5933497888973, 0.3821735675648134
1233.7992785066458, 0.3504993316206273
1046.8170687490224, 0.3478921941240115
536.8655875918685, 0.32461875628686626
1130.3924503831117, 0.29572361604087916
811.6727746598904, 0.2634436182302757
1018.4864309069585, 0.1588243395906012
##END=

##END=

