##TITLE=PHOS-28
##JCAMP-DX=4.24
##DATA TYPE=INFRARED SPECTRUM
##DATE=9/8/2021
##SAMPLING PROCEDURE=Diamant-ATR
##ORIGIN=Angelika Moesle
##XUNITS=1/CM
##YUNITS=TRANSMITTANCE
##RESOLUTION=4
##FIRSTX=3997.453
##LASTX=373.96442
##DELTAX=-1.4165319
##MAXY=0.9720515
##MINY=0.21185023
##XFACTOR=1
##YFACTOR=9.0529351e-010
##NPOINTS=2559
##FIRSTY=0.96676278
##XYDATA=(X++(Y..Y))
3997+1067899828+1067527502+1067240439+1067288107+1067575697+1067831552
3989+1067871714+1067666030+1067307662+1066990444+1066903733+1067083147
3980+1067433877+1067914774+1068559875+1069292149+1069843824+1069946008
3972+1069559658+1068893487+1068201047+1067595712+1067113697+1066902087
3963+1067147341+1067795669+1068498512+1068884270+1068833178+1068561521
3955+1068456243+1068675952+1068995079+1069172584+1069251328+1069335538
3946+1069417114+1069564135+1069857650+1070092831+1069978138+1069589022
3938+1069184171+1068846741+1068599511+1068530050+1068563497+1068408838
3929+1068025253+1067756757+1067840901+1068172933+1068550724+1068949254
3921+1069415731+1069836120+1069920264+1069469654+1068726780+1068229292
3912+1068279594+1068765165+1069358780+1069764157+1069788255+1069377412
3904+1068699259+1068016036+1067472131+1067301934+1067733648+1068491665
3895+1069080737+1069390580+1069663290+1070003618+1070127661+1069813142
3887+1069178707+1068414698+1067650557+1067146683+1067324780+1068288285
3878+1069332575+1069727748+1069416521+1068618605+1067746750+1067588404
3870+1068728558+1070420452+1071237462+1070880477+1070117521+1069783646
3861+1069839544+1069607787+1068810397+1067841823+1067443885+1068331739
3853+1070272575+1071513464+1071398178+1070583735+1069561106+1068623806
3844+1068044610+1068058569+1068714863+1069703058+1070417028+1070489715
3836+1070320440+1070456269+1070801666+1070821747+1070230305+1069342583
3827+1068656331+1068357878+1068327986+1068478102+1068821656+1069215511
3819+1069451417+1069612725+1069739994+1069620955+1069277664+1069034714
3810+1069110299+1069590471+1070430723+1071185119+1071276768+1070701852
3802+1069823677+1068961895+1068242197+1067728578+1067614740+1068012941
3793+1068731521+1069493883+1070100139+1070392140+1070405703+1070481288
3785+1070931437+1071568440+1071882761+1071630462+1070926499+1070000852
3776+1069054006+1068257801+1067675906+1067210679+1066790158+1066586383
3768+1066837827+1067543106+1068477048+1069285104+1069715896+1069793983
3759+1069636888+1069359965+1069179694+1069204516+1069172715+1068701432
3751+1067924057+1067559237+1067754453+1068192158+1068904943+1069916050
3742+1070725489+1070913858+1070445405+1069386959+1068117298+1067486089
3734+1067935843+1068748376+1069153161+1069100028+1068876106+1068812570
3725+1069182525+1069952394+1070638712+1070769339+1070477272+1070305626
3717+1070453174+1070681903+1070835771+1070892328+1070493929+1069398481
3708+1068410550+1068231070+1068519384+1068542823+1067913589+1066820182
3700+1065821782+1065373345+1065593251+1066262252+1066881215+1066937443
3691+1066228805+1065108601+1064433082+1064568449+1065031371+1065501009
3683+1065969461+1066315122+1066227159+1065530242+1064408655+1063421119
3674+1063231170+1063666768+1063916171+1063454566+1062500805+1061817319
3666+1061504052+1061063252+1060188171+1059101414+1058289012+1057909707
3657+1057623829+1057005590+1056119448+1055358073+1054823188+1054361582
3649+1053972994+1053819521+1053647744+1053224128+1052782999+1052601939
3640+1052463411+1051743252+1050268104+1048729157+1047954350+1047988126
3632+1048154767+1047841961+1046864037+1045599775+1044725418+1044410834
3623+1044383115+1044277508+1043867719+1043230452+1042712883+1042672720
3615+1043144465+1043627468+1043459378+1042756403+1042286173+1042243706
3606+1041976593+1041091701+1039931005+1039008651+1038653048+1038887571
3598+1039394738+1039691742+1039359842+1038347024+1037078087+1036014176
3589+1035375395+1035275976+1035504112+1035326805+1034395365+1033179297
3581+1032317516+1031985879+1031920039+1031930442+1032042238+1032188272
3572+1032175828+1031970341+1031749381+1031612895+1031247877+1030260999
3564+1028930304+1027779485+1026931595+1026221444+1025537628+1024880544
3555+1024208579+1023509225+1022942078+1022608466+1022311198+1021835898
3547+1021294297+1021011053+1021046607+1021003547+1020484069+1019495216
3538+1018284679+1016978213+1015601825+1014363702+1013561506+1013237111
3530+1013134466+1012908503+1012349059+1011547719+1010833881+1010423038
3521+1010171397+1009802166+1009274523+1008770187+1008327083+1007682113
3513+1006668505+1005636000+1005151745+1005262818+1005434858+1005264727
3504+1004759997+1004014225+1003094965+1002169780+1001353099+1000514559
3496+999487716+998390030+997524693+997009164+996636048+996078514+995212585
3486+994276601+993630446+993384863+993329754+993136119+992602089+991794758
3476+990973073+990301240+989681619+988996289+988377326+988045162+987975701
3466+987870949+987439367+986636315+985631924+984596522+983585547+982662468
3456+982020592+981831500+981971344+982069643+981900566+981559777+981172571
3446+980661125+979967039+979252278+978694151+978313595+978063469+977876022
3437+977616480+977139666+976391656+975476676+974662167+974184431+973950436
3427+973598718+972916811+972016053+971106734+970335812+969798491+969473175
3417+969189338+968832353+968498675+968302076+968054386+967361550+966117698
3407+964752108+963801179+963329961+962957043+962342557+961425140+960314681
3397+959229701+958432180+958000729+957757055+957511866+957205644+956784794
3387+956246748+955872776+956006037+956438343+956432878+955538242+954034651
3377+952546269+951572428+951307487+951494737+951543656+951102395+950355702
3367+949643773+949103028+948741434+948510928+948271994+947900919+947383415
3357+946774855+946242603+946036063+946166295+946284939+946111647+945805096
3347+945723586+945944545+946141473+945900169+945158677+944315397+943787227
3337+943488247+942987138+942193699+941530359+941297351+941274109+941127352
3327+940852074+940602343+940395341+940199203+940096229+940150548+940220272
3318+940066140+939616057+938994000+938330924+937722956+937295061+937040062
3308+936705331+936149640+935620746+935369764+935219582+934797086+933987121
3298+932971274+932028575+931381629+931046569+930810795+930448346+929867438
3288+929034034+927964987+926835171+925876670+925156379+924592195+924097933
3278+923552908+922780077+921751259+920699134+919872774+919273366+918674550
3268+917826397+916712909+915688305+915162308+915048931+914776353+913910950
3258+912560042+911172330+910170441+909687174+909414596+908808537+907617950
3248+906106063+904681020+903505707+902531010+901673640+900817916+899827943
3238+898716299+897685242+896860858+896110083+895262193+894403441+893758207
3228+893292783+892632670+891506343+890125544+888918628+888012471+887252083
3218+886598225+886092046+885517525+884577854+883385226+882335669+881541439
3208+880762155+879796675+878622153+877262620+875811504+874482257+873426313
3199+872551166+871675953+870825957+870173679+869635436+868791234+867392329
3189+865724401+864214028+862898015+861505562+859877138+858132243+856558861
3179+855375517+854529603+853808456+853174086+852775622+852595351+852304470
3169+851591553+850538835+849539052+848793413+848010179+846742295+844932350
3159+842946875+841131004+839521015+838042378+836803464+835967557+835389810
3149+834653520+833477945+831916151+830277719+829018461+828428994+828287174
3139+828110789+827742479+827320114+826814528+826039392+825044614+824182108
3129+823764221+823745983+823738938+823399269+822772866+822121773+821524405
3119+820902677+820354821+820161053+820391494+820754866+820994721+821233457
3109+821715144+822386911+822973546+823331914+823571506+823922039+824518156
3099+825254512+825938328+826552682+827154461+827605466+827733656+827678021
3089+827786328+828249711+829039859+830084215+831272563+832326006+832895918
3080+832925875+832783331+832906650+833419083+834142666+834827865+835330159
3070+835729545+836303408+837276328+838610644+840087767+841517354+842835473
3060+844091440+845411139+846907225+848579630+850321760+852008913+853532586
3050+854821538+855973674+857281786+858909552+860631271+862105827+863271592
3040+864274732+865178388+865928110+866463127+866733664+866717731+866483537
3030+866153678+865792348+865381505+864894486+864307323+863490972+862219269
3020+860405308+858240023+856003171+853911364+852224935+851216659+850878965
3010+850874554+850892396+850919193+851144169+851729619+852701156+854001762
3000+855553878+857204687+858762267+860258089+862010227+864244248+866806220
2990+869360883+871691360+873746626+875546497+877076754+878276624+879189234
2980+880001307+880766237+881250821+881253323+880892519+880364152+879566564
2970+878188991+876051425+873106791+869139989+863805556+857112972+849596202
2961+841870455+834360400+827559641+822132834+818615983+817314916+818490031
2951+822294932+828454145+836169621+844441841+852538005+860204693+867429660
2941+874083925+879907419+884769251+888808873+892342579+895633137+898704447
2931+901442673+903873095+906190931+908560649+911014116+913443090+915615222
2921+917359854+918764356+920043366+921309208+922607378+923992655+925433566
2911+926825953+928167314+929542846+930961372+932426117+934084630+936052592
2901+938149995+940037566+941571312+942864149+944066192+945207201+946203560
2891+946974219+947548147+947994873+948273771+948324534+948262974+948252768
2881+948227025+947958858+947321196+946340047+945190544+944249096+943855569
2871+943919368+944026556+943930298+943613475+942969164+941812221+940115257
2861+937904477+935069599+931514100+927332593+922791533+918436274+915234074
2851+914250817+916058524+920531505+927057513+934750735+942607570+949743389
2842+955597959+959974419+962979428+964960492+966349917+967413761+968157031
2832+968526855+968581173+968371735+967841130+966953671+965753932+964263179
2822+962524210+960716306+958998668+957358656+955809636+954529967+953601292
2812+952841826+952063200+951289974+950667324+950327852+950343456+950635062
2802+951003635+951375763+951915323+952801992+954006867+955377724+956821137
2792+958296944+959745229+961174290+962753070+964638600+966726917+968697776
2782+970284852+971463917+972468243+973611293+974961674+976255565+977272465
2772+978151826+979172677+980366820+981494003+982273945+982590044+982589056
2762+982607689+982915557+983520826+984215966+984761254+985042391+985138781
2752+985270330+985613028+986115849+986559875+986842197+987084028+987397163
2742+987686926+987797340+987738281+987712143+987964508+988541070+989141598
2732+989370853+989188805+988926696+988848148+988928671+989092415+989413254
2723+989974871+990669418+991273567+991688557+992010845+992343535+992608805
2713+992623158+992352160+991993727+991751501+991641350+991574852+991468059
2703+991159400+990438319+989303235+987985906+986631048+985182104+983647436
2693+982226540+981092576+980218021+979435050+978560693+977515020+976441563
2683+975616125+975132134+974829796+974638992+974750196+975288373+976099655
2673+977053547+978282058+979904359+981760590+983616689+985475092+987496845
2663+989682606+991799696+993658165+995309370+996871164+998315038+999553622
2653+1000593896+1001468451+1002141930+1002549875+1002659762+1002516099
2645+1002265182+1002054494+1001904115+1001778360+1001712323+1001727466
2636+1001683090+1001341643+1000602258+999654884+998873033+998537051+998638115
2626+998923796+999113547+999121513+999086355+999137842+999206645+999180309
2616+999141792+999264452+999565210+999955642+1000456554+1001143859+1001918600
2606+1002565874+1003065140+1003630509+1004415455+1005362565+1006335090
2598+1007225315+1007980106+1008640614+1009343589+1010278387+1011583734
2589+1013068231+1014156634+1014526656+1014631013+1015096239+1015913776
2581+1016717618+1017437580+1018199482+1018986403+1019759169+1020592442
2572+1021506434+1022373615+1023049266+1023491844+1023821505+1024305628
2564+1025184528+1026434239+1027748737+1028839511+1029706033+1030515274
2555+1031307001+1031977386+1032425230+1032573371+1032445377+1032322586
2547+1032542755+1033006994+1033162442+1032704392+1032131517+1032256350
2538+1033156912+1034013031+1034137930+1033753094+1033522127+1033712076
2530+1034067217+1034261446+1034251043+1034152810+1033921579+1033414215
2521+1032746662+1032205719+1031807189+1031324712+1030698770+1030077898
2513+1029588047+1029303289+1029275241+1029383811+1029265036+1028596561
2504+1027559381+1026888207+1027165460+1028059174+1028607490+1028328657
2496+1027718122+1027535152+1027908795+1028360458+1028502409+1028401147
2487+1028331752+1028453556+1028749705+1029124401+1029550123+1030079281
2479+1030649061+1031114682+1031613158+1032534327+1033900708+1035165431
2470+1035825017+1035936814+1035953274+1036273454+1036934358+1037596183
2462+1037898981+1037875147+1037886933+1038179197+1038674776+1039200641
2453+1039694574+1040106140+1040302015+1040208324+1039938840+1039718276
2445+1039754620+1040121810+1040658144+1041122778+1041557257+1042247459
2436+1043226238+1044111788+1044575632+1044711262+1044792312+1044898183
2428+1044973767+1045103077+1045436096+1045882229+1046200303+1046422382
2419+1046871477+1047711400+1048751345+1049696546+1050339540+1050591576
2411+1050597897+1050713117+1051127844+1051607819+1051752667+1051412339
2402+1050801343+1050318537+1050237488+1050494594+1050829786+1051094858
2394+1051281844+1051362959+1051327998+1051308378+1051461720+1051753786
2385+1051979223+1052037887+1052130194+1052568887+1053361273+1054147997
2377+1054636992+1054887316+1055084507+1055391256+1056113259+1057443691
2368+1058794269+1059152571+1058557969+1058322196+1059150662+1060087501
2360+1060003423+1058952747+1057528032+1056103712+1054931495+1053981224
2351+1052950233+1051892051+1051248332+1051288955+1051931028+1052962414
2343+1054093745+1054830957+1054824768+1054291858+1053701272+1053314658
2334+1053264620+1053671183+1054425777+1055109987+1055307903+1054949469
2326+1054286656+1053597178+1052984668+1052503640+1052322843+1052510619
2317+1052776086+1052720715+1052237843+1051491216+1050712722+1050179549
2309+1050079340+1050195548+1050046486+1049515617+1049020433+1048937014
2300+1049178186+1049402372+1049380645+1049166269+1049062176+1049328828
2292+1049827567+1050138070+1050103767+1050044379+1050279955+1050630093
2283+1050632726+1050189820+1049664481+1049383410+1049457348+1050049975
2275+1051326550+1053151836+1055150611+1056823542+1057517168+1056947124
2266+1055957086+1055933647+1057105009+1058073781+1057483195+1055726580
2258+1054462515+1054658456+1055820929+1057112515+1058208029+1058812902
2249+1058579104+1057931303+1057856508+1058501281+1058923514+1058423787
2241+1057327549+1056329281+1055654880+1055052640+1054358751+1053864424
2232+1053995050+1054739702+1055682204+1056519756+1057196132+1057593279
2224+1057511243+1057014808+1056548726+1056626812+1057376863+1058389089
2215+1059156456+1059601930+1059847251+1059764687+1059382156+1059193129
2207+1059310390+1059026883+1057911682+1056492169+1055494296+1055403173
2198+1056582831+1058661404+1060221025+1060213651+1059119520+1057950989
2190+1056969378+1056067039+1055574028+1055856153+1056501716+1056723136
2181+1056455759+1056373064+1057008553+1058380727+1059943048+1060564974
2173+1059539975+1057788364+1057014545+1057781714+1059148687+1059857587
2164+1059448786+1058406603+1057277181+1056112601+1055665349+1057640355
2156+1061621313+1064252153+1063361204+1060535148+1058543353+1058062259
2147+1058240949+1058958014+1060468650+1061684783+1061061211+1058941159
2139+1057079002+1056190490+1055728160+1055495679+1055767269+1056318088
2130+1056670464+1056782261+1056737160+1056299784+1055301845+1054169329
2122+1053688696+1054146483+1054829640+1054731341+1053790024+1053004354
2113+1053271731+1054544881+1056032539+1056797009+1056350152+1055104522
2105+1054085712+1054019280+1054852881+1056040703+1057020075+1057532509
2096+1057640158+1057436251+1056963979+1056475182+1056312426+1056419482
2088+1056369311+1055914488+1055254177+1054855910+1055083519+1055780042
2079+1056346794+1056479791+1056501255+1056764879+1057196000+1057609410
2071+1058058308+1058752988+1059784834+1060853880+1061273809+1060579327
2062+1059262722+1058563631+1059272203+1060873435+1062120974+1062356747
2054+1061817846+1060921432+1060059783+1059914934+1060963965+1062548145
2045+1063310442+1062671595+1061357952+1060693691+1061426229+1062925408
2037+1063901357+1064150693+1064758529+1066090870+1066938496+1066495326
2028+1065546702+1064829703+1063909323+1062562563+1061764186+1062497513
2020+1064795597+1068148309+1071612487+1073741823+1073606456+1071690640
2011+1069267130+1067507618+1067278100+1068748705+1070740040+1071405749
2003+1070070182+1067759523+1065906716+1065088520+1065007142+1065207230
1994+1065559145+1066105289+1066486833+1065834950+1063744789+1061128631
1986+1059634982+1060222144+1062311910+1064256103+1064849060+1064704936
1977+1065613859+1067833593+1069116554+1067483653+1063726815+1060420455
1969+1059412311+1060535938+1062000289+1062163704+1061100583+1060079600
1960+1059829408+1059949105+1059954175+1059864303+1059531350+1058557113
1952+1057153204+1056022268+1055294669+1054592813+1054011181+1053971150
1943+1054300614+1054378635+1054016778+1053378128+1052462753+1051358482
1935+1050483994+1050085661+1049806630+1049088775+1047852166+1046609104
1926+1045943921+1045960250+1046226178+1046175020+1045496604+1044065042
1918+1041876252+1039476116+1037870934+1037594932+1038286582+1039086540
1909+1039379463+1039296175+1039343975+1039672715+1040043065+1040363246
1901+1040821625+1041464883+1042012870+1042149950+1041782496+1041115535
1892+1040574856+1040475701+1040712001+1040865672+1040722470+1040479256
1884+1040464508+1040851253+1041576614+1042447218+1043234205+1043720039
1875+1043851127+1043806487+1043811096+1043995712+1044371593+1044587022
1867+1044049108+1042867014+1041868746+1041617500+1041923855+1042193865
1858+1042102215+1041836551+1041782167+1042074036+1042490146+1042745210
1850+1042784319+1042801964+1043038923+1043406838+1043310974+1042431350
1841+1041405429+1040817740+1040586839+1040483207+1040490449+1040606130
1833+1040691393+1040620944+1040336844+1039854828+1039313359+1038858865
1824+1038551062+1038414444+1038430904+1038457898+1038286977+1037853157
1816+1037322419+1036897290+1036653747+1036568616+1036564270+1036545111
1807+1036486711+1036461625+1036554723+1036768572+1036989795+1037050105
1799+1036889652+1036640579+1036525161+1036737891+1037344608+1038147396
1790+1038803822+1039231191+1039503571+1039554532+1039288801+1038898566
1782+1038820348+1039292817+1040077171+1040741827+1041132259+1041365530
1773+1041563314+1041768604+1042041906+1042436157+1042850554+1043105553
1765+1043165468+1043160201+1043207013+1043301823+1043335994+1043153419
1756+1042670021+1042029001+1041420507+1040813527+1040130567+1039553544
1748+1039285048+1039174107+1038944194+1038387779+1037317811+1035637768
1740+1033619175+1031779075+1030110291+1027748606+1023743090+1018870064
1731+1014606849+1011107512+1008391277+1006738822+1006190308+1006500349
1723+1007212081+1007857643+1008310821+1008706454+1008898049+1008420050
1714+1007332831+1006056191+1004907149+1004123718+1003843963+1003980581
1706+1004205162+1004296350+1004441594+1004961731+1005853733+1006794062
1697+1007813069+1008968432+1009840682+1010296823+1010715237+1011417685
1689+1012436100+1013689960+1015055945+1015901003+1015526636+1014607969
1680+1013907627+1013550839+1013473148+1013457676+1013174892+1012545461
1672+1011731018+1010834605+1009968214+1009314619+1008951116+1008834974
1663+1008794219+1008620533+1008401614+1008375212+1008601571+1009099322
1655+1010021347+1011108236+1011312077+1010817486+1010401047+1010460040
1646+1010952788+1011262171+1011107644+1010691797+1010210111+1009707027
1638+1009027425+1007871996+1006449718+1005510377+1005178937+1005186970
1629+1005251691+1004983721+1004003362+1002039021+998743130+994164278+988871719
1619+982261436+971389386+953244833+929461995+901849762+867433808+822904217
1609+769700122+715352977+669240128+637723708+623711018+627354479+645149421
1599+670638375+697497331+721067703+737789319+745002040+741525418+727906320
1589+706467324+681309283+657656215+640701986+634367704+639871018+654863804
1579+675884122+703142332+739282442+777086332+803847778+821150960+837260197
1570+855827904+873416108+886966073+897926875+907299284+914651849+921099705
1560+930783472+944531945+953847270+958385038+961920522+965362249+968613632
1550+971678754+974384322+976614196+978622386+980590413+982436175+984360551
1540+986395208+987631291+988043187+988329526+988975878+990035575+991090861
1530+991994912+993062114+994458584+995863414+996735335+996223231+992916476
1520+985719623+972786316+950215990+916467259+875042886+830152623+786310534
1510+750673246+732636144+743722174+776552236+802860439+819205779+832703006
1500+846410000+860529877+874214420+885457281+892714378+896867178+899611527
1490+901891966+903543302+903988315+903389565+902288784+900850046+898842975
1480+896049246+892443248+888026626+882824992+876899512+870325309+863793639
1470+858234164+853346916+848070883+841592938+834342952+828192496+824137600
1460+821372841+818375271+813407831+806450241+799716310+793544192+787054330
1451+779825940+771998667+764292277+757846528+753290062+750359122+748539762
1441+747600816+748006193+751346593+759237467+770294988+782243655+795884282
1431+812963542+832517666+851177945+867518873+882463596+896160253+907649883
1421+917206644+926152869+934145071+939762617+943490881+946537699+949364611
1411+951960424+954219465+956033031+957342723+958117596+958399062+958343230
1401+957949967+956942086+955124240+952576556+949286722+945181260+940530313
1391+935673023+930635595+925299318+919829978+914797948+910625133+907311925
1381+904730268+902788906+901438130+900789604+901156268+902645111+904751008
1371+906880080+908894986+910735612+912149200+913029219+913551397+913854723
1361+913917271+913834246+913925633+914572907+916151753+918953448+923008608
1351+928063287+933751611+939698423+945521654+950824286+955251706+958630819
1341+960989015+962419261+963072461+963273602+963380658+963546246+963745478
1332+963961566+964264562+964717345+965292326+965882320+966320815+966455656
1322+966305540+966091231+966037242+966171753+966354789+966451640+966404498
1312+966151606+965472926+963899874+960787084+955500779+947550123+936598143
1302+922531794+905587046+886325844+865513054+844006177+822554013+801637525
1292+781689215+763540317+748620153+738682375+735146891+738489595+748130302
1282+762669976+780143289+798337090+815198683+829234614+839826711+847176708
1272+851749964+853742023+853092905+849832436+844252221+836794378+827834721
1262+817612777+806454784+794924399+783567503+772659373+762295543+752471076
1252+742985422+733515373+723865843+714008851+703874935+693285603+682197664
1242+670898839+659800365+649075402+638588584+628099000+617432898+606513312
1232+595298499+583727095+571737805+559290662+546359199+533012120+519496030
1222+506097135+492990636+480394200+468754784+458579126+450099246+443225832
1213+437845772+434083436+432205313+432355857+434519759+438643425+444614565
1203+452161359+460861638+470215414+479702286+488823383+497097743+504050395
1193+509300060+512710414+514516047+515435636+516631918+519208012+523317753
1183+527532509+529059836+524905521+513525679+496077024+476478325+460184967
1173+452219265+455366819+469411276+491672450+518469747+546671479+574417367
1163+600897412+625893026+649499018+671872548+692996894+712716870+731010353
1153+748081120+764053080+778584458+790873124+800004097+805098214+804961859
1143+797500262+779458815+747122421+698278590+634594787+562522425+491514796
1133+430609941+385928127+360460539+355086206+369080460+399780101+442380247
1123+490761058+539164123+583584288+621982320+653624692+678445896+696745963
1113+708901961+715089617+715529297+711346737+705212280+700980142+702372661
1103+711357403+727090956+746278812+764991828+780637485+792551915+801224246
1094+807377007+811627514+814477733+816288732+817251249+817421775+816755275
1084+815112893+812306194+808202576+802772477+795970269+787566501+777176335
1074+764483279+749406086+732055434+712566886+690982318+667330962+641829630
1064+614941771+587264752+559520246+532645588+507665315+485332539+465973368
1054+449723496+436717733+426870847+419616285+414082487+409431508+404885707
1044+399598020+392759930+383892252+372991628+360400097+346552634+331874531
1034+316863244+302084438+287989646+274833767+262861611+252496251+244226434
1024+238340046+234901331+234012753+236011824+241353072+250155996+261691221
1014+274555576+287876566+302370217+319778250+341103276+365534475+391028302
1004+415681283+438520468+459345999+478264930+495410985+510811420+524453890
994+536594054+547795501+558424864+568352700+577405718+585805866+593854493
984+601461135+608303439+614285476+619655858+624850382+630352312+636523640
975+643416377+650800085+658367815+665854958+673111726+680252681+687588259
965+695207477+702753546+709745702+715954098+721378469+726089528+730210593
955+733913047+737392567+740917252+744809655+749274209+754301103+759756353
945+765475753+771268698+776893091+782033559+786361165+789722567+792257808
935+794272186+796060931+797873049+799886704+802142716+804604676+807261589
925+810051169+812764836+815213299+817404788+819387168+821036398+822201834
915+822971110+823654202+824637327+826323295+828965328+832370118+835961303
905+839291892+842323632+845119270+847565824+849589288+851369606+853085070
895+854573386+855408503+855211772+853810892+851300803+848197560+845518986
885+844442499+845620643+848740148+852782074+856717339+859982680+862434501
875+864021841+864540990+863635096+860960472+856412433+850338944+843573936
866+837115875+831648840+827318073+823817749+820565114+816891037+812126055
856+805438541+795764321+782156944+764068289+741145388+713150691+680380279
846+643956793+605766224+568436383+535069394+508145652+488112672+473016352
836+459771359+446033585+431090080+415474052+400283087+386792608+376141420
826+369090732+366121802+367630628+373829806+384553649+399264145+417075481
816+436765467+457095912+477215867+496575400+514570003+530489291+543674271
806+553566784+559800133+562456585+562236284+560314147+557964181+556075030
796+554674873+552779468+548845750+541588061+530533733+516083799+499376569
786+482087543+466009975+452578917+442694864+436681784+434050253+433446729
776+433302934+432842777+432582380+433891117+438046716+445585543+456217868
766+469026967+482824755+496552225+509374755+520601782+529883594+537449646
756+543901683+549736765+555060236+559726392+563800184+567703846+571681841
747+575453032+578797711+582172017+586279191+591252886+596658032+602206906
737+608149505+614865330+622222965+629448656+635565468+639941137+642515816
727+643514281+643080658+641570944+640126807+640253878+642461564+645820135
717+649238620+652663229+656735244+661761282+667361973+672919867+678022807
707+682501779+686350925+689719307+692820508+695791149+698676132+701429303
697+703851694+705708385+706952566+707701827+708024641+707830874+707034142
687+705999530+705630562+706481809+707963410+708893072+708474856+706372778
677+702382471+696353556+688368925+679118848+669178107+657092426+640056358
667+620840652+606818283+598735880+594164534+592328582+593312563+596942724
657+602905404+610764544+619912832+629941536+640781916+652268517+663602764
647+673492413+680978700+686013165+689324727+691501796+691746195+688500803
637+682560706+678359843+680182100+687607221+696471673+703564170+708595212
628+712434811+715347315+717244827+718553203+719925311+721359375+722219708
618+722103500+721355095+720687213+720496145+720704397+721148357+721728804
608+721961154+720928846+718347321+715367001+713744305+714461831+717329169
598+721518181+726238326+731009102+735502889+739390420+742488066+744942455
588+747097205+749197966+751261725+753211317+755097768+757075277+759218702
578+761518893+763830474+765589854+766056134+765249329+764283784+764497698
568+766311199+768987600+771425002+772984886+773567374+773087597+771025550
558+766481593+758568728+746804018+731172583+711704446+688229476+660884555
548+630453706+597939017+564603566+532543799+504056584+480211691+460331296
538+442432360+424395818+405714141+388416720+376140531+372248326+378191648
528+393018846+413947219+436820970+457451251+473893244+486397043+495738539
518+502465590+506674454+508154178+507367750+505777580+504663268+504183327
509+504217563+505755589+510632170+519984563+533167667+547616252+560425746
499+570520552+578297918+584163089+588486481+592007414+595267686+597936779
489+599292690+599220991+598493786+598172091+598786577+600239801+602264253
479+604446919+606066587+606628203+606537607+606795042+607968971+609738162
469+611390815+612111698+611347426+609709982+608817585+609828560+612577649
459+615998373+618822586+620544503+622068702+624672547+628873016+634214955
449+639624710+644000906+646899781+648738169+649809388+649668161+647899893
439+644366911+638954984+632388023+626189306+620576238+614198106+606681468
429+599805453+596080482+596935153+601459555+606335873+608924048+610189167
419+613326317+619348451+626006403+632625443+640015537+648233900+656298460
409+663180137+668856412+674204672+679761842+685118530+689514873+691863851
399+691079432+689884763+695576050+708597384+721506923+729326294+731440750
390+729146814+724504690+719882647+717580678+719312010+724404810+729552324
380+731235131+728042807+722099879+719330445+722889631
##END=
