##TITLE=JPK-457,X16502
##JCAMP-DX=4.24
##DATA TYPE=INFRARED SPECTRUM
##DATE=29/9/2020
##SAMPLING PROCEDURE=Diamant-ATR
##ORIGIN=Angelika Moesle
##XUNITS=1/CM
##YUNITS=TRANSMITTANCE
##RESOLUTION=4
##FIRSTX=3997.453
##LASTX=373.96442
##DELTAX=-1.4165319
##MAXY=0.91410977
##MINY=0.56935424
##XFACTOR=1
##YFACTOR=8.5133106e-010
##NPOINTS=2559
##FIRSTY=0.87929195
##XYDATA=(X++(Y..Y))
3997+1032843732+1031908352+1031519428+1031838339+1032357279+1032666878
3989+1032881540+1033154312+1033338938+1033302881+1033123226+1032876639
3980+1032574181+1032334034+1032350348+1032692713+1033236648+1033725132
3972+1033883643+1033607299+1033080868+1032669819+1032617029+1032875799
3963+1033268084+1033724152+1034233290+1034668004+1034882455+1034918932
3955+1034943227+1035007499+1035028153+1034983974+1035004278+1035135133
3946+1035113219+1034629216+1033769591+1033021217+1032777010+1032979629
3938+1033312963+1033499549+1033483726+1033536586+1033996154+1034711832
3929+1035092775+1034929924+1034650710+1034670314+1034761472+1034417005
3921+1033768470+1033512431+1033934052+1034450682+1034420226+1033913118
3912+1033295809+1032753415+1032379193+1032232935+1032233845+1032290346
3904+1032500947+1032924878+1033328996+1033643216+1034158375+1034917322
3895+1035598063+1036072894+1036558857+1037115325+1037356731+1037111614
3887+1036719958+1036488774+1036303728+1036003441+1035772956+1035777017
3878+1035844510+1035913753+1036198498+1036651135+1036809716+1036548075
3870+1036370731+1036503337+1036509428+1036206620+1035940288+1035913823
3861+1035835828+1035489122+1035029133+1034660862+1034562773+1035130793
3853+1036376892+1037004213+1036545485+1035892049+1035712114+1035990838
3844+1036312690+1036416590+1036467420+1036762807+1037297430+1037588896
3836+1037158803+1036227904+1035482540+1035330821+1035525038+1035591201
3827+1035393063+1034984955+1034318006+1033459291+1032904084+1033187429
3819+1034086332+1035144375+1036155860+1036633912+1036258710+1035459716
3810+1034791857+1034550591+1034896668+1035735149+1036577481+1037058964
3802+1037171615+1037020736+1036780660+1036670739+1036737532+1036828409
3793+1036875248+1036988670+1037103212+1036830370+1035943019+1034839046
3785+1034201504+1034251423+1034680886+1035220060+1035746421+1036047759
3776+1035971514+1035597362+1035118540+1034856830+1035209768+1036124704
3768+1036897513+1037113994+1037094601+1037118545+1036989650+1036550456
3759+1036152149+1036310520+1036941901+1037571182+1038076890+1038739077
3751+1039648972+1040182615+1039860343+1038993786+1038138151+1037662690
3742+1037307582+1036640423+1035768545+1035051467+1034646859+1034394461
3734+1034320807+1034859981+1035991468+1037033199+1037402100+1037126317
3725+1036757626+1036760286+1037061414+1037411692+1037755318+1038122188
3717+1038511463+1038955559+1039486121+1039919504+1039784448+1038943446
3708+1037966548+1037284267+1036858375+1036607867+1036622710+1036908225
3700+1037234768+1037538906+1037958427+1038328308+1038138641+1037114274
3691+1035665135+1034833235+1035472178+1037002253+1038203544+1038673754
3683+1038649180+1038505722+1038497951+1038609062+1038623485+1038395871
3674+1038122118+1038178829+1038692658+1039427099+1039726407+1039260607
3666+1038600100+1038422966+1038898078+1039598002+1039862793+1039489411
3657+1039041955+1039295404+1040146418+1040811406+1041007023+1040976778
3649+1040850963+1040476671+1039799991+1038798728+1037458601+1036090467
3640+1035278451+1035302956+1035821546+1036353158+1036805095+1037317733
3632+1037818820+1038109236+1038332509+1038791867+1039132203+1038889396
3623+1038182820+1037470363+1037170845+1037355401+1037665070+1037866289
3615+1038210265+1038895767+1039603323+1039876096+1039636440+1039082983
3606+1038616483+1038714432+1039398254+1040122963+1040421991+1040454617
3598+1040506217+1040331603+1039619076+1038637908+1037867059+1037419953
3589+1037302120+1037730323+1038694198+1039582809+1039965993+1040009962
3581+1039986857+1039941838+1039806012+1039658634+1039721716+1040067863
3572+1040441245+1040421501+1039704423+1038375147+1037227206+1037219505
3564+1038166787+1039168190+1039807483+1040275383+1040749374+1041017385
3555+1040862376+1040457698+1040129475+1039984267+1040029845+1040388244
3547+1041028658+1041541086+1041576373+1041285817+1040958224+1040674529
3538+1040531352+1040763377+1041373334+1041887653+1041778992+1041036779
3530+1040196617+1039841299+1040053860+1040433263+1040627830+1040659547
3521+1040744333+1040975307+1041243599+1041416042+1041537796+1041809238
3513+1042284419+1042662142+1042567974+1042083061+1041712899+1041741675
3504+1042007866+1042336229+1042741327+1043069410+1042912580+1042151114
3496+1041289318+1040937080+1041080678+1041304441+1041559920+1042115127
3488+1042835215+1043238633+1043278121+1043349744+1043619576+1043925605
3479+1044171983+1044340225+1044338685+1044084606+1043505174+1042550540
3471+1041513361+1041017385+1041258022+1041574973+1041192139+1040152089
3462+1039202216+1038947997+1039300095+1039628038+1039367378+1038598910
3454+1037993994+1038007226+1038337970+1038490809+1038549340+1038890866
3445+1039350015+1039352605+1038792917+1038199273+1038017798+1038061347
3437+1037754968+1036743273+1035128762+1033155152+1030782606+1027633400
3428+1023363628+1018235701+1013329017+1009874412+1008222934+1007678090
3420+1007431992+1007390614+1007944211+1009323966+1011407637+1013822962
3411+1016012143+1017366624+1017506021+1016415981+1014322648+1011577980
3403+1008656528+1005955408+1003432683+1000613520+997077490+992778522+987765488
3393+981897798+975239657+968727984+964123548+963007603+965699621+971135467
3383+977749570+984343439+990283592+995365660+999685772+1003401807+1006456635
3373+1008655968+1010031592+1010922864+1011652754+1012290857+1012772200
3364+1013144321+1013658080+1014624266+1016063253+1017509031+1018351294
3356+1018414936+1018015859+1017453441+1016617830+1015063111+1012319913
3347+1008196889+1002916963+997053265+991423552+986968804+984405891+983854605
3337+984889964+986834378+988832633+989936605+989527097+987581562+984317884
3327+979764488+973939227+967336186+960967270+955922730+952940366+952205434
3318+953308076+955450559+957915103+960403242+962955793+965692340+968646768
3308+971685003+974540783+977031582+979184776+981099225+982823376+984460221
3298+986208318+988191099+990307397+992278976+993828934+994936548+995893912
3288+996983321+998189724+999371691+1000503319+1001527826+1002208077+1002426519
3278+1002466847+1002722606+1003248407+1003836310+1004417282+1005135900
3269+1006061759+1006986356+1007518879+1007399436+1006791089+1006160898
3261+1005776384+1005521254+1005267386+1005083530+1004955966+1004706368
3252+1004290698+1003825738+1003318981+1002691800+1001978713+1001271297
3244+1000602458+1000063284+999895112+1000280326+1001036822+1001670093
3235+1001898967+1002050056+1002614715+1003517679+1004227756+1004526853
3227+1004666110+1004809147+1004869989+1004902966+1005111046+1005397261
3218+1005374086+1004893304+1004176856+1003428552+1002686129+1002022821
3210+1001576835+1001373726+1001263945+1001052014+1000724561+1000570322
3201+1000909747+1001683116+1002513406+1003155149+1003669538+1004245469
3193+1004980330+1005731505+1006218309+1006488701+1007063301+1008276355
3184+1009733405+1010799150+1011342455+1011617188+1011704214+1011484652
3176+1011048468+1010819174+1011246466+1012415551+1013912859+1015141386
3167+1015849292+1016264682+1016655637+1016938422+1016893753+1016637574
3159+1016552507+1016764018+1017050023+1017355142+1017930793+1018772915
3150+1019395054+1019453796+1019239975+1019297666+1019782089+1020378464
3142+1020744774+1020919458+1021227307+1021841815+1022594250+1023201337
3133+1023528860+1023666716+1023815565+1024052071+1024256440+1024354599
3125+1024442886+1024566250+1024619390+1024563379+1024498827+1024513529
3116+1024642354+1024900144+1025186079+1025294180+1025215625+1025307412
3108+1025918000+1026895388+1027693751+1027901971+1027473769+1026638438
3099+1025842665+1025524804+1025674003+1025840285+1025688846+1025281717
3091+1024797294+1024324773+1023904972+1023487972+1022884316+1021969660
3082+1020913927+1020070894+1019590532+1019236754+1018686448+1017916440
3074+1017183819+1016748055+1016691624+1016851885+1016856996+1016382165
3065+1015406597+1014198864+1013133049+1012497677+1012262712+1011978037
3057+1011091176+1009454331+1007457757+1005703640+1004568721+1003938390
3048+1003314780+1002342083+1001267796+1000780852+1001400542+1003048799
3040+1005117207+1006896179+1008037819+1008635174+1008856136+1008684323
3031+1008127226+1007391804+1006584479+1005455722+1003708186+1001414124
3023+998971634+996778882+995013212+993609512+992456530+991712567+991807575
3013+993042333+995304608+998177471+1001143522+1003751874+1005817061+1007455937
3003+1008842974+1010019130+1010961862+1011702184+1012307380+1012778431
2995+1012991762+1012893743+1012774650+1013077809+1013818411+1014498382
2986+1014765133+1014862732+1015223162+1015862175+1016432434+1016741824
2978+1016949344+1017287999+1017852167+1018623366+1019423690+1019903632
2969+1019855393+1019469129+1019082024+1018809882+1018570996+1018330430
2961+1018193203+1018319577+1018730346+1019214070+1019551114+1019803303
2952+1020203290+1020763398+1021158204+1021063195+1020536064+1019981207
2944+1019718097+1019673428+1019575059+1019346535+1019129283+1018968742
2935+1018706332+1018250124+1017763600+1017470034+1017353882+1017189350
2927+1016852585+1016499717+1016380274+1016586044+1017066616+1017750858
2918+1018486560+1018996468+1019122772+1019086365+1019328962+1020035818
2910+1020913437+1021541878+1021873111+1022190832+1022631497+1023054729
2901+1023366149+1023654044+1023955102+1024154010+1024180405+1024152120
2893+1024259100+1024567790+1024993332+1025441418+1025885793+1026289141
2884+1026548611+1026598951+1026524876+1026507793+1026627166+1026742198
2876+1026663993+1026433789+1026272478+1026280249+1026355374+1026413415
2867+1026482448+1026536919+1026383939+1025881593+1025245240+1024941592
2859+1025169906+1025617642+1025852607+1025807728+1025725323+1025776712
2850+1025933613+1026131611+1026369937+1026667984+1027040526+1027481050
2842+1027900571+1028198058+1028446186+1028823279+1029302521+1029647127
2833+1029783304+1029936213+1030312395+1030815232+1031146466+1031110759
2825+1030791288+1030472656+1030422317+1030695579+1031093466+1031341593
2816+1031354196+1031249666+1031105088+1030884545+1030656722+1030646290
2808+1030941396+1031309037+1031445423+1031347825+1031294824+1031443603
2799+1031627949+1031650913+1031584120+1031616116+1031776657+1031976546
2791+1032144158+1032190367+1032040118+1031813344+1031772246+1031990408
2782+1032285305+1032514319+1032687532+1032780300+1032713857+1032533433
2774+1032386545+1032355809+1032435904+1032571870+1032673180+1032706856
2765+1032747884+1032863616+1033029828+1033166425+1033151932+1032896453
2757+1032513339+1032271092+1032305119+1032515929+1032745854+1032904364
2748+1032949663+1032885040+1032788142+1032786181+1032940561+1033175666
2740+1033376465+1033500459+1033524894+1033423654+1033277746+1033210603
2731+1033177417+1033053143+1032919627+1032995172+1033274665+1033471543
2723+1033367713+1033077017+1032870758+1032830500+1032843452+1032889031
2714+1033081358+1033415252+1033684314+1033692786+1033475184+1033320664
2706+1033520133+1033994334+1034326128+1034306524+1034208925+1034330049
2697+1034527837+1034490659+1034270257+1034207945+1034387600+1034521325
2689+1034438149+1034351963+1034500531+1034791997+1034975293+1034971582
2680+1034892047+1034853119+1034876714+1034930974+1035015760+1035187013
2672+1035463427+1035731228+1035816155+1035681449+1035470288+1035323330
2663+1035240294+1035166149+1035118260+1035173081+1035366458+1035642871
2655+1035905282+1036097679+1036171753+1036019684+1035601283+1035124351
2646+1034892747+1034967311+1035116090+1035075832+1034812231+1034591339
2638+1034744738+1035261438+1035767075+1036020314+1036154530+1036283284
2629+1036229584+1035885398+1035464337+1035137654+1034799909+1034456353
2621+1034430098+1034887986+1035512016+1035904161+1036057981+1036255139
2612+1036677460+1037187018+1037448379+1037311922+1037034389+1037009114
2604+1037358481+1037855087+1038154394+1038127929+1038012897+1038106295
2595+1038321517+1038333489+1038156005+1038244362+1038948767+1040083616
2587+1041095100+1041512031+1041232467+1040542974+1039907882+1039621247
2578+1039675577+1039999880+1040581342+1041208452+1041442577+1041121776
2570+1040657796+1040640083+1041255151+1042116387+1042635887+1042623355
2561+1042419825+1042388249+1042539758+1042718503+1042808400+1042739717
2553+1042562023+1042422416+1042295271+1041955006+1041359471+1040808255
2544+1040568669+1040520010+1040352047+1040075354+1040117432+1040765617
2536+1041676632+1042198233+1042102664+1041772831+1041664450+1041804407
2527+1041940093+1042050154+1042434388+1043201526+1043890738+1043876386
2519+1043113449+1042255644+1041971389+1042327408+1042952488+1043588910
2510+1044206359+1044684271+1044734751+1044238985+1043433760+1042703380
2502+1042358424+1042587788+1043334901+1044190256+1044674049+1044675029
2493+1044409608+1044030485+1043517987+1042930924+1042534227+1042597099
2485+1043084183+1043619296+1043874285+1043939188+1044109741+1044376632
2476+1044439224+1044217561+1043993658+1043997719+1044127874+1044158260
2468+1044001850+1043721586+1043398894+1043050437+1042699599+1042527856
2459+1042770033+1043346594+1043830247+1043944089+1043857272+1043855732
2451+1043979796+1044137116+1044360669+1044801964+1045494117+1046180739
2442+1046460373+1046185780+1045651647+1045286107+1045238078+1045375654
2434+1045563010+1045744975+1045851466+1045850275+1045865959+1046058986
2425+1046422636+1046825843+1047141534+1047252295+1047101066+1046777534
2417+1046381538+1045903276+1045453089+1045398899+1045947524+1046761711
2408+1047251875+1047127881+1046566163+1046048484+1046015997+1046449871
2400+1046871072+1046939895+1046793287+1046613492+1046292341+1045788384
2391+1045405830+1045400649+1045606839+1045708428+1045682943+1045762269
2383+1046068367+1046481097+1046820872+1046978963+1046900058+1046660962
2374+1046544179+1046758840+1047092595+1047120110+1046716622+1046106455
2366+1045462891+1044767307+1044147688+1044028315+1044608797+1045476474
2357+1046161625+1046700309+1047198385+1047372298+1046977632+1046220577
2349+1045527583+1045300180+1045816809+1046909439+1047796930+1047804352
2340+1047115139+1046411503+1045938703+1045371733+1044642893+1044238355
2332+1044397356+1044677270+1044613557+1044231354+1043745881+1043341203
2323+1043236392+1043534720+1044019843+1044323352+1044259989+1044024604
2315+1044060241+1044543194+1045102532+1045324614+1045283236+1045245429
2306+1045213503+1045108693+1045075646+1045287227+1045633514+1045811278
2298+1045609009+1045033918+1044318521+1043872255+1044020193+1044671039
2289+1045363752+1045747006+1045906076+1046168977+1046681125+1047247324
2281+1047594381+1047718025+1047815624+1047924565+1047899360+1047733638
2272+1047602083+1047584439+1047627217+1047762904+1048146577+1048808905
2264+1049405350+1049379585+1048637372+1047945009+1048257269+1049640875
2255+1051125371+1051616655+1050901047+1049842024+1049527663+1050056265
2247+1050377697+1049571002+1047958591+1046640238+1046281418+1046681335
2238+1047195164+1047208887+1046387209+1044925468+1043695191+1043750291
2230+1045337637+1047569036+1049283036+1049989262+1049817729+1049134187
2221+1048517159+1048512468+1049024826+1049474733+1049676932+1049847345
2213+1049743025+1048816536+1047394213+1046695688+1047390222+1048906224
2204+1050267075+1050908469+1050772363+1050494059+1051295573+1053591595
2196+1055851350+1056043747+1054100103+1051905601+1051069290+1051577798
2187+1052375951+1052609446+1052356488+1052201478+1052122082+1051531799
2179+1050564143+1050134050+1050359143+1050204273+1049206231+1048400446
2170+1048987229+1050976592+1053468722+1055478528+1056225572+1055581588
2162+1055019450+1057111943+1062359453+1067319767+1068454055+1066075208
2153+1062615352+1059636068+1057624021+1056873617+1057272904+1058091501
2145+1058818801+1059419867+1059452633+1058219206+1056235794+1055225780
2136+1055958051+1057110472+1057075536+1056053479+1055399063+1055635219
2128+1056115091+1056204358+1055835807+1055026171+1053765999+1052490003
2119+1051918273+1052249227+1052894751+1053045770+1052371680+1051339262
2111+1050860580+1051421458+1052628070+1053778251+1054536847+1054767191
2102+1054263305+1053218633+1052543143+1053055152+1054530196+1055979405
2094+1056666237+1056486862+1055690319+1054722173+1054118867+1054071538
2085+1054170397+1053912327+1053347318+1052975337+1053102131+1053528793
2077+1053821660+1053749406+1053435955+1053136438+1052970856+1052988149
2068+1053382815+1054493999+1056511717+1059004127+1060724568+1060489953
2060+1058585446+1056704604+1056044587+1056111940+1055791629+1054901407
2051+1054288299+1054896436+1056828388+1059035983+1060239585+1060180633
2043+1059625076+1059318487+1059171809+1058487777+1057104171+1056176423
2034+1057025896+1059135542+1060515438+1060141636+1058612401+1056562337
2026+1054080919+1051880536+1051541181+1053743104+1057053201+1059333960
2017+1059948679+1060054259+1060992369+1062754609+1063864952+1062934053
2009+1060585941+1059109497+1059809492+1061766508+1063282090+1063357145
2000+1061999023+1060072672+1058637466+1057993762+1057603997+1057042209
1992+1056650414+1056936909+1057723230+1058539797+1059283341+1059667084
1983+1058862980+1057019945+1056129724+1057530973+1059562904+1059933836
1975+1059121819+1058937404+1059626267+1060322831+1060761395+1061302739
1966+1061855706+1061658898+1060268710+1058153113+1056121532+1054706700
1958+1054110605+1054019238+1053567371+1052393595+1051485240+1052071953
1949+1054005235+1055902040+1056625839+1056256028+1055827826+1056270031
1941+1057402709+1058211294+1058057335+1057274864+1056762575+1057032267
1932+1057728481+1058192811+1058243430+1058132109+1057997963+1057806966
1924+1057690744+1057874810+1058311063+1058847577+1059513195+1060117131
1915+1060053699+1059169429+1058228658+1058064686+1058528385+1058652589
1907+1057771260+1056143306+1054646908+1054032610+1054338569+1055085263
1898+1055925144+1056776648+1057506189+1057883491+1057765939+1057107952
1890+1056003349+1054832654+1054034711+1053674841+1053476633+1053223394
1881+1053065024+1053334366+1054034921+1054693047+1054838465+1054506531
1873+1054154013+1054229698+1054966030+1056294535+1057712448+1058621643
1864+1058907718+1058972341+1059265977+1059781486+1060125393+1060124482
1856+1060065601+1060261709+1060693272+1061251419+1061995102+1062866980
1847+1063440461+1063280900+1062467133+1061544986+1060829378+1060208919
1839+1059603442+1059137503+1058936634+1058955608+1059135892+1059541340
1830+1060130434+1060588392+1060703214+1060560106+1060286004+1060068612
1822+1060155919+1060525100+1060826578+1060791501+1060494714+1060136035
1813+1059836797+1059669815+1059664984+1059816703+1060142406+1060614367
1805+1061090808+1061448087+1061728421+1062073167+1062521254+1062962829
1796+1063316677+1063653372+1064117141+1064718206+1065318362+1065906335
1788+1066567542+1067211316+1067581057+1067569855+1067331809+1067033832
1779+1066761410+1066624183+1066707079+1066934763+1067055116+1066804048
1771+1066230988+1065621100+1065084377+1064566137+1064040616+1063518666
1762+1062959748+1062288949+1061515020+1060730659+1059999158+1059290972
1754+1058564932+1057894343+1057448848+1057322123+1057460400+1057801925
1745+1058293630+1058843026+1059360145+1059754251+1059934046+1059953159
1737+1060028704+1060364979+1060981657+1061629842+1062150672+1062603730
1728+1063029692+1063437450+1063822034+1064103138+1064182323+1064094036
1720+1063954920+1063814683+1063686768+1063708822+1064007220+1064529800
1711+1065153690+1065793543+1066424925+1067005337+1067403153+1067577977
1703+1067761412+1068223151+1068832688+1069175404+1069393776+1069826039
1694+1070252351+1070368434+1070271255+1070150832+1070048472+1069979019
1686+1070099722+1070542417+1071046654+1071365426+1071580087+1071716193
1677+1071749450+1071772834+1071917272+1072190184+1072613626+1073224914
1669+1073733281+1073741823+1073324193+1072771436+1072274341+1071788657
1660+1071037133+1069892622+1068567617+1067303804+1065914457+1063821894
1652+1061436535+1059394382+1056900852+1052584731+1046086781+1039082563
1643+1032412940+1025548329+1018375588+1011222592+1003872297+995573950+986678458
1633+978163770+969282491+958535072+945308547+931052334+918549047+909678970
1623+905348217+905644654+909236275+915202123+924352044+936612173+948530567
1613+958009411+966174803+974040466+981320187+987092378+990552234+991248658
1604+989246132+985287711+980388728+975013584+969071610+962968256+958208109
1594+956290931+956957179+958066402+957055198+952419325+944525026+935644587
1584+929143136+927733205+931569593+938328414+944869423+947471123+943513052
1574+935494198+927055544+919696288+915066017+914764049+918183087+923743487
1564+929831579+935072577+939922271+947279846+957396583+964275267+967763058
1554+970793101+974392284+978625929+983252559+987668519+991482153+994926046
1544+998325620+1001846107+1006019820+1010899760+1014726626+1016897044
1536+1018330640+1019638911+1020574851+1020484744+1019250967+1016742524
1527+1012182686+1004990202+994854912+980126177+960362844+941221511+928899909
1517+924969213+929128013+939397660+952636997+966256578+978757344+990760314
1507+1004480714+1017101343+1023387503+1024671760+1022773905+1017514703
1499+1008493887+996959867+986021662+977507183+970175653+961796090+950704205
1489+935565262+914528384+887241052+857804308+834160127+824152892+829856189
1479+846212457+866537438+886694877+905229544+922377874+937409907+948310375
1469+955432075+960913710+966363419+972014556+976912069+980456431+983189897
1459+986280362+990796651+995871017+999283334+1000455290+998873055+992852877
1449+981518745+968476706+960223377+957744340+955859718+951711839+948494580
1439+950903044+960402612+973599731+984360172+990733919+994730498+997870532
1429+1000363432+1002025202+1002911712+1003201008+1002962612+1002002797
1421+999566399+994152887+984728443+972486027+959683293+948876014+943284177
1411+944880905+952209705+961766614+971069865+979287136+986007379+990998150
1401+994598172+997261485+999152829+1000463691+1001569064+1002652242+1003681861
1391+1004812438+1006430169+1008778211+1011526380+1013996806+1015961104
1383+1017630995+1019160509+1020569040+1021893975+1023220241+1024596635
1374+1025912329+1026932215+1027636200+1028291036+1029091570+1029950076
1366+1030710912+1031379821+1031977456+1032230134+1031562696+1029311763
1357+1024682402+1016749245+1005004415+990125782+974215010+960469475+952148303
1347+950833730+955486126+963424323+972251622+980879312+988926451+995747724
1337+1000714479+1004060073+1006579298+1008840663+1011008280+1013114076
1329+1015248156+1017499090+1019816606+1021913789+1023222691+1022908190
1320+1020159181+1015058840+1009264175+1005005395+1003218511+1003209620
1312+1003895752+1004751246+1005578806+1006097465+1006159077+1006010649
1303+1005977602+1005954148+1005317025+1003240986+999065382+992610490+984417023
1293+975660228+967639204+961258807+956898787+954513288+953673267+953687129
1283+953941138+954090127+953778007+952266976+948612763+942428753+934520661
1273+926680622+920819514+918221384+919318215+923775203+930645765+938685693
1264+946843802+954560968+961605513+967785883+972976542+977279640+980911589
1254+983908095+986096086+987344146+987658157+987004791+985246613+982366118
1244+978732559+975150810+972535247+971335706+971326254+972115586+973741159
1234+976544918+980592677+985441530+990413047+994949500+998812703+1002092065
1224+1004998254+1007584972+1009732635+1011426471+1012893953+1014351774
1215+1015762825+1016943253+1017724813+1017867851+1016884161+1013911319
1207+1007645673+996693116+980656880+961321959+942640334+929043997+923163915
1197+924715064+931290169+940114668+949288743+957932116+965679527+972247421
1187+977346853+980635665+981697490+980568803+978394184+976814330+976513272
1177+977168948+978808034+982057569+986887169+992148471+996644876+1000017075
1167+1002535110+1004540156+1006187993+1007385643+1007591203+1005584267
1159+1000029748+991138877+981845288+976507041+977744389+984482276+993126069
1149+1000446818+1005351752+1008478274+1010791309+1012722210+1014271608
1140+1015487322+1016579533+1017657880+1018650531+1019504275+1020236336
1132+1020782441+1021035120+1021041491+1020991642+1020992972+1020935911
1123+1020620780+1020004802+1019250547+1018469966+1017540187+1016285266
1115+1014759462+1013242690+1012030897+1011312489+1011143336+1011428571
1106+1012014514+1012881911+1014115128+1015579180+1016849855+1017646258
1098+1018159667+1018783137+1019663206+1020671470+1021671542+1022618965
1089+1023470679+1024203650+1024911626+1025646417+1026157306+1025966869
1081+1024581933+1021336248+1015155949+1004967518+990772146+974723518+961166669
1071+954728580+957345053+967023716+979692584+991954044+1002162148+1009949537
1061+1015617547+1019774807+1022991086+1025558130+1027494913+1028693194
1052+1029066436+1028658817+1027769366+1027030094+1027149747+1028376243
1044+1030314076+1032327943+1033860818+1034208995+1032290696+1027149677
1035+1019093086+1010356805+1004132957+1002338162+1004053142+1006156557
1027+1005794587+1002786108+999756695+999583482+1002761183+1007503196+1011918106
1017+1015408557+1018274489+1020843843+1023238024+1025528795+1027710695
1009+1029608270+1030991666+1031565567+1030832525+1028653146+1026162137
1000+1025257913+1026800450+1029930262+1033178887+1035524548+1036463289
992+1035820985+1033815379+1031245745+1029454450+1029578794+1031555205
983+1034206405+1036444805+1038047204+1039309407+1040446706+1041427244
975+1042086141+1042279448+1042054005+1041720951+1041667321+1042035871
966+1042593809+1042940235+1042884085+1042679785+1042833255+1043583169
958+1044651505+1045550268+1045988482+1045935762+1045476614+1044693373
949+1043613135+1042185000+1040318021+1038101114+1036134506+1035427790
941+1036650435+1039515806+1043019141+1046163376+1048470880+1049999134
932+1051005648+1051675256+1052105489+1052264000+1051705852+1049219114
924+1042940165+1031828607+1018019710+1006853681+1002878106+1005921732
915+1012109452+1018069909+1023012301+1027486862+1031682069+1035150256
907+1037504739+1038924473+1039901861+1040733131+1041450979+1042015568
898+1042316695+1042124929+1041173235+1039219649+1035961152+1030736537
890+1022042964+1007315700+983622720+949470988+907083011+863542192+829099554
880+812645827+816963418+837377387+864951773+891433599+912301115+927010456
870+937720977+947454740+958156440+969725886+980749437+989996607+997183910
860+1002693970+1006982856+1010195984+1012080887+1012277835+1010673966
851+1007111471+1000997054+992374545+983528412+978004489+977449702+980545068
841+985119608+989855320+993882285+996373294+997089532+996481535+994976875
832+992580594+989193342+985002196+980454121+976017577+972113345+969138123
822+967334086+966776498+967716009+970716507+976127918+983495296+991658867
812+999305878+1005229228+1008244569+1007406437+1002638800+995014052+986318659
802+978330402+972137570+967808917+964860510+963127186+962935349+964524165
792+967713699+972124127+977390681+983185836+989236611+995287455+1000910237
782+1005363234+1007539393+1005427857+994967353+970321561+927994775+872488723
772+816429215+772352933+743961069+726756869+716383252+713766289+721942882
762+740487141+764711103+789282891+811236876+829951968+845767591+859206887
752+870758971+880684851+889119864+896407566+902912098+908486151+912580679
742+914888673+915570254+914878661+912594892+907885925+900359407+891693069
732+885513190+884862695+889934891+898558590+908439942+918551148+928835217
722+939168996+948587278+955524213+959212103+960564693+960972591+960278898
713+955785083+942407189+914634314+871323559+819567289+771275146+734361452
703+708362929+689018976+674985055+668781232+672919868+686894697+707482719
693+730749107+753519519+773759924+790492724+803568230+813381039+820697517
683+826394513+830997759+834455794+836461750+837015487+836604228+835797813
673+834834217+833631596+831825738+828746056+824472573+820395268+817114787
663+814273080+811591214+809179390+807376193+806349586+805877835+805628377
653+805555563+805881615+806783739+808142000+809531418+810523999+810976706
643+810983917+810818405+810921885+811523231+812240099+812477305+812246260
633+812235758+812983432+814213289+815229534+816059754+817934715+822201266
623+828682343+835322141+839565728+840393497+839157199+837739496+835499975
613+829368265+818045126+805265147+797626327+799480634+810483601+825639908
603+835087596+827311269+799225365+763328336+738750247+734064665+743229849
594+756054007+767103393+775850526+783307731+790148258+796403121+801861232
584+806523849+810425910+813465755+816070816+819454637+824338287+829794717
574+834262207+837447820+840396578+844179966+849109194+854598181+859454525
564+863021712+866084451+869616981+872216721+869347849+856062512+832088639
554+805091023+787019496+784983364+796107665+811873088+825721123+835744042
544+842593320+847296195+850647250+853077348+854414045+853974571+851494413
534+848400028+847622038+851190065+858078830+865232387+870531637+874227648
524+877657958+881137138+883745980+884921156+885554358+886811800+888244766
514+888363228+886276197+881705087+874535497+865388727+856298878+850191533
504+849445469+854483498+862874893+870782985+876427051+880737011+884987669
494+889205630+892490173+894256122+895192133+896718426+899518825+903127950
484+906588436+909049759+910241039+910733443+911150514+911125519+910023367
475+908604474+908536561+909853374+910641376+910024767+909178304+909377982
465+910545107+911703410+912026312+911287180+909784341+907500781+902582825
455+891949879+874848878+855323240+839040977+826331921+812084809+793141754
445+773134283+760047785+759707940+770419511+785022081+798135325+809262636
435+819960275+829934394+837238760+841202223+843133894+844243538+844693865
425+844928620+846024611+848197479+850170108+849751568+845737135+840218673
415+836116654+835289725+838833947+846023140+853528655+857347820+856238246
405+852875989+851042686+852424052+856550016+862402512+868607947+873064514
395+875647591+879191323+885304830+891441231+893889532+893179805+893336215
385+895744329+897053861+895148444+891811812+888333613+884654475+881932981
375+882680235+885154441
##END=
