##TITLE=YM-238-210
##JCAMP-DX=4.24
##DATA TYPE=INFRARED SPECTRUM
##DATE=9/1/2020
##SAMPLING PROCEDURE=Diamant-ATR
##ORIGIN=Marie
##XUNITS=1/CM
##YUNITS=TRANSMITTANCE
##RESOLUTION=4
##FIRSTX=3997.453
##LASTX=373.96442
##DELTAX=-1.4165319
##MAXY=0.85894787
##MINY=0.35820752
##XFACTOR=1
##YFACTOR=7.9995755e-010
##NPOINTS=2559
##FIRSTY=0.78489691
##XYDATA=(X++(Y..Y))
3997+981173207+980721156+980443831+980634650+981088117+981271709+981051383
3988+980950274+981513269+982571979+983298896+983019633+981928587+980917042
3978+980695748+981181776+981759897+982017999+982018520+981934399+981824199
3968+981838281+982218877+982927614+983597009+983974476+984111052+984038182
3958+983623684+982915990+982298081+982081108+982138928+982104206+981780312
3948+981266419+980834933+980819286+981414842+982354559+983001155+983003390
3938+982558194+982074328+981944383+982483387+983635084+984708397+984933342
3928+984278699+983324974+982596343+982178940+981810265+981254795+980560141
3918+980106823+980336686+981157411+981946693+982295249+982296591+982097500
3908+981656775+981143627+981079474+981647834+982259410+982514755+982758179
3898+983040347+982827547+982014720+981249728+981225885+981794022+982052497
3888+981742312+981521018+981790371+982010324+981723238+981424975+981594932
3878+981835599+981673763+981322077+981230654+981609909+982403214+983281237
3869+983714288+983578307+983300684+983291370+983605951+983996754+984139366
3859+983839017+983204865+982664222+982691939+983230496+983609751+983590825
3849+983334437+982946763+982619814+982552830+982571830+982276920+981731136
3839+981477058+981737469+982137885+982422289+982738508+983200841+983662280
3829+983929844+983922394+983602449+983048916+982558790+982443747+982794167
3819+983612656+984877832+986004867+986018502+985038326+984046303+983419825
3809+982991692+982685606+982483312+982167167+981674434+981333924+981553877
3799+982415210+983675617+984882079+985503640+985437251+985027522+984506103
3789+983953613+983696852+984173491+985214244+985986165+986008667+985627177
3779+985353279+985294938+985310063+985327424+985369895+985496487+985712938
3769+985894741+985906439+985656906+985001667+984041237+983339727+983384955
3759+984000405+984516907+984560644+984295389+984030433+984114852+984726652
3750+985278918+985116412+984676805+984796915+985509898+985855996+985440753
3740+984616154+983569441+982377806+981437791+981250175+981778375+982590234
3730+983362155+983967099+984303660+984156950+983405296+982386375+981744324
3720+981815332+982282210+982590159+982700955+983251135+984792071+986701980
3710+987583729+987188603+986214910+985150314+984403578+984395083+984971640
3700+985363636+985132879+984426229+983497166+982602006+982051006+982055477
3690+982555661+983265963+983944597+984449848+984602221+984344640+983911143
3680+983621449+983678225+984370644+985838188+987062831+986956878+986174376
3670+985979384+986629110+987191658+987112082+986631419+986021557+985331299
3660+984721287+984689844+985531059+986539325+986587310+985671138+984682989
3650+984450295+985326381+986657423+987365937+987188603+986433298+985475698
3640+984774338+984729707+985204483+985576212+985464522+985122820+985103522
3631+985837890+987164015+987842426+987018274+985455059+984218793+983936401
3621+984749675+986143157+987182941+987560631+987672619+987663231+987298580
3611+986567714+985738345+984968809+984381895+984219836+984561538+985134220
3601+985533742+985669349+985942055+986744823+987791685+988238893+987756591
3591+986967756+986610482+986785804+986981690+986843847+986612568+986566745
3581+986612643+986500133+986270420+986260659+986580157+986864709+986717627
3571+986211706+985791545+985780816+985997416+986015373+985862479+985871420
3561+986112533+986395596+986529714+986393957+985998981+985639247+985685220
3551+986023420+986117898+985757494+985272659+985038252+985087056+985235330
3541+985312001+985232946+985061648+984963593+984984009+984959420+984739393
3531+984438225+984407005+984859577+985527408+985931251+985926930+985667859
3521+985300899+985053303+985235330+985786032+986209396+986208800+985959043
3512+985655640+985320569+985070961+985070514+985237118+985418475+985659812
3502+985922757+985814792+985096444+984175727+983665111+983642535+983754001
3492+983862711+984129531+984591715+985017836+985168495+985045479+984880664
3482+984930883+985346350+986167969+987205070+987909038+987772834+986972898
3472+986232271+985998831+986091745+986100984+985885428+985661898+985686561
3462+985920298+986118122+986170875+986144722+986064177+985877530+985606910
3452+985393067+985363785+985467949+985513847+985448875+985418848+985434048
3442+985317589+985126844+985217746+985730075+986385239+986889894+987159768
3432+987139948+986827753+986456247+986249259+986056055+985601098+984993546
3422+984657134+984844079+985422648+986060228+986498047+986673070+986606086
3412+986284204+985818667+985504161+985420338+985258577+984897503+984751836
3403+985132134+985701090+986018204+986203882+986593419+987044725+987078329
3393+986558176+985796985+985099424+984619730+984534417+984852126+985176095
3383+985165738+985079679+985370863+985986910+986508106+986716808+986649600
3373+986334647+985834463+985423020+985430546+985898318+986526361+987014101
3363+987359082+987786470+988520987+989627606+990846436+991550181+991161091
3353+989789590+988321003+987706446+988106340+988727528+988573293+987332929
3343+985435314+983434951+981702971+980597246+980456945+981190344+982101524
3333+982447994+982169030+981778301+981583905+981480187+981549183+982225881
3323+983627931+985281079+986659733+987550274+987927144+987944728+987951807
3313+988136964+988297830+988191579+987895403+987694525+987795709+988168630
3303+988525905+988495356+987933030+987102023+986549235+986714647+987480607
3293+988182340+988257669+987799658+987313035+987136223+987259537+987468015
3284+987505493+987281815+987016113+987060447+987544909+988241650+988740344
3274+988767614+988406540+987997332+987769630+987607199+987272725+986832000
3264+986625533+986791913+987130858+987501023+987950615+988396183+988614795
3254+988609952+988551014+988373979+987890411+987242250+986864709+987007917
3244+987527325+988101646+988444242+988363399+987907623+987517936+987740795
3234+988620532+989614567+990219511+990383582+990226366+989766939+989111402
3224+988548034+988221085+987975054+987727085+987748619+988289709+989074967
3214+989504590+989357806+989000904+988867085+989023108+989279422+989427175
3204+989313845+988963128+988674626+988765006+989206030+989701594+989987488
3194+989893457+989417265+988958061+989079438+989795327+990465394+990583715
3184+990277405+989934213+989780276+989922068+990372033+990901872+991177185
3174+991100291+990786382+990314586+989807100+989595343+989898896+990435441
3165+990730201+990735640+990804487+991111319+991389911+991230907+990524107
3155+989609947+988983842+988822230+988887053+988935708+989030261+989286351
3145+989512786+989395806+989019308+988863210+989159088+989523292+989446249
3135+988943308+988501465+988511971+988952845+989540280+989983539+990155657
3125+990153868+990121606+989984880+989568371+988961265+988479112+988275924
3115+988293956+988520391+988927736+989250959+989212139+988903594+988618967
3105+988397226+988085924+987816721+987977513+988552877+988901061+988489395
3095+987568082+986792435+986435608+986306855+986185404+985982663+985629487
3085+985065150+984316699+983480029+982655430+981988120+981720183+982020159
3075+982695814+983243610+983254861+982617206+981355607+979633612+977959750
3065+977004609+977017574+977630715+978329765+978898051+979290494+979281553
3055+978490408+976767594+974414129+972018267+970238005+969660108+970506837
3046+972312953+974094705+974985767+974660085+973236055+971033174+968521822
3036+966342039+965205914+965689259+967948619+971494613+975340285+978549644
3026+980764446+982293536+983688507+985163279+986494768+987467270+988195007
3016+988958732+989942931+991138589+992331640+993237678+993724525+993792031
3006+993460462+992928090+992579757+992512102+992356153+991784738+990790480
2996+989304830+986908000+983002571+977112425+969292253+960517760+952320271
2986+945610742+939948149+934015160+926442659+915927320+901192195+882069936
2976+861106838+843260410+833081929+832145789+839096581+851322142+866126710
2966+881123513+894630717+906025047+915542551+923687064+930815711+937041896
2956+942312567+946594494+950039676+952904725+955275179+956920802+957464872
2946+956655323+954407811+950623535+945163832+938163417+930301370+922649292
2936+916283998+912017569+910271284+911009974+913731592+917529131+921328830
2927+924342303+926390278+927725717+928619312+929292433+930119790+931499636
2917+933379443+935182207+936342994+936714053+936410723+935621218+934717266
2907+934258882+934684481+936034524+937981315+940099031+942126665+943981362
2897+945621024+947038200+948301363+949436967+950371394+951063887+951523836
2887+951707428+951580836+951191076+950465425+949082971+946720266+943319641
2877+939089722+934511991+930467750+928067866+928031356+930190276+933699090
2867+937675676+941573803+945163310+948427732+951422130+954098148+956336943
2857+958162581+959749192+961211595+962547257+963732707+964742836+965537259
2847+966155020+966760635+967470713+968162089+968566826+968603932+968550285
2837+968774336+969311924+969831629+970043311+970009931+969998233+970163123
2827+970466527+970808229+971128323+971409895+971644675+971820667+971940404
2817+972056416+972265416+972615835+973000157+973198204+973088972+972802035
2808+972634761+972827369+973391110+974121827+974772744+975231724+975544144
2798+975790100+975966837+976008190+975934277+975911328+976098571+976505468
2788+977044994+977600389+978013322+978225973+978451291+978933294+979524306
2778+979826070+979771976+979723172+979911310+980134690+980141396+980031792
2768+980087972+980373494+980672501+980754611+980591137+980324317+980110623
2758+980036784+980132008+980358592+980605964+980782552+980902662+981019866
2748+981166352+981393905+981753116+982157704+982387194+982306649+982035285
2738+981848563+981922179+982186018+982413273+982428771+982250916+982044897
2728+981931046+981861156+981720481+981506042+981331093+981311273+981511481
2718+981916591+982391740+982737539+982808175+982570339+982134159+981757065
2708+981691273+981964203+982404332+982859884+983280939+983634562+983887150
2698+984046750+984137652+984167829+984177887+984249342+984378617+984401193
2689+984158440+983755194+983546343+983767935+984242189+984589330+984701989
2679+984813679+985093389+985402381+985545514+985536498+985485906+985404244
2669+985275416+985179746+985168197+985115444+984864867+984465346+984152256
2659+984128935+984437256+984962252+985476891+985747138+985708989+985546110
2649+985535530+985824851+986367506+986974388+987360274+987324956+987058807
2639+987085929+987666732+988413022+988765081+988674626+988509810+988464807
2629+988449532+988436046+988499081+988557422+988449159+988237179+988137709
2619+988184277+988232560+988230175+988235391+988215869+988041591+987683274
2609+987314376+987153658+987196129+987171764+986889074+986543796+986524051
2599+986988470+987774548+988614869+989329269+989887868+990311829+990520456
2589+990449747+990313915+990427468+990763880+991047538+991250577+991600773
2580+992089036+992342220+992098722+991574546+991162879+990919903+990634605
2570+990305868+990161319+990253562+990421805+990600182+990836378+991087774
2560+991251695+991348856+991511287+991751730+991863048+991760597+991841663
2550+992572753+993699117+994378274+994203623+993670803+993479090+993690027
2540+993784282+993440345+992909016+992481702+992031738+991459577+991112809
2530+991269354+991631173+991780342+991748601+991771550+991846208+991845761
2520+991826687+991973322+992320910+992657620+992768416+992777655+993039035
2510+993591451+994014517+993978007+993616262+993276498+993227992+993587129
2500+994163387+994530125+994561568+994570285+994688085+994627136+994290948
2490+994076509+994296685+994725936+994946932+994902077+994925548+995282822
2480+995828383+996204731+996268065+996169637+996117555+996223135+996465068
2470+996644637+996479672+995888512+995145948+994680411+994747246+995305846
2461+996113829+996852370+997228346+997130590+996711770+996248618+995945661
2451+995896484+996094308+996387131+996574821+996689492+997025009+997707593
2441+998369389+998489424+998036405+997546652+997519829+997896326+998158228
2431+997842009+996970766+996089837+995843806+996395104+997300919+998020981
2421+998392785+998515056+998452467+998328707+998419087+998785898+999066502
2411+998960698+998667726+998543593+998601561+998654836+998721671+998988416
2401+999452686+999834176+999843788+999424745+998735530+998034766+997574668
2391+997459699+997584578+997773609+997902585+997879040+997674287+997421327
2381+997339813+997527354+997896923+998302777+998671526+998999220+999259706
2371+999436592+999647455+1000018662+1000411105+1000566309+1000469148+1000279298
2361+1000099655+1000025666+1000092502+1000083933+999712427+999000114+998253079
2351+997704240+997329382+996990735+996612821+996211512+995850512+995649410
2342+995770190+996253759+996897300+997374609+997418421+996959068+996216280
2332+995568940+995200116+994946262+994612979+994305180+994317325+994773324
2322+995487053+996212927+996879641+997469982+997876060+997986483+997841636
2312+997652382+997641056+997894538+998398075+999084236+999738878+1000071192
2302+1000060462+999996831+1000022761+999954286+999706988+999547463+999745733
2292+1000231984+1000682842+1000726505+1000119325+999043404+998193173+998208597
2282+998978804+999790290+1000176325+1000309921+1000593133+1001233395+1002183991
2272+1003087123+1003377190+1002933335+1002511163+1003006355+1004398719
2264+1005878408+1006752408+1006864023+1006531784+1006328969+1006521502
2255+1006768353+1006767980+1006809706+1007193878+1007645631+1007747783
2247+1007469266+1007003207+1006529772+1006241718+1006215639+1006220929
2238+1005964094+1005462495+1004935636+1004445883+1003936907+1003544464
2230+1003609735+1004397899+1005887424+1007686536+1009095367+1009573943
2221+1009304590+1009026147+1009164586+1009300045+1008670438+1007187246
2213+1005725738+1005296114+1006057902+1007265407+1008155054+1008637206
2204+1008867814+1008510540+1007284556+1006025490+1006039349+1007380972
2196+1008888155+1009826680+1010524241+1011449801+1012343471+1012426624
2187+1011444809+1010192002+1009449884+1008800159+1007372403+1005312655
2179+1003804429+1004269742+1007560317+1012553812+1015961665+1015426759
2170+1012408816+1010399660+1010743448+1011774365+1011904906+1011821903
2162+1013118894+1016080135+1019491639+1021962904+1022762618+1021747422
2153+1019327569+1016360218+1013728011+1011965557+1010996409+1010233653
2145+1009487288+1009514261+1010773550+1012149522+1012348612+1012068455
2136+1013041627+1015191681+1016508566+1015756390+1013750662+1011927408
2128+1010907295+1010685554+1011308232+1012652537+1013870027+1013890517
2119+1012619232+1011048491+1010038884+1009515378+1009032630+1008632959
2111+1008780638+1009654414+1010811401+1011525875+1011363370+1010525060
2102+1009744347+1009736002+1010592119+1011724071+1012445102+1012587714
2094+1012513502+1012541667+1012495247+1011905801+1010637421+1009223300
2085+1008551073+1009186492+1010893511+1012768028+1013964803+1014370881
2077+1014497325+1014748124+1014981116+1014804528+1014097133+1013211063
2068+1012771082+1013048557+1013461043+1013213298+1012522294+1012380353
2060+1013121278+1014197795+1015267234+1016382869+1017203594+1017155013
2051+1016388084+1015768536+1015833955+1016106810+1015639932+1014122019
2043+1012241765+1011070621+1011358601+1013288255+1016294425+1018899808
2034+1019422569+1017505656+1014602607+1012587565+1012220828+1012905498
2026+1013595533+1013991627+1014702524+1016032822+1017338680+1018125428
2017+1018816879+1019603031+1019596102+1018271169+1016889982+1017343448
2009+1019754808+1022108497+1022701073+1022138226+1022031155+1022704500
2000+1023320994+1023438496+1023369127+1023480072+1023915880+1024532374
1992+1024770656+1024275017+1023591166+1023365029+1023168249+1021890183
1983+1019076396+1015461034+1012578698+1012177240+1015131924+1020228839
1975+1024982114+1028055046+1029799394+1030573625+1029878076+1027486611
1966+1024364503+1021685579+1019800557+1018886844+1019526361+1021826701
1958+1024669919+1026402419+1026053192+1023958201+1021456164+1019810168
1949+1019216996+1018847428+1017860397+1016331084+1015098246+1014684866
1941+1014761611+1014948183+1015316932+1015794092+1015947732+1015620634
1932+1015171712+1015036254+1015445536+1016389872+1017571076+1018530389
1924+1018922310+1018688275+1018061871+1017440237+1017188021+1017321468
1915+1017410805+1017129903+1016722335+1016735225+1017513927+1019056949
1907+1020981015+1022565763+1023396845+1023849343+1024404217+1024880930
1898+1024914013+1024699573+1024793903+1025436773+1026311071+1026934941
1890+1027234768+1027597482+1028225748+1028825253+1029107422+1029231108
1881+1029583241+1030189676+1030547994+1030210166+1029357402+1028570355
1873+1028282375+1028617297+1029353230+1029876214+1029753347+1029323947
1864+1029190649+1029517151+1029912500+1029866229+1029383555+1028978073
1856+1028970473+1029165167+1029278720+1029316943+1029471775+1029857437
1847+1030446139+1031184456+1031918377+1032262836+1032077232+1031747377
1839+1031629726+1031669961+1031649620+1031516099+1031323864+1031058609
1830+1030533837+1029559100+1028369328+1027420968+1026744047+1026049318
1822+1025407193+1025214957+1025637055+1026435874+1027206454+1027743819
1813+1028195571+1028735171+1029241688+1029621092+1030109504+1030877401
1805+1031757958+1032507079+1032996533+1033169098+1033026263+1032724424
1796+1032607965+1032995416+1033798854+1034453646+1034535756+1034233246
1788+1033976784+1034113509+1034699454+1035461912+1036251939+1037178543
1779+1038179879+1038979816+1039428737+1039585729+1039666871+1039827588
1771+1039854933+1039612702+1039375537+1039292757+1039255204+1039303412
1762+1039559725+1039903588+1040168023+1040301694+1040215039+1039973180
1754+1039858137+1040053576+1040606811+1041404662+1042069065+1042403390
1745+1042572677+1042686453+1042816771+1043204743+1043813711+1044260248
1737+1044645091+1045518420+1046863694+1047848564+1048285563+1048788057
1728+1049752512+1051032738+1052253804+1053313631+1054342983+1055422257
1720+1056765519+1058654193+1060605603+1061859006+1062745151+1063649103
1711+1064459919+1065225954+1066070745+1066831937+1067307160+1067508038
1703+1067764054+1068925065+1071280915+1073238137+1073741823+1073060655
1694+1071073032+1067567646+1061972038+1053057243+1040542807+1023331574
1686+992500404+933369235+850069857+762201316+675932128+595296473+530549280
1676+492721494+485989724+503728076+538203370+586287051+639041824+682443014
1666+714395929+742043371+770144206+796775335+818050479+834073282+846859604
1656+858237542+871384789+888387469+902283838+909321583+914477956+921416901
1646+929460080+935435912+938721867+940639972+942190669+943996562+947180141
1636+953500207+962174410+969496112+974614932+979056906+983902425+989283073
1626+994908038+1000696925+1006656290+1012166883+1016576743+1020560631
1618+1025700389+1032271255+1038093895+1041539524+1042158849+1038361161
1609+1026897537+1003865899+965877024+911706565+845531542+779478341+729500771
1599+705451777+706262145+723832962+748751783+773856878+795949618+815234756
1589+832919200+849435779+864451060+877552782+888675226+898096389+906086890
1579+912931431+919497231+926877945+934343972+940040466+944368068+949041767
1570+954249031+956710311+951777467+937644978+917656542+898576530+886300898
1560+886268561+899146008+912728392+921678877+928797018+935176022+940570529
1550+944958111+948369316+950962480+953227651+955425167+957429256+959593988
1540+962341238+964468789+965019491+964207409+961949316+957935699+952800710
1530+947875391+944366801+943337076+945076954+949011442+954889442+962082614
1520+968394858+972639828+975743904+978513283+980875987+982693579+984074840
1510+985256640+986761066+989251034+992029502+993618572+994263752+994733983
1500+995321344+995848053+995878006+995116144+993588172+991286044+987879458
1490+982839394+976163022+969187418+963968307+962094387+964125150+969231379
1480+975389238+980692172+984274750+985494997+982278187+970352527+947302113
1470+917995189+889164234+864374389+846778239+839352522+840099110+843080320
1460+844628930+843928911+842246406+843708511+850728299+861417768+873528062
1451+885734102+897865334+910107660+921249701+929905127+936799888+943577072
1441+950803401+958466134+967077152+976445786+984383683+989328971+991164444
1431+988620681+979093938+962148853+941733179+924733107+917447915+920942795
1421+931371405+944013848+954627764+961220238+964897369+967126925+968572340
1411+969617563+970398201+970315794+967796172+960912662+949197120+934071564
1401+916879555+899004514+883694398+874718281+873277784+877233060+882761237
1391+887476215+891326581+895072783+898805424+900255309+893775196+873485815
1381+840748090+808392748+792298565+797807891+817459170+839047851+854297540
1371+862052591+864612374+863787998+860729074+857577535+858477240+867907344
1361+885745800+905821338+921579705+929598073+928484822+917760558+898377663
1351+873942262+850768311+835381822+830885158+835826049+846402561+859363981
1341+873188819+887211109+900440839+911887550+921491411+929851480+937402895
1332+944151691+949982080+955046881+959721772+964201150+968347469+971907024
1322+974602415+976031288+975984571+975227328+975438265+977703138+981290411
1312+984502079+986712859+988915442+992245357+996640464+1001044438+1004458177
1302+1006527463+1007319874+1006839435+1004996809+1002062167+998728749+995337587
1292+991501750+987189646+983806978+983173868+985334651+988086073+988477622
1282+983893484+972021695+951605722+924880040+899039683+883330492+883141312
1272+896773543+917813758+940025341+960093055+977163613+991350271+1002937508
1262+1012320820+1020016337+1026494588+1032094146+1037055005+1041460842
1254+1045248248+1048438756+1051257907+1053903525+1056261237+1057816628
1245+1057726621+1055029665+1048992140+1039486706+1027213235+1013442564
1237+999137883+983917774+965570416+940425756+904648554+856301033+797358746
1227+734474819+677595260+636305751+615536565+613784878+625170342+643081445
1217+662719983+681845818+700156517+718015315+735486885+752261640+768055846
1207+782750512+796165175+807831242+817025523+823186959+826606584+828753434
1197+831505154+835563253+839609580+841514497+840774839+839619565+841340293
1187+847514172+857030633+867568846+877495037+886395004+894492427+902040489
1177+909137022+915773904+921862693+927230525+931641130+934619807+934775458
1167+928979642+912685922+882647312+841156478+797767731+764995879+750609982
1157+753723745+767763917+785915016+803909645+819850263+833165827+843851496
1147+852176546+858608303+863605300+867491058+870711444+873987639+877904170
1137+882383473+886599757+889192100+888566889+883567507+874637587+864513350
1128+857060735+854643042+856555708+860330968+864422523+868996975+874087109
1118+878204295+879932698+880255996+881763626+885373848+888842500+888899873
1108+884532260+878152511+873759266+873918121+878392879+885327353+893094251
1098+900869940+908155356+914464544+919476369+923127868+925382385+925830114
1088+923324053+915997433+902177661+881996469+858489310+837179445+824165421
1078+823358778+834314321+852544996+872425020+890145229+904472636+915738140
1068+924713138+932076416+938286060+943618798+948220520+952109781+955222724
1058+957605993+959567388+961492422+963501057+965497471+967561317+969963661
1048+972760310+975465163+976591527+973315557+963308523+948632261+936494249
1038+933666902+940472176+951718977+962394587+970701456+976901264+981581967
1028+984940644+986355584+984589703+979436757+973471729+971109546+974995305
1018+983917401+994805215+1005654432+1015962335+1025757538+1035150163+1044135742
1009+1051376005+1051474730+1035106128+998459397+954798987+928675493+933126631
999+958043366+984383087+1002705335+1014089309+1020648180+1021051501+1011465746
989+986404165+940773046+875593920+802088626+736226469+687481066+655590516
979+637777393+633050345+638307009+647157725+655752500+665369252+677550107
969+690707786+703042057+715263669+728091866+739104632+745017503+746832262
959+750131182+759486777+774292611+790612558+805286212+817427205+827445191
949+835918218+843210861+849536739+855067301+859898290+863988429+867250019
939+869644688+871079597+871262221+869824555+866717274+862654108+859256388
929+858440432+861177027+866819651+873834894+881043713+887985489+894416650
919+899978357+904448495+908005070+911016382+913697913+916108229+918293377
909+920306631+922209461+924081891+925944710+927769081+929638829+931740899
899+934133258+936644312+939053063+941282619+943347582+945230369+946985298
890+948853928+951068283+953633729+956312280+958664553+960349741+961587646
880+962832182+963393166+959976968+946776223+919028043+878398691+833418639
870+793264361+763865343+750639711+758672385+786312451+823042261+857208786
860+883595747+902866877+917314244+928733238+938110887+945424765+949517512
850+947301070+931977467+895311363+838697879+782619002+756056943+770882895
840+811040676+848058391+859707322+833696188+768150995+678927793+597339903
830+546451078+520256688+496044332+466263079+447783168+459353490+500611258
820+556260773+611815138+660650474+701607744+735349638+762753359+784685679
810+802248226+816822186+829644869+841282101+851680087+860823478+869025959
800+876532072+883330492+889367496+894579752+898913612+902531955+905741314
790+908754191+911825930+915371104+919559969+923942409+927799332+930924570
781+933822031+936896378+939699137+941363536+941517399+940307733+937761585
771+933394047+925632812+910195507+878850965+822533955+740051800+645592126
761+565303277+522698522+524507283+558081009+600688037+632562753+645617608
751+644672750+642271226+650355386+673402447+707213858+743447880+775340218
741+800232662+818731126+832801177+844286558+854269525+863238563+871477926
731+879102659+885946083+891766785+896595166+900693352+904163719+906871180
721+908936740+911025770+913760576+917000558+920043164+922401100+924173017
711+925606436+926345423+925168393+920000321+907501756+883988637+849770327
701+812347577+781346897+759416737+742460253+729883602+728536391+743730421
691+771331295+801548132+827395195+847463580+862985602+874942779+883671151
681+889629771+893484011+895372908+894825709+891714852+886947419+882085210
671+878217781+875298936+872799953+871314526+872232785+875842261+881796336
662+889364963+897340488+904743703+911177919+916448814+920317956+922628951
652+923711354+924428138+925543028+927329399+929760504+932507232+934946309
642+936683876+937450656+936128108+931435707+924601374+919725604+919926780
632+924315703+929918986+934969928+939156334+942253481+944033146+944801715
622+945106385+945378271+946089616+947514391+949167837+950302174+950989899
612+951843781+952876263+953668525+954420552+955712477+957423668+958806048
602+959324263+958925189+958068997+957696374+958493852+960150725+961671991
592+962273359+961974501+961550316+961755889+962499794+962960488+962513951
582+961390642+960388560+959837784+958325311+951964114+936066041+910159221
572+881049152+857607487+842272485+831621091+826028835+831929636+852005695
562+879617074+905262514+924090386+936368625+944434903+950212613+954391419
552+957395131+960035608+962592484+964580852+965863761+966775462+967478984
543+968280485+969743186+971807926+973733109+975230010+976808053+978779059
533+980521768+980857807+978413887+970783417+953835129+924484319+886072600
523+849009285+824851209+819943102+832324314+853778356+875792041+893579682
513+906059992+914444054+920504305+925328440+929691731+934280862+938551240
503+940695482+939513459+935408046+929148183+920496482+907727223+887478376
493+855713002+810638397+755974163+700989238+656837288+632416044+631332895
483+650446511+681314489+714150717+741230172+758589232+767076937+771585299
473+777794048+788522858+802863751+818835365+835061803+850403213+864060405
463+875615304+884614593+891056558+895957512+900517360+904957769+908954622
453+912725933+916996907+922065881+926919074+929762516+930145496+930409856
443+933710937+939989949+945421412+946870106+944940526+942782128+943279406
433+946770635+951266256+954695344+956594300+957795621+959134114+960914152
424+963071955+965586659+968826046+972304832+972755094+967506031+958090009
414+948012266+941387081+940638482+941719842+934220435+911795083+883298378
404+867115156+872798016+893909164+916554841+929943053+933342933+933347031
394+933691564+933039529+928547336+918562805+903633135+886971560+874812164
384+873432615+882693508+896769370+911214205+925280530+939514800+951600581
374+956935927
##END=
