##TITLE=X7356
##JCAMP-DX=5.0
##DATA TYPE=LINK
##BLOCKS=1


$$ === CHEMSPECTRA SPECTRUM ORIG ===
##TITLE=X7356
##JCAMP-DX=5.00
##DATA TYPE=INFRARED SPECTRUM
##DATA CLASS=XYDATA
##ORIGIN=ComPlat
##OWNER=
##XUNITS=1/CM
##YUNITS=TRANSMITTANCE
##XFACTOR=1
##YFACTOR=9.212433e-010
##FIRSTX=3997.453
##LASTX=373.96442
##MAXX=3997.453
##MAXY=0.9891774603685359
##MINX=373.96442
##MINY=0.3732368625153492
##NPOINTS=2559
##XYDATA= (X++(Y..Y))
2559A042115967A042209459A041769239A041230027A040717472A040505514A041156075
2552A042550429A043641145A043660167A042893664A042147606A041954022A042127743
2545A041852120A040628315A039056423A038018179A037519404A037159089A037109723
2538A037746308A038624937A038568325A037089213A035427776A035339848A036907341
2531A038762749A040046595A040639185A039941975A036940855A031847266A027174357
2524A025851238A027338696A027971723A026259043A025259878A028013972A033060395
2517A036861403A037259504A033597601A026558346A019332302A016655978A019816713
2510A024701515A026582997A025032780A023555286A024043902A024134417A021647535
2503A018709174A019834117A026064813A033614293A038557455A039856118A037952443
2496A032329024A021850758A007759115I95316421I89795616I91356574I97792887
2489A007793859A018473601A024975067A023972408A017104803A011777516A013116293
2482A016484198A015262011A009669324A005186311A003294476A002370363A005293778
2475A013930416A021885114A022466381A016144458A008044766A001384008I97958649
2468I99742822A003715028A004287819A001622170A002079730A008606170A016460324
2461A020220701A017335136A005988658I86516286I72404779I80025171I99775431
2454A016961298A026288223A027292176A021567177A011850886A000745288I90214291
2447I83547710I84901174I93147347A002219029A008787072A013628007A017585137
2440A019505375A018738160A016933736A014672333A008785907I98056282I90483056
2433I92865060I99838255A006767196A015728241A026708127A034756317A035952689
2426A029886461A020146749A012958489A009516438A004423236I96162183I92154522
2419I96737626A005003209A013931192A024089515A033990978A040653807A043373286
2412A043321979A041047119A036819931A032914755A031858653A032261671A030784435
2405A028056286A028495212A033057483A037792181A038854235A034990208A028075696
2398A022611892A021216373A022000345A023077798A024145804A023262841A017832228
2391A009721602A005312088A006537122A007712790A002309092I87951466I71250592
2384I65439154I70889241I77197319I80129080I83916825I91975108I99800535A001797895
2376I94991368I80502983I67585907I68761769I84143146A002338078A014348444
2369A017455802A013144438A006216985A002347200A003634346A008707361A015682627
2362A022583229A026830475A025812417A017784026A004029083I92896763I94811566
2355A007889939A022254488A031482162A033576703A030047953A026343153A027451856
2348A032045637A035794109A036315398A032832650A024518478A011546989I98800334
2341I95843793A005211673A018702640A029215196A034038727A032450725A025196148
2334A013478420I97863410I83210751I80210732I87202561I91746910I91310378
2327I95565970A008919902A023617915A033205647A037122275A037608044A036296635
2320A032763033A026582609A020327197A016416069A011085418I97638383I75176537
2313I57646465I62667720I83695227A004506570A018444227A025951523A029692424
2306A031620686A031999182A030493672A027397573A023062593A015997912A003813695
2299I90571566I89390787A001955052A015829368A022872051A020960030A011483001
2292A000689516I96272044I97587981I98818386I98798458A000196952A003013160
2285A005033748A007494944A013558066A021505000A026037509A024730565A020259844
2278A016907338A015628215A014823020A014613586A016835715A020409043A020243475
2271A012421672A000653349I96409208A004333562A016264994A024623486A028176305
2264A029030865A029486225A030633813A032300814A033537559A032746728A027432964
2257A015152021I97605515I85172656I88203473A002059349A015487103A023753398
2250A028433812A031784636A033324113A031576689A027418989A024236320A023967491
2243A023923106A020126239A013189404A008990554A012226406A020963071A029671397
2236A034359964A034438768A032375349A031479704A032720266A034061113A032993495
2229A028953548A023594235A019140401A016775673A016935935A019935502A025123619
2222A030557014A034544812A036778458A037633083A037062168A034637333A030704272
2215A027287065A026669501A028196168A028296582A024961804A020828495A020183434
2208A023414498A027078018A028407479A027544830A026112497A024798047A022848694
2201A019598479A015680428A012293889A009525690A006150085A001465401I96768812
2194I94163011I93858661I93840998I92286640I89215838I85790932I82863829I80559466
2186I78717645I77260207I76070435I74749774I72945544I70960800I69484988I68683870
2178I68065142I67086098I65505989I63340343I60572403I56812738I51690098I45896970
2170I41049241I37821088I35169156I31898042I27768744I22876114I17134616I10792183
2162I04591767H99024054H93964432H89233876H84975436H81281571H77856471H74292718
2154H70592642H67374130H65473949H65175163H65930732H66923040H67598769H67752432
2146H67581365H67613068H68265569H69598588H71502133H73748072H75920964H77683851
2138H79010464H80008336H80800719H81576799H82482343H83557014H84876769H86433715
2130H87909268H88993191H89886183H91143050H92985194H94941794H96224605H96445039
2122H95985344H95700598H96186949H97276954H98299865H98814490H98894201H98780070
2114H98646658H98681402H99034665H99724563I00721464I01905802I02988301I03803136
2106I04564916I05573528I06892377I08453204I10159350I11821693I13294852I14633953
2098I15889202I16910689I17634425I18347551I19352928I20555252I21681489I22721092
2090I23865186I25172972I26476940I27535112I28362304I29461173I31398233I34042790
2082I36584020I38377575I39487637I40405797I41455364I42506549I43222457I43543758
2074I43901680I44984503I47151701I49860441I51956728I52853732I53134336I53774027
2066I55170711I57025925I58727670I59854813I60596536I61539219I62951430I64542279
2058I65879503I66767061I67348975I68071482I69384056I71331597I73481585I75201188
2050I76048243I76209864I76617734I78216606I80951420I83811493I85911533I87130161
2042I87749537I88080219I88545285I89571559I91167649I92855678I94124126I94891470
2034I95519257I96331762I97170083I97641553I97738539I97917047I98594523I99815028
2026A001353987A002950142A004421425A005662245A006588364A007125376A007309837
2019A007396470A007778978A008710920A010087482A011510822A012536709A012901165
2012A012674326A012226471A011902776A011705699A011462685A011279972A011538449
2005A012333873A013260769A013990717A014724611A015732576A016774120A017393495
1998A017577244A017763386A018287523A019102616A020060115A021176905A022392946
1991A023368431A023963738A024606470A025621293A026524637A026616576A025935477
1984A025073606A024463935A024312666A024732635A025470089A025899180A025724619
1977A025440456A025722355A026508333A027061326A026936066A026460455A026169498
1970A026156493A026147500A025943371A025637144A025515508A025776897A026265060
1963A026510597A026153970A025371032A024787178A024858024A025391154A025777932
1956A025593731A024877046A024004499A023403952A023177760A022968066A022440048
1949A021813167A021559737A021706736A021858910A021750667A021414291A020992898
1942A020677937A020643776A020872944A021225042A021728087A022570031A023752104
1935A024917160A025532136A025216528A024068294A022759408A022047253A021991805
1928A021788322A020559730A018266301A015727271A013817967A012797127A012362924
1921A012172446A012126186A012077661A011617577A010619835A009761781A009813218
1914A010524338A010978468A010919073A010929232A011331990A011608066A010931884
1907A008955940A006184894A003587762A001608388I99829974I97897831I96256645
1900I95539055I95681460I96054845I96206373I96315199I97046117I98866134A001449161
1892A003925174A005646265A006562678A007100078A007824268A008925854A009894804
1885A010021423A009265983A008256530A007409604A006546956A005408427A004047651
1878A002741483A001946965A002143265A003209978A004279796A004697048A004775658
1871A005225842A006266675A007656177A009092910A010199154A010463714A009675212
1864A008370467A007481680A007361985A007373372A006679656A005225131A003612413
1857A002209648A000799053I99074081I97102471I95150789I93265877I91314907
1850I89428119I87987439I86921891I85423305I82805405I79345107I75849807I72784376
1842I70270513I68505685I67643490I67489568I67598524I67511308I66874787I65574183
1834I63715281I61348612I58378807I54821459I50969402I47272561I44106585I41535334
1826I39301300I37189291I35311949I33906596I32981576I32271556I31470050I30439634
1818I29114703I27155128I23980223I19376673I13810513I07931269I02059594H96265043
1810H90612637H85177560H80001219H75126898H70640909H66662880H63268771H60464534
1802H58347673H57273584H57743890H60117806H64393907H70157986H76771384H83731316
1794H90831712H97978046I04988573I11576091I17394905I22238687I26374972I30464479
1786I34905696I39454057I43660607I47415937I50849836I53973110I56717241I59184260
1778I61596543I64030371I66369672I68499733I70376686I71902835I72921993I73400386
1770I73447553I73067116I72041488I70218171I67865411I65576706I63756819I62319891
1762I60973933I59543670I57788870I55244146I51649531I47279225I42519554I37437028
1754I32106765I27124783I23497301I22059597I23070473I26292738I31333144I37739372
1746I44830840I51813352I58271081I64340997I70265984I75970667I81176447I85735613
1738I89702836I93207065I96380481I99307325A001950976A004245699A006299284
1731A008331712A010378374A012213078A013594234A014522876A015277604A016205923
1724A017435745A018812630A020102235A021209256A022241224A023401493A024762009
1717A026144265A027231229A027747277A027648480A027294117A027271796A027861667
1710A028799303A029630507A030139956A030413574A030646106A030968378A031438619
1703A032084521A032833168A033493628A033902080A033955199A033586019A032992524
1696A032678534A032920384A033473765A034017893A034458696A034686894A034573474
1689A034260584A034029216A033968204A034085570A034473965A035060020A035462585
1682A035402996A035080918A034925249A035101816A035450680A035787444A036061320
1675A036268038A036362565A036276902A036022047A035770105A035709739A035807502
1668A035860685A035754900A035511563A035199061A034936701A034866307A035028834
1661A035329885A035573157A035577880A035449320A035588491A036149377A036738408
1654A036961818A036961106A037069868A037244170A037156825A036714922A036252833
1647A036191303A036566565A037004326A037143043A036948555A036609590A036305305
1640A036137796A036157594A036365088A036692924A037036223A037317669A037480843
1633A037438271A037149643A036757495A036475273A036354089A036293465A036220807
1626A036127638A036013248A035912769A035919174A036101564A036420730A036754648
1619A037008014A037172029A037248958A037224825A037224825A037497730A038017273
1612A038306289A037982205A037306476A036858104A036827824A036964859A037071744
1605A037165042A037178370A036902294A036315463A035706957A035363982A035350783
1598A035642516A036240670A037053951A037809520A038192028A038133539A037965577
1591A038111088A038543674A038815415A038734863A038641565A038835537A039109736
1584A039087997A038772519A038503754A038468104A038488485A038370924A038171712
1577A037949920A037632759A037373959A037551172A038106559A038416150A038062045
1570A037235629A036259950A035241116A034291705A033688246A033680417A034234833
1563A034975068A035431399A035402413A034992149A034387461A033819523A033608665
1556A033934560A034584797A035094182A035121809A034691358A034165475A033954875
1549A034136812A034375556A034311050A033998483A033856725A034141406A034610095
1542A034802384A034512203A033908356A033432939A033559428A034259355A034786467
1535A034541448A034024234A034254437A035340431A036289648A036236464A035296176
1528A034128078A033176726A032608140A032588536A033186107A034091910A034762011
1521A034918132A034817653A034950482A035435993A035873496A035940913A035899441
1514A036211166A036849757A037249281A036875185A035842310A035004831A035130543
1507A035928362A036374664A036098976A035883977A036574717A037947591A039029831
1500A039363555A039455235A039800152A040050348A039653218A038792187A038002327
1493A037297418A036459227A035863920A036153130A037156436A037920223A037940603
1486A037790046A038321946A039624038A040860136A040989860A039756156A038058810
1479A037167435A037574141A038756085A039836061A040171984A039517671A038085532
1472A036572064A035810801A036120262A037108299A038251746A039325058A040049442
1465A040003505A039389759A039142863A039632967A039996905A039438284A038523811
1458A038429413A039359867A040415645A040822869A040743999A040846031A041454343
1451A042287229A042887453A043071525A042855102A042255525A041511796A041132200
1444A041222716A041158533A040497362A039772008A039801381A040641126A041711397
1437A042563304A043080647A043235346A043065378A042739807A042330642A041671088
1430A040722001A039897979A039689385A040107996A040747299A041216569A041344482
1423A041151999A040743675A040172178A039479821A038868987A038667316A039150303
1416A040513278A042876648A046210132A050315038A054759943A058789408A061765036
1409A063901049A066068765A068751819A071533540A073467882A073741823A072301208
1402A070008750A067921779A066135536A063460829A058988167A054037824A051238310
1395A052000737A055797087A060816078A064979343A067219717A067724573A067074853
1388A065915878A064837196A063925635A062793381A061231388A059558111A058158904
1381A056894339A055264863A053045517A050493546A048103520A046346909A045385657
1374A044833894A044070561A042857496A041393201A039888339A038523681A037654305
1367A037584558A038228648A039196305A039998070A040242702A040064000A040213845
1360A041229962A042608077A043264331A042829158A042084782A041962563A042396184
1353A042543830A042064789A041615705A041932218A042955129A044112098A045074838
1346A045959613A046969066A048151527A049445855A050575909A050905816A049959898
1339A048209240A046693055A045700295A044572052A043083882A042170056A042707392
1332A044202355A045343214A045507876A045027348A044181457A042862414A041355157
1325A040628574A041364151A043022611A044407390A045084543A045644264A046553108
1318A047557967A048354427A049050925A049844991A050771110A051510310A051250474
1311A049609676A047768631A047377324A048346145A049043937A048585277A047606104
1304A046936004A046856164A047555379A049111290A050971422A052313951A052937402
1297A053165406A053092942A052796227A052973182A054167742A055568243A055910442
1290A055565784A056200946A058162528A059694370A059141959A056726830A053752172
1283A051156335A049331659A048602617A049228915A050894234A052450986A052744078
1276A051999443A051890229A053776047A057189501A060211519A061031400A059239657
1269A056277293A054587323A055462458A057489969A058016564A056397117A054426219
1262A053354913A052626971A052419671A054344632A058074082A060509140A059282812
1255A055131193A050688746A048469335A049499039A052268402A053682037A052305605
1248A049774079A048493274A049206270A050916426A052018724A051419535A049280999
1241A046787582A045102335A044644969A045151054A046082155A046904172A047188982
1234A046770436A045828466A044652733A043415148A042362798A041940047A042401230
1227A043479265A044547143A044999203A044740855A044487295A045102270A046442988
1220A047465381A047629267A047442348A047337210A046932769A045987175A045267968
1213A045641741A046785253A047622409A047832361A048065541A048730271A049439644
1206A049735389A049636527A049435568A049524466A050238950A051254485A051515745
1199A050410600A048518960A046732263A045333962A044370964A044197503A045124851
1192A046875186A048656124A049738300A050032233A050152899A050795825A052003649
1185A053095659A053406673A053175693A053272679A053742208A053745055A053368371
1178A053800245A055091726A055793011A055545792A055543721A055715889A054420137
1171A051907504A050839757A052445228A054900213A056091991A055979025A055684186
1164A055571672A054890185A053309817A051978610A051719227A051326302A049800542
1157A048793483A050472130A054052058A056603640A056591736A054645100A051777328
1150A048732146A046506265A045972553A046603445A046336427A043698405A040026344
1143A038506407A040354310A043457785A045438970A045889737A045341597A044225582
1136A043312662A043279471A043448274A042770992A042145665A043537043A046906824
1129A049635103A048857148A044384098A039645713A038616850A041374503A044631318
1122A046075879A045900283A044901247A043122573A040425868A037402944A035365534
1115A035208830A036184122A036327821A034352523A030673086A026787385A024573343
1108A025480829A029064380A033356075A036927268A039175730A039644354A038621444
1101A037580611A037830936A039222832A040293621A039077515A034698863A029201868
1094A026172151A026353958A027531761A028906382A031967091A036570188A039851459
1087A039701290A037261574A035732449A036821807A039232537A040901803A041232486
1080A040791165A040080369A039109024A037742362A036342637A035751859A035805755
1073A034620576A031149021A027694223A027479548A030021814A032314595A032955192
1066A032469229A031572355A030831990A030737657A031059541A031006551A029760942
1059A026014929A018430122A008684005A003140166A006462975A015134293A022801528
1052A026502510A026928755A026447709A026950882A028657415A030574418A031854771
1045A032250736A031294338A028109469A022458746A015158426A008050784A004952743
1038A009104944A017605906A024695239A028019407A029047170A029895195A030111682
1031A027188656A020251628A012952019A010403348A012211525A014839778A018052467
1024A023274034A029064056A032502355A032831680A031740381A030702137A029048593
1017A025499074A020929815A018320197A019264108A022091508A023838543A022211980
1010A016796248A010153217A006344768A006532593A007922548A007267717A002939143
1003I96173764I92926719I98277686A008055895A014892120A016098391A013555349
996A009860319A006080015A003462373A003363058A004215484A002202207I95005602
989I84309491I76624851I77506521I84576573I92735206I98914401A000748005
982I96854734I89528987I83726283I80542967I77581315I74491814I71057786
975I63527456I47949067I26185918I07126463H96591908H90521798H82886590
968H71811918H57886295H41480002H24133937H08176728G91629905G69307229
961G43205349G25795231G19999256G18716963G17664678G14951927G09684747
954G02909858F96276273F89206933F79457645F67820017F62881449F71603556
947F87471738G01686829G10144701G11097282G03606808F87805138F67094792
940F47062763F28016506F04701717E77898356E59415380E54905386E61631686
933E75367737E90845129F06576600F24690009F44741254F63277091F82416645
926G12479861G53793087G92066567H22652885H47038074H65651875H79747206
919H91183292H99004321I02161432I05400520I16096113I31621254I42857353
912I46475390I46282389I48956773I55231271I59483240I57211162I46570887
905I28715503I16986647I23960748I32772207I32008485I26982896I30395056
898I43122430I53679953I56211026I50322141I36096051I12571439H81866785
891H54127601H32801761H08990980G77225242G41432239G12673833F99562139
884G03518945G23217186G52149960G78964772G98415858H14264307H33478267
877H55521373H73163311H83136397H86318613H85006881H81267661H75290525
870H65533408H50690337H30822193H06688752G79548433G52597298G31435473
863G21591205G24887423G38850959G59845857G85027118H11315530H35122623
856H54437774H70129647H84019944H95882341I03547246I06568294I10208716
849I20944101I33764126I39664268I37118509I31831401I30089477I29574592
842I24604127I13727309H96874066H69020556H24242116G84732668G78412685
835G86545762G94187052H00839205H09623684H22978650H38642315H50391292
828H54817758H53878699H51567219H54611558H74774994I05914692I28151317
821I36846056I38400802I42567626I51260230I56720734I54175557I46324897
814I38539455I31353331I22918363I16763755I16514723I18235296I19736859
807I23722781I28551747I27124007I14518980H90204961H55496787H18919682
800G99873749G93917511G81379902G55351327G17176256F72440453F30862151
793F02792672E89424248E85308214E90788387F15043206F63919046G25229040
786G81573679H25720775H57923886H80751871H95700598I02395712I00573689
779H91794646H80388773H74220254H79138118H88892323H92205427H82741791
772H58530515H23254855G85578623G49291116G10807490F66207687F22234765
765F00711136F04777092F17676052F31591193F46311269F64184511F87915323
758G16570339G46032037G74180256H00412054H22389813H37831686H48509163
751H60123305H74685384H87364621H95041626H99597880I04409506I09184706
744I10429668I06930939I01078221H94241155H84302425H71949212H65777522
737H70203082H78080527H82610126H83016573H81949019H81236281H80215118
730H78580920H79139929H84410086H91546261H95735083H96003654H95061554
723H95558969H98997268I06077996I14407178I19482199I19285057I16431260
716I16167671I19859531I22861944I20686270I12962746I02127012H90189239
709H77466652H64823453H55659573H52556873H53357021H54886405H56924074
702H59740215H61547551H61688404H63744383H71017140H80228381H85256300
695H83550026H76687597H67516664H57073078H44052353H26915659H05687387
688G82130101G59234958G40131830G26816071G20819137G24584043G39034255
681G59870638G80450160G97123213H09739820H19521394H27526752H34243411
674H39861073H44503831H47993696H49627636H48776181H45970585H42801957
667H40044174H36491226H30473718H21626804H10492155G97501580G83593426
660G71259947G63529370G61535504G63594394G66633234G68250675G67807155
653G66212036G64975744G65367956G68132467G73485699G81098456G90193884
646G99595861H07535419H11963955H11701143H07139324G99749265G91339207
639G83764752G78548038G76308893G76711781G78927505G81866319G84115492
632G84169129G80938841G73837862G62393946G46289414G26036304G03140126
625F79319057F55968360F34366897F15706318F00765808E89978858E83868052
618E83104913E88019153E98053251F11662296F26783967F41620698F55248440
611F67591043F78746202F88347067F95641176G00038397G01323408F99256236
604F93129837F82107702F66458206F48596611F32633125F22508253F20080441
597F24398922F32628661F42048043F51518149F61308004F71891472F83160180
590F94516816G05174042G14231426G20786917G24165950G24058419G20562083
583G14130429G05282609F94307316F81356338F66737582F50934488F34399959
576F17480463F00532111E84009939E68390788E54094628E41636536E31823486
569E25601104E23702055E26522758E34068421E45619934E59481115E73341649
562E85110361E93704038E99437966F03796431F08621256F15229219F24064228
555F34988666F47759002F62165411F77696764F92979862G05471922G11909270
548G09448074F96693590F74026773F43464136F08340069E72743172E40901865
541E16792007E03595815E02608198E12297250E28726836E47284606E64291188
534E77556480E86234527E90434089E90627348E87241004E81035347E73860092
527E68459888E66984788E69522913E74061375E78039079E80502993E83223896
520E89514116F01452925F17937764F35148799F48704984F55589540F54739832
513F46685948F33091915F16414786E99423667E84634296E73937344E68471923
506E68681292E74466592E85285375F00161638F17712349F36246891F54049222
499F69991485F84184061F97908013G12630225G28896960G46013533G62569543
492G77167789G88838997G97167209H02278009H04663959H04889892H03376101
485H00350201G95987983G90651897G84866080G78983988G73084040G67241610
478G61552843G55688480G48632468G39182548G27032947G13590829G01605566
471F93670666F90743175F91624392F93490800F93195443F88849465F80732369
464F70752360F60969751F52593079F46118980F41961215F40676074F42770809
457F48586970F58324353F71929192F88872174G08075329G28092089G47445348
450G64950899G79791706G91355318G99248097H03709436H05988760H08053409
443H11620074H17293765H24560635H32470431H40260726H47546941H54251955
436H60512283H66575664H72544713H78081822H82548078H85597982H87485417
429H88768099H89983816H91564895H93671017H96006565H97954754H98884302
422H98299476H95804312H90967389H83269550H72270772H57708564H39116438
415H15206536G83863097G43364511F94517398F42478493E96839993E68972961
408E66859205E90244905F30253710F74351504G12559378G40279411G57316079
401G65680717G67975634G66588073G63554668G60849358G60508582G64141111
394G72251672G84284877G99343401H16501576H34449740H51501483H66309746
387H78332471H87569786H94177878H98368123I00471786I01049430I00870987
380I00631790I00738092I01486480I03276929I06396579I10665500I15461404
373I19997277I23438876I24890167I23588593I19394142I13238757I07019578
366I02823963I02027244I04817571I10187365I16330263I21476842I24715218
359I26135776I26406158I26295844I26278698I26364038I26387459I26309560
352I25930676I24538133I21304093I15976935I08857064I00285255H90584557
345H80367746H70282210H60224626H49143290H35883950H20264929H03378559
338G86863958G71811128G58325467G45919458G33914462G21575483G08468836
331F94869044F81585118F69501705F59487858F52430746F48968766F49244454
324F53076001F60236827F70301076F82111001F93551359G02149306G06169325
317G05266175G00152205F91702421F80380853F66318130F49541946F29956801
310F07433683E82243753E55248297E27514354E00045358D74100537D51425148
303D33825135D22758001D19594872D25865099D42650407D69614774E04749290
296E45066100E87402495F28779127F66738294F99734565G26959576G47848948
289G62040359G69463351G70090037G63947851G51622653G34337601G13482779
282F90699761F68446832F49569961F35794184F27015593F22487096F22478361
275F28178127F39770336F54925780F69446968F79523251F83718478F83363533
268F81535363F81696079F86593303F97317559G12769654G30282709G47363956
261G63115677G77976282G92501805H06862990H21078405H35015997H48199249
254H59879321H69191429H75243876H77412757H75853482H71787138H67128981
247H63663637H62401982H63351199H65614219H67922076H69415422H69935159
240H69415357H66879497H59884303H44853795H18361901G78968396G28430989
233F71295130F13880802E63986127E29904251E17575527E27775031E55772175
226E94089587F35983173F76744183G13323876G43996568G68209202G86321705
219G99285494H08304058H14555458H19086544H22708527H25656528H27508765
212H28000422H27797975H27960567H28649430H28633255H27541568H26479708
205H26043564H26195157H27020796H28896844H31744430H34687320H36986507
198H38910885H41224048H44068722H46758957H48636816H49761695H50536091
191H51024966H51062234H50760278H50386310H49865797H48963423H47838480
184H46884411H46256948H46064336H46637127H48267443H51084426H55028033
177H59194663H61548910H60174289H54559410H45314395H33347378H19529481
170H04355662G87756303G69588222G50041380G29456552G08671024F90174525
163F77955112F74891557F80053534F88981841F97005704G02105763G04705418
156G06084568G07445020G09021376G09438951G06996129G01575933F94498570
149F87180846F80831490F76382573F73373495F69737149F63724169F55803568
142F48666940F45596397F48577589F57373519F70001967F83912385F96729369
135G06844990G14137740G19723569G24683746G29295643G33305439G36432336
128G38552562G39679187G39809234G38655241G35851651G31918072G28552561
121G27142743G27426000G28416043G29859699G31840302G33746888G34672619
114G34423782G33391231G31652801G28777459G24651331G20380405G17789097
107G17221611G16687705G13903072G08343382G01659591F96368924F93403584
100F91264077F87935703F82789318F76555387F70371858F65075886F60545706
93F55855134F51049008F48002080F48125205F50319319F52261425F52328455
86F50275387F47069103F43885723F40753326F36153982F27495216F11691670
79E86578861E52642884E12953019D72194048D36707012D13202781D05144724
72D11898456D30856366D56950482D83193635E05832437E25410950E43048682
65E58808168E72204931E82042858E87107009E88894482E92258506E99937969
58F09147851F17209887F24816239F32476486F38236358F40762449F41271834
51F41011674F39710424F36824017F31162813F20511151F05091794E90296471
44E82955973E85088750E93782325F04960065F15079567F21641205F24268163
37F25137087F26711502F28876048F31809103F41830520F64152226F88784441
30G05074986G13231354G17902063G22315589G26387303G28812850G29507342
23G29102965G27249886G22530523G14055570G03938332F99252807G05896808
16G18638805G28536709G32682505G33328990G33319220G32476823G29623414
9G28640941G36355601G50569916G62329569G67992650G67666755G58930996
2G41879900G27684090
##END=


$$ === CHEMSPECTRA PEAK TABLE EDIT ===
##TITLE=X7356
##JCAMP-DX=5.00
##DATA TYPE=INFRAREDPEAKTABLE
##DATA CLASS=PEAKTABLE
##$CSTHRESHOLD=0.93
##MAXX=3997.453
##MAXY=0.9891774603685359
##MINX=373.96442
##MINY=0.3732368625153492
##$CSSOLVENTNAME=- - -
##$CSSOLVENTVALUE=0
##$CSSOLVENTX=0
##NPOINTS=32
##PEAKTABLE= (XY..XY)
434.8752913604376, 0.537044284321231
475.95471623143067, 0.3732368625153492
501.45229028928816, 0.596967574586064
572.2788848944483, 0.5947513552403901
602.0260546286158, 0.6217393251128182
696.9336913995307, 0.47681298649271914
752.1784351915558, 0.6278598868768179
763.5106903283813, 0.5734540194662313
798.9239876309616, 0.3865489645443576
834.3372849335415, 0.5978581275867678
930.661453596585, 0.7114316787437976
950.4929000860043, 0.5222152446495765
1022.7360265832681, 0.5902185406428042
1034.0682817201182, 0.6386016574542819
1090.7295574042219, 0.5237009503018659
1117.6436633541825, 0.5223309371469205
1136.0585779515245, 0.4630244349325734
1177.1380028225171, 0.48245700936498154
1219.6339595856134, 0.5712449517322953
1247.9645974276777, 0.537181494298333
1296.126681759209, 0.7047287788225153
1341.4557023065113, 0.6640498004730321
1456.194785566849, 0.5534011092753888
1493.0246147615321, 0.5392112705824662
1558.1850817983, 0.7229297126861244
1592.1818472087766, 0.6806614956773247
1624.76208072715, 0.6481121145043185
1697.0052072243939, 0.5112028689864139
1716.8366537138386, 0.6106750935855417
2847.2291036122065, 0.8638861136012076
2926.5548895699853, 0.7926971868351222
3412.425328561381, 0.7992535197111045
##END=


$$ === CHEMSPECTRA PEAK TABLE AUTO ===
##TITLE=X7356
##JCAMP-DX=5.00
##DATA TYPE=INFRAREDPEAKTABLE
##DATA CLASS=PEAKTABLE
##$CSTHRESHOLD=0.93
##MAXX=3997.453
##MAXY=0.9891774603685359
##MINX=373.96442
##MINY=0.3732368625153492
##NPOINTS=79
##PEAKTABLE= (XY..XY)
3902.545363229085, 0.9118425796093729
3869.9651297107116, 0.9193627190683017
3852.966747005473, 0.8958213875417307
3838.801428084441, 0.906086738067843
3820.3865134870994, 0.9124758791035248
3800.555066997654, 0.9140157059572026
3749.5599188819388, 0.8894043521801682
3735.394599960907, 0.8913820339981732
3711.3135577951525, 0.914699490505438
3688.649047521501, 0.917414422147837
3674.483728600469, 0.9030125694430956
3670.2341329241594, 0.9132380439529675
3648.9861545426115, 0.8822253896499346
3627.738176161063, 0.9114696336054772
3617.822452916341, 0.9178089455123052
3586.6587512900705, 0.9179353069283064
3566.8273048006254, 0.9075837086832048
3419.507988021892, 0.7970368222401579
3412.425328561376, 0.7992535197111045
3377.012031258796, 0.8251581747134934
3367.0963080140737, 0.8278722127498914
3063.9584831039874, 0.9171336843070815
2977.5500376856917, 0.8912932823398945
2923.7218257857703, 0.7897575455269872
2852.8952311806097, 0.8494412259369502
1791.9128439953088, 0.9147270872697327
1772.0813975058636, 0.8997091005972483
1716.8366537138386, 0.6106750935855417
1697.0052072243939, 0.5112028689864139
1663.0084418139168, 0.8717563107742438
1653.0927185691944, 0.8447678047382151
1647.4265910007816, 0.8539767821545968
1626.1786126192337, 0.6444669334874187
1595.014910992963, 0.6647610629451766
1556.7685499061763, 0.7171074706912606
1542.6032309851444, 0.7845005950033828
1519.9387207114933, 0.8443330479151059
1493.0246147615321, 0.5392112705824662
1473.1931682720874, 0.8053695517217982
1456.194785566849, 0.5534011092753888
1417.9484244800624, 0.7975917414331026
1406.6161693432368, 0.809386786057836
1398.1169779906177, 0.8245694597100882
1386.7847228537917, 0.8440133285853544
1372.6194039327597, 0.7854123071202009
1341.455702306489, 0.6640498004730321
1304.625873111806, 0.7015594807721233
1296.1266817591868, 0.7047287788225153
1274.8787033776384, 0.715169366406667
1247.9645974276777, 0.537181494298333
1219.6339595856134, 0.5712449517322953
1177.1380028225171, 0.48245700936498154
1136.0585779515245, 0.4630244349325734
1117.6436633541825, 0.5223309371469205
1090.7295574042219, 0.5237009503018659
1038.3178773964032, 0.6363425219894775
1022.7360265832681, 0.5902185406428042
950.4929000860043, 0.5222152446495765
933.494517380766, 0.7006134357600007
910.8300071071149, 0.829701002304507
889.5820287255665, 0.8309865549524652
876.8332416966377, 0.8533280444652235
834.3372849335415, 0.5978581275867678
798.9239876309616, 0.3865489645443576
763.5106903283813, 0.5734540194662313
752.1784351915558, 0.6278598868768179
721.014733565285, 0.7944820478242206
696.9336913995307, 0.47681298649271914
671.4361173416728, 0.7626033382223175
662.9369259890536, 0.7609870988431212
630.3566924706797, 0.7794311009089488
602.0260546286158, 0.6217393251128182
572.2788848944483, 0.5947513552403901
543.9482470523844, 0.6698753801323719
501.45229028928816, 0.596967574586064
475.95471623143067, 0.3732368625153492
434.8752913604376, 0.537044284321231
398.0454621657541, 0.6441819634549432
385.29667513682534, 0.6712555850019454
##END=

##END=

