##TITLE=LSH-R464A
##JCAMP-DX=4.24
##DATA TYPE=INFRARED SPECTRUM
##DATE=27/9/2021
##SAMPLING PROCEDURE=Diamant-ATR
##ORIGIN=Angelika Moesle
##XUNITS=1/CM
##YUNITS=TRANSMITTANCE
##RESOLUTION=4
##FIRSTX=3997.453
##LASTX=373.96442
##DELTAX=-1.4165319
##MAXY=0.88470161
##MINY=0.39278036
##XFACTOR=1
##YFACTOR=8.2394258e-010
##NPOINTS=2559
##FIRSTY=0.77099013
##XYDATA=(X++(Y..Y))
3997+935732842+936308747+937004810+937173147+936639272+935855676+935393491
3988+935413457+935656378+935831225+935864357+935846344+935915936+936176363
3978+936534305+936704089+936570476+936399028+936456539+936668063+936828009
3968+936835170+936660323+936393747+936273517+936371972+936386368+936017358
3958+935372802+934818961+934648743+934948306+935573186+936157771+936268597
3948+935773714+935050885+934589640+934532419+934678330+934751828+934640134
3938+934419640+934267001+934372763+934833357+935455994+935712876+935337933
3928+934839216+934910833+935642199+936528084+937173870+937573553+937691468
3918+937404203+936835604+936305636+935996524+935946247+936081886+936171082
3908+936040796+935852927+935977137+936505586+936871124+936351717+935084307
3898+934073200+934023719+934612211+935074468+934988527+934629139+934610692
3888+935122937+936021554+937037652+937734656+937972006+938009985+937973887
3878+937777337+937422143+936923860+936171878+935123732+934041948+933527244
3869+934149519+935696599+937332947+938208777+938014108+937414475+937119831
3859+937171700+937477122+938142730+938907517+938550443+937231236+936870111
3849+937697979+938958372+940003841+940445554+940136442+939272476+938358016
3839+937930048+938249433+939084607+939975773+940588716+940696432+940264485
3829+939561116+938937972+938577064+938413140+938170871+937493761+936478675
3819+935915502+936101056+936622272+937095670+937458531+937781677+938200675
3809+938917717+939860462+940428915+940267668+939767359+939321523+939063990
3799+939049883+939087645+938875325+938525196+938535034+939082654+939824436
3789+940305864+940342541+940024675+939560898+939252365+939338740+939694078
3779+939817925+939420557+938901006+938759507+939092203+939777559+940586112
3769+941109208+941088374+940700917+940125808+939404570+938815137+938802405
3759+939450506+940199089+940454162+940224770+939760776+939304378+939159263
3750+939264518+939177203+938926759+938667418+938265854+937889899+938061419
3740+938854057+939879198+940652593+940807113+940267379+939504907+939147688
3730+939283906+939644814+940131812+940816011+941466716+941589551+941125629
3720+940546252+940259493+940396434+941052204+942277367+943704361+944334087
3710+943673182+942688624+942170592+942053906+942078502+942047323+941800714
3700+941417886+941226255+941342724+941508746+941451308+941258519+941299537
3690+941794492+942368950+942418431+942113660+942080528+942573313+943299976
3680+943857434+944258419+944701072+944973652+944987252+945409071+946253071
3670+946444919+945317777+943891796+943091418+942830846+942935668+943364866
3660+943925796+944305151+944291406+944000380+944116269+945389467+947859470
3650+950375121+950468875+947658001+944933648+943688591+943454713+943600407
3640+943778655+944005733+944374454+944654340+944501412+944021141+943694089
3631+943700599+943692425+943457100+943497032+944155116+945313582+946733776
3621+947995543+948370558+947533792+946362595+945810129+945852159+945790235
3611+945122530+944035609+943128456+942856455+943116014+943509692+943784515
3601+943906988+943947137+943964933+944027218+944199172+944456560+944771170
3591+945246739+945945117+946552490+946473349+945694673+944839822+944265725
3581+943956830+943840723+943924639+944199172+944538884+944828175+945098006
3571+945428242+945745384+945710949+944925763+943669059+942825421+942788310
3561+943334338+943988950+944289960+944080388+943622761+943379985+943662042
3551+944406790+945238130+945692647+945476493+944840184+944499603+944713153
3541+945027836+945016840+944675102+944263266+944098980+944358394+944859571
3531+945163474+945061691+944936252+945312714+945985627+946158015+945598170
3521+945058797+945282909+946093270+946705273+946635899+946170603+945974487
3512+946386974+947128829+947614018+947551733+947146914+946727699+946439349
3502+946318684+946436600+946774865+947069075+946971994+946417285+945762673
3492+945469621+945630868+945883048+945897878+945880733+946265224+946992177
3482+947466515+947335651+946975322+946887789+947024586+947026249+946784631
3472+946449259+946166624+946122351+946493532+947111612+947515418+947454217
3462+947077539+946703537+946636260+947045709+947794002+948461056+948655581
3452+948325200+947794291+947481056+947522869+947709219+947812594+947818019
3442+947764632+947629861+947442643+947342523+947434179+947613222+947590652
3432+947182940+946568477+946106581+945936942+945923125+945902508+945795805
3422+945585149+945328701+945056482+944628008+943915958+943073188+942392099
3412+941984893+941698785+941224013+940305213+939009589+937688502+936539080
3403+935407959+934107417+932694457+931375757+930264024+929212695+927884808
3393+926125480+924253446+922832962+922148546+921973120+921796391+921263602
3383+920424666+919550934+918754028+917835083+916508643+914735715+912727246
3373+910649691+908529166+906415513+904375503+902370072+900316173+898123090
3363+895598180+892593867+889242536+885745439+882060327+878112908+874072893
3353+870040546+865666244+860398606+853978145+846489066+838108894+829033237
3343+819485846+809561705+799193102+788437186+777632946+767216743+757638029
3333+749463810+743248725+739171816+736920426+735982311+736066950+737209790
3323+739463060+742682948+746730197+751585059+757076881+762758019+768218156
3313+773348202+778245528+783002151+787621761+792059795+796274224+800213975
3303+803788766+806914611+809637518+812235926+815100187+818361815+821717704
3293+824785532+827521243+830122183+832671110+835069713+837276758+839476713
3284+841896874+844445801+846751518+848672383+850461515+852307145+854102716
3274+855790860+857493255+859172646+860621994+861858442+863111963+864399991
3264+865531690+866537805+867693594+869108941+870633668+872140381+873648108
3254+875263550+877103320+879068747+880731572+881778632+882486270+883392121
3244+884601225+885795137+886795320+887686414+888471311+889016905+889397201
3234+889952706+890874906+891981286+893024512+894005164+895036671+896071433
3224+896914999+897472240+897926034+898596343+899577067+900645034+901575264
3214+902303953+902761870+902863726+902727508+902657482+902849257+903226442
3204+903576644+903825786+904167162+904777501+905420972+905643782+905424734
3194+905255456+905482389+905940885+906336444+906686718+907261321+908206236
3184+909297280+910104965+910466379+910671899+911044310+911506133+911783922
3174+911851922+911880424+911917391+911894820+911840926+911902271+912204873
3165+912749382+913392998+913936928+914246257+914217465+913715782+912723122
3155+911494559+910358519+909376131+908392297+907425535+906810855+906861349
3145+907504531+908349544+909059062+909612179+910265200+911244332+912444538
3135+913518581+914277074+914824549+915300913+915716077+916067074+916428272
3125+916885610+917357561+917487703+917007794+916264348+915917040+916059696
3115+916204522+916126683+916039730+915972959+915664787+915066601+914472684
3105+914177895+914216091+914378568+914461182+914478471+914431884+913987277
3095+912832212+911277753+910024377+909368463+909038951+908749950+908605341
3085+908905916+909662384+910375953+910368213+909361519+907700791+905996949
3075+904584134+903251472+901435140+898755276+895449592+892255747+889864088
3065+888515873+888127693+888665546+890197435+892579327+895329434+897942817
3055+900238479+902329778+904331013+906143078+907506412+908230254+908344263
3046+908064883+907718804+907654855+908051644+908763188+909433425+909774367
3036+909772921+909729588+910051939+910854994+911778641+912349048+912477380
3026+912450687+912491415+912508487+912300507+911818935+911165553+910462473
3016+909779359+909157156+908701988+908572425+908757980+908988674+909061521
3006+909128509+909494264+910179403+910799219+910937462+910684197+910658082
2996+911328175+912480129+913543105+914214500+914526650+914549582+914296462
2986+913811706+913191167+912528598+911910735+911453180+911240498+911180889
2976+911049012+910741708+910319600+909769087+908981151+908013376+907097903
2966+906339049+905655935+905058979+904700241+904608802+904644972+904742777
2956+904914804+905044583+904960161+904636002+904095761+903332349+902512294
2946+901957513+901761324+901752282+901887270+902310391+903003633+903716406
2936+904264388+904611696+904667036+904267498+903446503+902535443+901901087
2927+901657443+901671839+901749027+901760456+901692022+901666558+901898700
2917+902511064+903323885+903949995+904218596+904348954+904507091+904421367
2907+903790773+902916028+902481260+902724759+903224995+903583444+903958748
2897+904761369+906115371+907781307+909366944+910491120+910987233+911063552
2887+911128948+911439724+911989804+912656858+913311687+913803676+913920724
2877+913461577+912455823+911260175+910286902+909671788+909318114+909154552
2867+909143484+909096462+908677320+907634455+906024800+904229375+902703635
2857+901626915+900864733+900318054+900109134+900341998+900919929+901719294
2847+902730184+903942182+905270720+906623276+907916584+909091832+910194450
2837+911303217+912332916+913102477+913616675+914066997+914561012+915046708
2827+915446463+915694519+915767077+915823648+916145781+916790048+917471498
2817+917901202+918085310+918211472+918368669+918491937+918546120+918680240
2808+919125208+919927757+920821455+921388679+921432879+921249495+921390270
2798+922044448+922836145+923355842+923570911+923560349+923276918+922829707
2788+922589680+922732553+922996525+923078342+923001372+922971857+923090206
2778+923278654+923354539+923158279+922672800+922008567+921331096+920833174
2768+920650658+920719671+920848727+920921647+920886706+920676773+920363972
2758+920231878+920492304+921098592+921905843+922760694+923424565+923717401
2748+923745469+923756392+923840018+923961044+924168807+924579124+925198578
2738+925894062+926508670+926954289+927202562+927244665+927143822+927130728
2728+927508708+928315380+929152218+929534973+929412645+929173848+929145057
2718+929283662+929376620+929311006+929081469+928738502+928419840+928306265
2708+928472288+928813591+929116193+929203219+929076188+928944456+929062733
2698+929491641+930022261+930358790+930392501+930283266+930258888+930374633
2689+930474029+930345769+929923516+929370254+928937583+928723382+928635488
2679+928592518+928654803+928931073+929447513+930115653+930759413+931187092
2669+931318825+931240769+931086828+930921818+930799635+930842822+931141373
2659+931632784+932148501+932506371+932562724+932312425+931959402+931773125
2649+931874040+932192629+932570899+932851292+932912854+932705380+932326893
2639+932028343+931995283+932144667+932282114+932361038+932420213+932404081
2629+932214982+931859427+931484051+931311012+931477251+931939870+932607503
2619+933425750+934218749+934672905+934658654+934406329+934262515+934384627
2609+934683466+934945919+934999162+934803841+934437001+934047446+933848582
2599+934045855+934634853+935322742+935815961+936126376+936386658+936521428
2589+936416173+936236334+936232355+936404960+936634569+936915252+937255036
2580+937562051+937760843+937894384+938076538+938403663+938821793+939084969
2570+939018126+938820129+938886972+939342429+939968466+940537788+940963948
2560+941198332+941243328+941199779+941157749+941145957+941187047+941218660
2550+941056689+940612661+939982211+939250846+938470940+937853801+937705792
2540+938123126+938858253+939492392+939712452+939457596+938808554+937873405
2530+936881830+936224976+936184031+936658442+937300756+937895686+938451553
2520+938934861+939226539+939426417+939799985+940308179+940693610+941029344
2510+941565751+942146285+942415031+942399189+942357665+942352601+942341533
2500+942370108+942507700+942912808+943885430+945426795+946822104+947109948
2490+946023968+944208649+942482236+941225532+940537571+940503716+941005182
2480+941633317+942126319+942609194+943161227+943471424+943261780+942828965
2470+942798293+943362840+944080171+944485207+944576718+944540620+944358466
2461+943982656+943621531+943534505+943719914+944033222+944456054+944999116
2451+945434752+945402633+944823328+944023095+943392066+943054452+942881846
2441+942689058+942376184+941957910+941467006+940892041+940307600+939957977
2431+940051948+940560865+941306915+942100711+942786718+943333759+943830740
2421+944249883+944370113+944070478+943506292+942942323+942621998+942737020
2411+943275236+943998354+944774715+945740247+946918823+947881679+948075914
2401+947456026+946576579+945975789+945617992+945138372+944514650+944157287
2391+944327143+944796851+945166585+945258675+945143074+944985227+944946163
2381+945149223+945685486+946564281+947552167+948169017+948081050+947518167
2371+947115518+947275753+947783006+948138634+948262770+948605449+949399172
2361+950234997+950641552+950504177+949706547+948182400+946466332+945387080
2351+945203117+945608949+946320565+947240161+948266966+949168839+949630300
2342+949442431+948715407+947848041+947064301+946071641+944509225+942712569
2332+941676215+942026489+943204993+944130521+944450050+944614336+945026389
2322+945664651+946479353+947613005+949041736+950331789+950893153+950457445
2312+949393746+948468797+948180808+948515891+949307299+950379389+951312657
2302+951624012+951336168+950975694+951009260+951592833+952638013+953684567
2292+953991581+953263616+952096904+951338845+951203712+951276704+951179261
2282+950979094+950995226+951352228+951856515+952294611+952568132+952452965
2272+951673131+950387853+949145545+948265375+947773096+947885079+948916876
2262+950674467+952381203+953316497+953383050+953016789+952575800+952042214
2252+951456109+951113576+950922524+950184358+948648057+947231842+947008164
2242+947878207+948939518+949860778+951082107+952675268+953858546+953949768
2232+953221730+952570012+952834418+954447255+957125600+959741153+960964653
2223+960402710+959121410+958782710+959939150+961379672+961646175+960886525
2213+960374569+960440616+959932495+957913464+955117348+953232220+953137164
2203+954279136+955578882+956445959+956837250+956830450+956549334+956295924
2193+956288256+956245358+955682764+954800568+954638524+955994769+958507816
2183+961131615+963084310+964101132+964388903+964549645+964956345+965310380
2173+965335627+965399649+965672301+965296636+963301332+960063866+957286631
2163+956700164+959013622+963515895+968148815+970609993+970164374+968103819
2153+966315338+965554458+965160346+964336890+963283247+962806738+963125400
2143+963510686+963184719+962239587+961368314+960931014+960759856+960755877
2133+961055875+961462357+961384302+960752622+960361259+960762316+961407812
2123+961572532+961530285+962065607+963295762+964497849+964789310+963797011
2113+961936262+960022487+958635569+958105601+958695974+960142211+961366000
2104+961379455+960352867+959391386+959388637+960309752+961481745+962377324
2094+962985565+963466342+963692334+963323830+962349328+961340319+960939695
2084+961244829+961902551+962605559+963231306+963662096+963705573+963247221
2074+962578359+962404162+963104276+964142873+964687165+964578509+964192281
2064+963659491+962880815+962198425+962366906+963630989+965230154+966053031
2054+965622675+964554057+964225775+965536807+967631145+968750980+968785631
2044+969177863+970127914+970220438+969062624+968149756+968543941+969314442
2034+968896674+967208168+965787034+966079797+968051228+970419303+971976438
2024+972500764+972441879+972211473+971945187+971609743+971215268+971046714
2014+971393588+972044728+972694999+973632101+975097581+976306467+976210399
2004+974920780+973497403+972806476+972991017+973550501+973884643+973888694
1994+973722166+973181925+971872846+969925360+968117636+967571825+969210271
1985+972612892+975652073+976415557+975464855+975167462+976775236+979191562
1975+980671510+980395602+978582742+976532605+976042062+977492277+978971719
1965+978571529+976737546+975197411+974762643+974992036+975340139+975848333
1955+976770461+978012914+979007383+979025395+977784245+975875172+974379020
1945+973887971+974028384+973925371+972902111+970620121+967048657+962877560
1935+959523046+958112111+958583701+959892346+960930725+961423149+962035513
1925+963420478+965316529+967022614+968533306+970225936+971750156+972368742
1915+972201852+972037060+972391746+973312210+974444995+975254488+975520774
1905+975396203+974953189+974153751+973204278+972447015+971893970+971197907
1895+970106140+968806176+967676141+966832503+966243504+966198146+967159700
1885+969091126+971336801+973175125+974398697+975287114+976186020+977231489
1875+978274860+979054404+979587556+980274070+981408807+982512365+982729605
1866+982152253+981549148+981307964+981325326+981438105+981656502+982003086
1856+982329416+982353505+981828166+980667025+978927301+976744563+974286930
1846+971726428+969491315+968371408+968702584+970145999+972294593+974684370
1836+976650737+977765870+978276451+978832752+979848416+981065116+981975235
1826+982436191+982492906+982211138+981728264+981143244+980423887+979472606
1816+978232613+976740946+975209347+974155487+974180155+975279662+976789414
1806+978199553+979542343+981042184+982645690+983966053+984785747+985310000
1796+985746649+986101481+986381946+986643892+986825322+986874948+986865038
1786+986801739+986612641+986395618+986414137+986680062+986790671+986421227
1776+985745130+985086395+984281170+982534357+979527151+976191084+973748425
1766+973027477+974152521+976701448+980009664+983135509+985523116+987421410
1756+989026363+990142726+990775056+991246284+991740444+992050569+991953415
1747+991576882+991113033+990565919+989609285+987545041+984088020+980278410
1737+977497197+976414834+977009620+978152532+978783850+978986693+978904225
1727+978418529+977486056+976345387+975442357+975053163+975152415+975740618
1717+976849964+977931820+978418963+978508304+978560606+978633670+978509606
1707+977879228+976699929+975510213+974831656+974477693+973814472+972784846
1697+971922689+971313290+970854360+970702879+971163400+972425095+974163589
1687+975812742+977525988+980046630+982893963+984864598+986142209+987250759
1677+988522582+990172964+992036752+993756220+995538335+997962908+1000899003
1667+1003473756+1005632260+1008107110+1011443684+1015194119+1018398526
1659+1020886325+1022953752+1024929523+1027790384+1032747102+1037225647
1650+1039121554+1040028635+1041307909+1043334391+1045599236+1047926800
1642+1050571073+1053515559+1056451944+1059104246+1060769675+1059587844
1633+1054759531+1045888744+1028946028+996793881+947576546+891489730+841752699
1623+807740888+794348946+796782635+806937471+821996216+840620638+857534707
1613+870103265+880521494+890686386+900716434+909770606+917211144+923021844
1604+927298486+929717128+929804660+927761033+924704201+922116427+921172597
1594+922322598+925296672+929495548+934381299+939619567+944987325+950322023
1584+955606155+960814401+965697765+970201991+975097219+981519344+988585663
1574+993918191+997628911+1001334133+1005992155+1010806651+1014747632+1018045214
1564+1020868529+1022904054+1024222175+1025521850+1026737826+1025947720
1555+1022507120+1016829599+1010185533+1004731907+1002545262+1004692047
1547+1010966379+1020627273+1032348215+1044076390+1055155525+1065331123
1538+1071585489+1073741823+1073604303+1072161973+1070416679+1069276950
1530+1068400831+1066158629+1060124468+1049405808+1035085879+1015667011
1521+989904218+965194997+947511801+932697929+915153844+893175053+867721735
1511+841746839+820097343+808424797+814078229+834377918+852477869+865293761
1502+875204737+880576690+875157860+850927100+810083499+767424289+731090122
1492+699466063+672442587+657499009+658892726+669612544+682777335+695938003
1482+707935069+717091675+721809741+721681336+718373120+717018828+724606797
1472+739779551+751351760+754635091+752076180+746956551+743023601+743294227
1462+747460043+754325617+764738637+780442011+797051236+807702909+814226383
1452+819915261+825912167+832254282+838377857+843357145+846782191+849031555
1442+850359225+850147628+846701314+837600989+823378937+811323347+806748878
1432+808388699+813939769+821342328+828407417+834272301+839445245+844308787
1422+848696690+852815990+857279778+861619501+864624681+866551116+868380614
1412+870643796+873395132+876371376+879269492+882040506+884653382+886753146
1402+888095067+888891973+889473448+890148822+891292529+893165215+895621329
1392+898225669+900792826+903532588+906697425+910128693+913333317+916133483
1383+918705415+921236402+923810576+926368835+928838983+931383208+934247686
1373+937379173+940661780+944185934+947825253+951164720+954179305+957361214
1363+960811580+963365282+963061161+957945655+946107449+926931646+903454967
1353+881848513+867292898+861329776+862645655+868968962+878274807+888944926
1343+899753434+910082611+919646062+927854570+933981544+937543531+937460846
1333+931093049+914619101+885117665+843743878+797786725+758771102+736625565
1323+734139719+746633188+766541803+787726438+806819989+822501155+833760273
1313+838989426+837654811+832458428+828259842+828714504+834263982+842940028
1303+852535091+861819668+870442182+878479748+886088623+893305701+900099657
1293+906535020+912765224+918869267+924712810+929783175+932891224+931909415
1283+924175969+908391646+887312195+867924795+857063117+856094402+860117996
1273+861602645+854207176+835071883+806386813+775328025+750916268+739201693
1264+740405154+750274823+763653743+776916049+788530505+798413196+806749168
1254+812597124+811856861+796977087+763616560+720794800+689574113+686086492
1244+707730851+738939457+766789932+787526054+802488803+813553324+821962505
1234+828452051+833390250+836816743+838524130+838605875+838067949+838534040
1224+841164423+845863318+851462205+856629651+860691007+863770988+866326860
1214+868597275+870491591+871986440+873399256+875069025+876949017+878741839
1204+880345489+882019889+884107282+886610490+889118906+891209554+892825141
1194+894213505+895637389+897226498+898989588+900853665+902721431+904575887
1184+906507096+908575898+910717040+912793510+914515148+915019580+912442802
1174+904541670+891298317+877496999+870678736+874435393+884222014+890576717
1164+885555182+867123042+841346794+820675635+815167970+823091166+832878656
1154+835387723+831614139+827686686+825444484+820705657+810433845+799041548
1145+795428632+804235109+822014012+841849129+859342864+873714444+885640110
1135+895767313+904566555+912484036+919915748+927000731+933541133+939315808
1125+944338500+948556908+951114805+949372405+938333710+912514274+871133543
1115+822524882+781515548+760129155+760253654+774989976+795497284+815897455
1105+833824005+849033146+862167627+873985144+884853549+894395297+900982865
1095+900392420+884889647+847494458+791940794+737077189+705412113+705478738
1085+727918413+757664288+785679628+809802817+830289290+847534101+862039801
1075+874380414+884870188+893179466+897936234+896532316+885524438+862467479
1065+829129957+793066489+764365431+749571887+748483304+756241345+767625830
1055+779490223+790591639+800583419+809453049+817378632+824637884+831210622
1045+836056080+837310613+834391446+829857922+827874049+830502406+836387979
1035+842960645+848728809+853403180+857158607+860420670+863781260+867652143
1026+871624085+873314472+868477479+855083295+838131175+827356016+828428830
1016+838442312+850567711+860425589+867190175+871247479+872475175+869983614
1006+862959324+852155013+840598429+832330964+829964625+833245568+839863953
996+847390649+854409223+860360554+864900951+867353375+866000096+857293088
986+837277626+806865781+775703256+756842931+755841735+767360484+782591400
976+796837903+809629777+821313391+831649441+840304943+847268466+852781267
966+857055811+860000514+861296572+861038387+860394265+861187988+864396953
956+869271636+874201515+878179462+881224647+883717582+885777992+887383451
946+888713798+889977591+891086141+891905039+892635319+893552961+894565588
936+895351715+895792632+896002348+895847177+894285846+889386495+880125067
926+868842583+860368150+857047492+856307952+855367449+856179113+862453156
916+873541622+884765655+892668523+897193294+899719289+901261160+902304821
907+903071633+903674087+904170055+904554691+904798697+904800143+904313001
897+903218268+901866002+900888605+900666447+901038134+901465957+901482885
887+900976933+900064065+898866391+897480342+895957496+894233326+892153312
877+889623917+886797491+884048396+881582444+879142173+876312780+873097522
867+870113899+868192745+867703866+868339669+869646433+871490038+873755389
857+875551611+874618487+868364482+857357906+847585897+846271537+854229312
847+864531940+869952218+870096176+870169095+874276894+881685530+889096625
837+894520592+898133941+900815397+903223115+905702812+908098376+909883385
827+910869317+911502227+912301665+913300908+914172470+914748013+915237326
817+915913640+916759159+917579865+918334451+919130851+919941285+920558858
807+920894302+921107997+921322704+921409658+921222006+920879038+920628305
798+920548296+920551262+920600960+920720612+920779135+920471470+919652356
788+918619257+917940773+917921964+918272021+918479061+918506044+918793526
778+919550283+920453240+921071320+921153427+920467925+918753955+915905103
768+911868271+906227355+898390823+888853126+879946313+874260762+872071947
758+870803307+866572167+855208444+832005647+792847730+738882598+681291600
748+638382091+623579071+634938019+656928240+671797452+668763625+645275299
738+604684637+555331554+509877639+481288890+476708417+494580712+527295344
728+566209617+604442295+636703568+659659466+674254362+686221914+701710001
718+721985673+743711706+763440844+779992196+793153877+801501496+802672114
708+797077062+790469021+790008789+797450195+808225426+816658986+819442080
698+814273332+797563264+765897537+722088542+679086364+653470568+652447019
688+668409951+686808597+697447610+698621339+694889351+693318761+699674766
679+715492944+737583430+760457727+779657331+793459878+802575177+808396150
669+811226555+810758294+808384214+805612984+802643829+799383213+795895881
659+792112821+787768974+782889299+778090140+774143083+771176315+768442557
649+764996315+760608992+756031195+752277288+749592215+747256115+744417390
639+740820535+736777770+732833390+729442054+726687317+724359608+722379424
629+720981366+720399240+720503339+720985201+721909354+723635332+726154528
619+729091997+732329753+736049443+740354371+745393557+751471339+758600161
609+766381352+774604617+783459923+792929548+802528590+811918133+821205965
599+830227800+838067008+843832206+847566293+849926049+850986854+849737818
589+845153728+837417244+827724231+817203640+805974977+793321490+779078966
579+764287231+750024524+736684161+724944990+716027181+710363983+707241177
569+705968051+706428428+708322165+710902705+713903328+717889594+723085470
560+728160103+730821231+729969129+727067106+724975807+725505776+728304712
550+731607648+733789879+734825727+736362534+739742657+744329786+748567942
540+751977001+755026816+757615531+759181274+760252569+762249247+765597395
530+769510452+773591991+778159732+782815440+786192379+787558390+786677062
520+781134746+765751336+739219199+711485338+697067894+701344463+717658755
510+735708574+750326474+761878066+771620054+779911102+786954634+792596419
500+796320594+798426217+800098663+802232138+804964159+808218626+811794575
490+814842943+816499257+817097443+817780774+819158287+821078935+823391525
480+826144381+829433137+833512433+838574262+844078599+848570093+851077352
470+852917629+856104313+860178617+861919570+857760699+846277252+829826960
460+815016778+810169729+818880354+834279535+846757089+853648488+855939810
450+853697101+845038778+825749617+791195178+742010685+689390367+652481670
441+641985313+648239896+653428610+649884998+645897429+654411649+678382344
431+710102544+739879598+763143379+780707791+794741033+806143024+815103732
421+822415214+828887543+833610021+835686129+836492584+837717530+839901498
411+842270441+844086846+845991000+849136955+853310946+856419140+856293484
401+853542436+852978540+860368078+872738061+880966679+883577820+884203495
391+885401820+887181620+887730252+886265641+885391403+887902279+891620016
381+894107960+897030165+901897470+906335576+905796565+901584813
##END=
