##TITLE=YM-277
##JCAMP-DX=5.0
##DATA TYPE=LINK
##BLOCKS=1


$$ === CHEMSPECTRA SPECTRUM ORIG ===
##TITLE=YM-277
##JCAMP-DX=5.00
##DATA TYPE=INFRARED SPECTRUM
##DATA CLASS=XYDATA
##$CSCATEGORY=SPECTRUM
##ORIGIN=Marie
##OWNER=
##XUNITS=1/CM
##YUNITS=TRANSMITTANCE
##XFACTOR=1.0
##YFACTOR=8.3714186e-10
##FIRSTX=3997.453
##LASTX=373.96442
##MAXX=3997.453
##MAXY=0.8988742260288689
##MINX=373.96442
##MINY=0.5722524548771075
##NPOINTS=2559
##XYDATA= (X++(Y..Y))
2559I88385276I88417458I88144121I87641946I87075976I86675261I86534498I86514064
2551I86458742I86398934I86490141I86873340I87581355I88478335I89316289I89922060
2543I90265245I90314373I90010989I89484820I89089873I89062318I89303189I89592119
2535I89805933I89870298I89729393I89423374I89089588I88908384I89031133I89430779
2527I89918429I90432779I91065463I91611569I91565645I90861120I90112165I89910811
2519I90200382I90577387I90806367I90782728I90483830I90154386I90154885I90399885
2511I90335093I89718926I88988413I88759504I89157157I89791693I90414054I91127551
2503I91867819I92185016I91874298I91321429I90952825I90824523I90729684I90405225
2495I89760222I89113013I88995675I89440890I89987137I90549263I91294800I91919724
2487I92033573I91872589I92089038I92729483I92892389I92271595I91873515I92470315
2479I93163377I92900649I92375973I92478218I92478431I91543217I90323558I89836620
2471I90186712I91024026I92217127I93176976I93178116I92560240I92245749I92488400
2463I92688401I92321150I91333177I90042175I89280476I90315370I93065121I94857158
2455I94664989I93697663I92846892I92396836I92329908I92402390I92420831I92668678
2447I93699087I95455239I97008685I97634534I97385334I96637376I95768947I95201767
2439I95208531I95281725I94403755I92615848I91433783I91821325I92686692I93303285
2431I94147791I94929141I94801266I93909840I92925925I92525993I93328490I94731775
2423I94996212I94032945I93658503I94599413I95331850I95236869I95298314I95957770
2415I96690349I97101601I97124812I96736273I96236448I96226622I96787893I97188821
2407I96998290I96861941I97509364I98442229I98584131I97784909I96728868I96183688
2399I96550512I97409115I97826632I97667002I97585762I97805771I98061166I98379573
2391I98832477I98878401I98047638I96739691I95679662I95514691I96581270I97874123
2383I97917696I97205411I97663798I99926041A001584222A000948262I99006775
2376I97306658I96844211I97592099I98598941I99148677I99192608I98946611I98903749
2368I99621304A000930818A001846737A001849727A001349617A000743063A000066661
2361I99367119I98799583I98654192I99401723A001097568A002785084A003589859
2354A003447672A002505409A001155668A000202653A000134586A000466877A000587704
2347A000550181A000577522A000596390A000478483A000471861A001120424A002386576
2340A003276721A003212641A002550337A001879061A001599530A001608857A001422740
2333A001171474A001846950A003229088A003620618A003131615A003287116A004339383
2326A005038712A004972424A004636715A004305278A003929698A003443400A003004380
2319A003028090A003480638A003353617A002039403A000434054A000348329A002826024
2312A006014012A007304016A006586817A005266623A004646611A005061780A005743380
2305A005778268A005156548A004550492A004251165A004007947A004066117A005347720
2298A007471906A008567392A008242292A007415302A007001060A007590739A008891850
2291A009521973A008786333A007553786A006685216A006112766A005574207A005302651
2284A005441633A005541171A005283640A005069897A005476165A006470689A007355992
2277A007620857A007446274A007198925A006916473A006469052A005962107A005806392
2270A006385534A007351934A007729295A007256455A006541747A006129783A006091264
2263A006336975A006890699A007625200A008085865A007886220A007110138A006294469
2256A006237366A007415729A009082241A009950598A009733010A009081600A008739341
2249A008946675A009366828A009510154A009194879A008597296A007953219A007374148
2242A006962041A006903941A007402059A008483162A009757573A010533086A010435612
2235A009813253A009271704A008928235A008467498A007781129A007160334A006978062
2228A007380200A008159486A008853973A009069994A008793737A008387113A008190672
2221A008167247A008040012A007713417A007358057A007081373A006762681A006255238
2214A005559256A004766656A003965939A003208155A002539799A002093232A002015054
2207A002200530A002289459A002037055A001549832A001090876A000790552A000497280
2200I99803007I98433685I96711923I95315260I94606319I94480652I94659222I94835940
2192I94748222I94374634I93876732I93205955I92108333I90681624I89470153I88713509
2184I87946896I86729801I85372583I84464923I83999701I83460360I82574701I81537671
2176I80575258I79631357I78525903I77210978I75842013I74707865I73957273I73259725
2168I72074527I70461273I69112030I68341644I67641533I66547685I65279182I64214169
2160I63295759I62193794I60731698I59071382I57593337I56473287I55381575I53829554
2152I51794582I49770431I48172344I46925273I45715226I44429066I43183704I42069706
2144I41078956I40176066I39244411I38097021I36691316I35204015I33793540I32409409
2136I30892988I29207395I27529278I26098368I24989568I24071798I23123411I21945191
2128I20509368I19039369I17746517I16485348I14981671I13354320I12013051I11040101
2120I10046432I08678605I06945379I05004035I02933676I00854988H99039098H97673906
2112H96577850H95343881H93788513H92142008H90753392H89656055H88499764H86966397
2104H85197714H83678872H82725216H82212575H81760953H81064259H80059340H78860542
2096H77580292H76274410H75074900H74232673H73894259H73834593H73583897H72929710
2088H72157260H71644120H71397767H71157538H70746428H70177112H69597826H69201526
2080H69025022H68904907H68728970H68581587H68575535H68707825H68881767H68976036
2072H68955174H68907541H68907613H68925413H68903696H68791129H68562292H68370336
2064H68527404H69158949H70040692H70880997H71588797H72203397H72729068H73122805
2056H73392867H73686141H74280306H75378640H76821868H78149537H79122417H80012775
2048H81142508H82391928H83495674H84551786H85859448H87463161H89144268H90723559
2040H92150980H93396129H94445192H95440499H96670553H98291354I00126823I01851292
2032I03274583I04377759I05245190I06033020I06862289I07742536I08675330I09708729
2024I10822869I11970118I13248588I14797975I16504714I18055453I19287644I20274052
2016I21076905I21685453I22260608I23139075I24406510I25696087I26639133I27343659
2008I28192864I29335769I30603345I31779145I32769468I33614614I34473929I35514021
2000I36702067I37791644I38629171I39394004I40373006I41523743I42488648I43082742
1992I43510014I44014396I44592043I45156589I45747765I46450795I47272089I48181600
1984I49126355I49976414I50603403I51018429I51299740I51430962I51446840I51688066
1976I52554999I53949384I55323120I56350538I57133313I57737162I58065394I58270807
1968I58736670I59512396I60222404I60636361I60939389I61351923I61821631I62191373
1960I62435732I62637941I62864998I63121319I63391095I63764114I64448846I65502822
1952I66632840I67500699I68118147I68681767I69188428I69473015I69452936I69147630
1944I68675217I68343211I68506900I69213134I70144361I70984523I71684279I72320239
1936I72855593I73195930I73395646I73623629I73970730I74427408I74958204I75464010
1928I75798296I75969390I76169818I76450347I76571102I76387121I76167042I76242015
1920I76496556I76495773I75976225I75015165I73913912I73061575I72732060I72915899
1912I73394578I73931427I74401776I74842576I75323747I75729018I75880746I75889076
1904I76046072I76394811I76756935I77124826I77678265I78413265I79024162I79223950
1896I79051076I78775033I78547761I78282470I77921200I77652847I77721412I78106747
1888I78561717I78967202I79476070I80258631I81271239I82286554I82964379I82886700
1880I81680569I79102838I75000711I69440120I63022279I56901912I52360837I50290336
1872I50838648I53404987I57067239I61097525I65089149I68754392I71869969I74471338
1864I76818381I78997391I80765006I81918022I82610871I83214791I84015081I85033457
1856I85997436I86543968I86586972I86420436I86344608I86249626I85691417I84338329
1848I82158892I79242675I75751446I72039923I68500278I65245433I62085926I58719368
1840I54837392I50141954I44272212I36869245I28060430I18783049I10215390I03008579
1832H97253540H92676437H88537500H83854594H78142346H71893321H66459110H63549372
1824H64446779H69334030H77328813H87102744H97443360I07476532I16603184I24317438
1816I30176928I33948258I35651794I35435274I33554735I30586044I27520022I25342578
1808I24350404I24025161I23716081I23288240I22967269I22799664I22617463I22509167
1800I22975172I24403448I26543084I28690126I30328157I31440446I32195025I32481820
1792I31986693I30768601I29463359I28691763I28498170I28543667I28546016I28301301
1784I27497309I25729053I22683537I18332352I13026586I07386037I02037338H97442292
1776H93913540H91681770H90915586H91703629H93912188H96899177H99495420I00585780
1768H99766693H97360056H94047183H90782014H88739281H88793394H90954816H94484139
1760H98524962I02553468I06379409I09917844I13051932I15715674I18041072I20303030
1752I22673640I25081416I27373990I29604122I32037317I34809567I37665691I40178772
1744I42186046I43870928I45460258I47003593I48459209I49856014I51287779I52766678
1736I54124607I55122264I55690513I56038610I56484751I57177243I58014273I58833787
1728I59592425I60297805I60887698I61310912I61639928I62009101I62504725I63114056
1720I63710002I64166822I64557497I65081175I65730805I66234688I66398520I66367691
1712I66490724I66970970I67661610I68227937I68518292I68720927I69133390I69833359
1704I70585019I71082637I71290186I71462846I71831663I72388733I72966238I73411168
1696I73740967I74172155I74836595I75492349I75785195I75746818I75728092I75892494
1688I76070850I76077400I75943259I75843294I75943331I76300755I76793674I77150528
1680I77182071I77030059I77055050I77420948I77924974I78286101I78436974I78485746
1672I78525690I78541282I78446159I78232843I78072785I78155234I78436049I78685249
1664I78770618I78733594I78603583I78343346I78011126I77799092I77824439I78021023
1656I78294075I78630995I78979876I79211062I79302270I79401452I79611065I79873011
1648I80147202I80506763I80929692I81188932I81132898I80947136I80960949I81289324
1640I81786942I82227315I82415853I82266760I81922579I81706913I81842977I82235432
1632I82570856I82641416I82543587I82507559I82558325I82487054I82173915I81783667
1624I81603175I81782172I82218344I82619272I82732267I82555904I82255083I81925569
1616I81596980I81411218I81557393I81990290I82384668I82473383I82344724I82280360
1608I82354693I82400830I82392856I82547289I82896739I83100799I82966872I82892254
1600I83433090I84579271I85738979I86368460I86416520I86221716I86179708I86499895
1592I87092922I87616029I87745542I87514427I87311791I87475765I87971318I88500763
1584I88778728I88675416I88306742I88051418I88292217I89073710I90079840I90886396
1576I91185152I90946204I90499067I90331461I90669021I91299641I91825455I92030725
1568I91983305I91869599I91816483I91861055I91990141I92103990I91981169I91507119
1560I91012135I91064752I91743930I92493384I92933045I93351702I94103504I94986458
1552I95521954I95498386I95068267I94588449I94440708I94823908I95640218
1545I96591309I97387826I97886085I98040447I97826276I97334140I96828976
1538I96568169I96677319I97205411I98044149I98851344I99336005I99489868
1531I99376660I99019734I98637958I98594455I98947537I99341273I99450139
1524I99327603I99198873I99087232I98916209I98896059I99369611A000200945
1517A000804793A000918714A000896143A001102624A001409852A001420390A000966916
1510A000313441I99940494A000097989A000583076A001041391A001394260A001792197
1503A002246525A002586435A002758383A002874013A002901282A002618190A002019325
1496A001503837A001397891A001503409A001412487A001113517A000940430A001050932
1489A001334736A001739509A002298217A002897936A003332115A003529268A003579464
1482A003676723A004075159A004830237A005576842A005854167A005633518A005328425
1475A005347221A005694608A005899237A005449608A004467615A003675584A003518232
1468A003697585A003764086A003719159A003823467A004198621A004781821A005415432
1461A005899522A006103368A006037935A005794715A005484709A005223334A005047256
1454A004857436A004601685A004468042A004697378A005235082A005822910A006394648
1447A007075606A007775860A008098610A007796508A007148871A006708497A006730997
1440A007021352A007332710A007667778A008124883A008666503A009127168A009303317
1433A009048492A008429833A007764753A007412240A007522316A007952080A008380064
1426A008553722A008473550A008303524A008152580A008025273A007903308A007761264
1419A007556207A007323169A007257380A007589031A008332645A009200148A009778507
1412A009845720A009622721A009625284A009990114A010018594A008953226A007294547
1405A006621491A007802133A010033190A011918642A012833066A012980947A012787782
1398A012530038A012227793A011796178A011302048A010979654A011056479A011540783
1391A012103406A012281976A011959653A011531526A011328891A011085742A010422299
1384A009566473A009161771A009559424A010477052A011241386A011371397A011006283
1377A010706744A010794391A011024794A011013332A010780507A010728673A011139641
1370A011746409A011905612A011276701A010235826A009545611A009670496A010387340
1363A010996244A010921270A010188478A009376012A009089218A009436960A010014108
1356A010356083A010316709A010029986A009684950A009433756A009442229A009922260
1349A011005072A012496075A013799466A014298080A013918655A013230861A012912881
1342A013154606A013638340A014028018A014327415A014725210A015231515A015667687
1335A016008095A016476877A017147867A017683649A017716757A017307641A016823123
1328A016544731A016588732A016984321A017609956A018220925A018728867A019249624
1321A019757282A020018160A020017804A020109937A020604636A021437251A022105607
1314A021809414A020234110A018374646A017765386A018671622A019879248A020390323
1307A020469569A020795523A021277833A021242945A020612183A020272985A020925036
1300A022087308A022758512A022529105A021601296A020356290A019381346A019278817
1293A019970669A020711507A021124041A021586700A022316003A022947335A023342994
1286A023784222A024178884A024228511A024295653A024862264A025603030A026148637
1279A026839920A027678800A027718956A026323362A024034063A021923121A020750240
1272A020495842A020390822A019865364A019509719A020569819A023362432A026400543
1265A027470397A026014923A024135523A024585295A027761962A031222860A032476481
1258A031219371A028874749A027069042A026580679A027163738A027813012A027469899
1251A026287406A025838347A027147860A029114480A029803484A028674250A026791860
1244A025457995A025153401A025423818A025575262A025431295A025143077A024524490
1237A023337014A022112798A021800158A022518781A023443031A023996541A024426376
1230A024980100A025189286A024490456A023261969A022682898A023547980A025446675
1223A027092039A027441205A026637142A025756253A025538736A025760311A025997266
1216A026286053A026686768A026919093A026795704A026460992A026109050A025891818
1209A025990074A026412149A026886627A027189655A027359111A027500586A027699377
1202A028180690A029231605A030821789A032424790A033301335A033018884A031849564
1195A030728730A030582201A031506876A032697344A033229566A032923191A032475627
1188A032604001A033018884A032710445A031409120A030088641A029748803A030414097
1181A031711364A033421664A035037765A035873086A035921359A035942150A036688968
1174A038205318A039552710A039648546A038841492A038654448A039603903A040637231
1167A041026412A041215591A041488074A041434602A041092841A041203415A041975581
1160A042644222A042650274A042452907A042770246A043530664A043945049A043471710
1153A042516559A041982701A042235035A042797516A043022793A042758142A042306448
1146A041995161A041959133A042255398A043122474A044787703A046604518A046921572
1139A044741067A041104447A037844120A035690528A034746129A035632856A038446046
1132A041333854A042037596A040423417A038385170A037770357A038749288A039965956
1125A040192515A039565099A038975775A038983607A039664780A040869842A042299542
1118A043502255A043983141A043486947A042201001A040645847A039434945A038967231
1111A039056303A039059008A038588162A037749993A036601321A035079346A033535157
1104A032606778A032537286A033017460A033567766A033752246A033269651A032142268
1097A030748311A029564608A028795432A028135478A027034795A025311964A023366063
1090A021731307A020490573A019403560A018545241A018457666A019574654A021684244
1083A024218970A026819485A029311278A031442228A033001298A034063320A034895650
1076A035647239A036196690A036383235A036349343A036393488A036538309A036626383
1069A036829375A037511758A038584958A039440357A039572504A039024761A038234866
1062A037705564A037775198A038478941A039565455A040688140A041550445A041940551
1055A041855395A041602349A041598149A042004487A042491640A042461665A041685939
1048A040639083A040060795A040232031A040804054A041324669A041693557A042021363
1041A042358424A042680107A042851272A042669427A042261806A042048704A042208833
1034A042472914A042439023A042008618A041465361A041239941A041542684A042116842
1027A042672132A043243656A043708309A043673064A043182638A042763696A042666223
1020A042599579A042235960A041555073A040677246A039758194A039017498A038537111
1013A038093605A037429450A036579605A035819899A035359732A035170411A035127691
1006A035188282A035343711A035599178A036034354A036612855A036975335A036920084
999A036744503A036822611A037174411A037566083A037962739A038517531A039146513
992A039530069A039582116A039637581A040124092A040921320A041315484A041122745
985A040894620A040965179A041206477A041539551A042026560A042515990A042817666
978A043023790A043112506A042778505A042028625A041419793A041522890A042181207
971A042615172A042457322A041992954A041618156A041443431A041296118A040947451
964A040384684A039961684A040305723A041637523A042884024A043138778A042784202
957A042381921A042175582A042202496A042283237A042095696A041573229A041068206
950A041103237A041870062A042779716A043126888A042760278A041863441A040715694
943A039619995A038810021A038215856A037513038A036741016A036487258A037067967
936A037873098A038625969A039547442A040109069A039830605A039201053A038857156
929A038816002A038838929A039238504A040511278A041902103A042315135A041912783
922A041253327A040809892A040879454A041225986A041363544A041425061A041933146
915A042738705A043052626A042779787A042469497A042451269A042503387A042296623
908A041840728A041286079A040914983A041474546A043414109A044822164A044634765
901A044224581A044862819A046408504A047423605A047499006A047227519A046946991
894A046762938A047108900A048571067A050444058A051218004A050946447A050551997
887A050633094A051144099A051672333A052106583A052614311A053039305A053062374
880A052844786A052821219A052832183A051944460A049788234A046870308A044028709
873A042211254A041990889A043137568A044948260A046855356A048596984A050039784
866A051132634A052025486A052962195A053963839A054806991A055392186A055874211
859A056360508A056731319A056861330A056845808A056871013A056926549A056806791
852A056470726A056286317A056693155A057246025A056889453A055519848A053872916
845A052862586A052885512A053612181A054645081A055561215A055960505A056081902
838A057107754A059551771A061453955A062111702A062210314A062083720A061836513
831A061588452A061397991A061261002A061219065A061340746A061763391A062980486
824A065168824A066897066A067269370A067004435A067067163A067725835A068321140
817A068478564A068617262A069153825A069890677A070396768A070757397A071350850
810A072074315A072591227A073017005A073494616A073741822A073488778A072846410
803A072158260A071950427A072666202A073204404A071878016A068719363A063920898
796A057097786A047425598A033657193A015560531I94772359I71835223I45535303
789I17594647H96513698H89652993H94792507I06387739I21132370I36877789
782I51157696I62216008I69946781I74733640I76094916I72502511I62944173
775I49230663I34719783I22640389I16694036I18888283I25412141I30716981
768I33961715I38249461I47441901I59906488I68843178I72818355I73931000
761I73491339I72205749I71026959I70840913I71833301I73821067I76556435
754I79612916I82780754I86333928I89975959I92225172I92429446I91358595
747I89813551I88060105I86066286I83938540I81961952I80305979I78941997
740I77979442I77759149I78166271I78381865I77950535I77020090I75776651
733I74233886I72394429I70473377I68925557I68203587I68321210I68840188
726I69375969I69572624I68638549I65504531I59566223I51282439I41831897
719I31503600I19057739I03588006H87814818H77842878H77610552H86421502
712I00955095I17255378I32240736I44528177I53739201I59185444I59976264
705I56333664I49693251I42178785I36467748I35081338I39367303I48377970
698I58414489I65725535I69086896I68771978I65443582I60674952I57124769
691I57268307I61843988I69453648I77720416I84885645I90349689I94245121
684I96877534I98352944I98522543I97336277I95075102I92110469I88727179
677I85368026I82925789I82494530I84626690I88862602I94021410I98926034
670A002959879A006088914A008401495A009729949A009864944A009044077A007973298
663A007303233A007230608A007695688A008676115A009929309A010545689A009198083
656A005148716I99034401I92556324I87288651I83659792I80998899I78604793
649I76718985I76321047I78016751I81275725I84735911I87092494I87716137
642I86723108I84741465I82583530I80891956I79851081I79163002I78375600
635I77302471I76153300I75254611I74613240I73774716I72193573I69787292
628I67028855I64488504I62470051I61116251I60540384I60592929I60652880
621I59920301I57974329I55071783I52073259I50146440I50324938I53081596
614I58157599I64728876I71818776I78733737I85236520I91338161I97002348
607A002089814A006512626A010319913A013608934A016444693A018936487A021261671
600A023446021A025224245A026298371A026597412A026095807A024506975A021370322
593A016447329A009955795A002421607I94366945I86347313I79374822I74989035
586I74452114I77736293I83427679I89727969I95535482A000612909A005022336
579A008751373A011800592A014267251A016214148A017544452A017955562A016963886
572A014130760A009338490A002757956I94661714I85603200I76817099I70020046
565I66407349I65854836I67258405I69600250I72592722I76476335I81480354
558I87536570I94297881A001252500A007886576A013865967A019050906A023378808
551A026912045A029948946A032799516A035430505A037563520A039052387A039912627
544A040055312A039192936A036892174A032517208A025233359A014335176I99802010
537I82802684I65875555I52405479I45326046I45717148I52283015I62104082
530I72081932I80020822I84822277I86294696I85136626I82626819I79775110
523I77130949I75787972I77653915I83604896I91811641I99031055A003430584
516A005191507A004581250A001050932I95121097I90022524I89830924I95876389
509A005805965A016081502A024631646A031195946A036175615A039893474A042709228
502A045167271A047706981A050326151A052671200A054445081A055705608A056795327
495A058004662A059317451A060511336A061494040A062428828A063433248A064275048
488A064546819A064091921A063076322A061692262A059968719A057798894A054932873
481A050966739A045594330A038917320A031284377A022825084A013467246A003407159
474I93200116I83390085I74274256I65776729I57189205I47153897I34133236
467I17001193H95398990H69820043H41980775H15965443G98289786G94190721
460H02431144H14815204H21566902H17353988H04290252G91351116G88957223
453H00522837H19094476H33358648H35263680H20965546G89398095G45818748
446G04907128F83578832F88556293G13278560G46400738G80196683H11604005
439H39647688H63974152H84642423I02097146I17042133I30155211I41845353
432I52291132I61609383I69957888I77542273I84493261I90725412I95961829
425I99919206A002553470A004166794A005197274A005876738A005987169A004728920
418A001023876I94583962I86948812I81170420I80042752I84111842I90917937
411I96070195I95412235I87212396I73769803I61043555I54886663I56333735
404I61153987I64237168I63280024I58048093I47908120I31988830I12121845
397H94505499H86759703H92361377I08113062I27048606I43265086I54378080
390I61083071I65610334I70248598I76359567I84113764I92820691A001467524
383A009189824A015554123A020571456A024505978A027695888A030503952A033211125
376A035784014A037935755A039643277A041333854A043313219A045375176A047227092
369A048876871A050402762A051789599A053134571A054623651A056219888A057660196
362A058788078A059656435A060265268A060396347A059761527A057933747A053929805
355A046694871A036913178A027752848A022619814A022273141A024792986A027837149
348A030073760A031060951A031102176A031357854A033115147A036382167A039409313
341A039801270A035859486A026545222A010571036I87046784I58415842I31867504
334I15040910I09350806I09635963I11110518I13736309I18369162I22224723
327I21414821I15945223I08748737I00275561H86901248H65422862H37530195
320H08904806G84725796G66768758G53975012G44214180G35273290G25698718
313G16062771G08993733G06759970G08989675G14160018G23269297G39997706
306G66324682G99126388H31389394H55246222H63112559H48321435H09443151
299G56739074G11579510F94177974G09815170G47981524G93590931H36659701
292H73448190I03441547I27352844I46467100I62099739I75062584I85487999
285I93149351I98005701A000229069I99594106I95481655I88330381I80869742
278I76841877I78147261I83811875I91604449I99717211A006877954A011959155
271A014305200A014168354A011972754A007179060I99267226I90207288I84008317
264I82775770I84918682I87950456I91057846I94139815I96231321I96028045
257I93406882I90114515I88692077I90013125I92266896I93286340I93231871
250I93918526I96242500I99417885A002249658A004154975A005097452A005181824
243A004403962A002616481I99722408I95879450I91406156I86526951I81224319
236I75141403I67587919I57986077I46649088I35200954I26079073I21266440
229I21212683I24905979I30785333I37432652I43694209I48656220I51787960
222I53151942I53314776I52764186I51475178I49386521I47088606I45511309
215I45027219I45186138I45173606I44423441I43061097I41912140I41980635
208I43024358I43666868I43770109I43916354I44290226I44899628I45962362
201I47417124I48602749I49141806I49405602I49362027I47933254I44632556
194I41131715I39825548I41164181I43571674I45655062I47313955I48781105
187I49796990I50117533I50200766I50996285I53116413I56312589I59873594
180I63402631I66776949I69542079I71125001I71649177I71819345I72081647
173I72520453I73374428I74857172I76482031I77351812I77238747I76732798
166I76268359I75812678I75597867I76219801I77757369I79461616I80413562
159I80182304I79067665I77863172I77050707I76209406I74469131I71221620
152I66243802I59953196I53828984I49652453I47874229I47096367I45095357
145I40207608I32352520I23440323I16308060I12296001I09689078I04436997
138H92778894H74635666H55505604H44281039H47168633H62689132H83077657
131I00264881I09956577I11657976I07114978H98922971H89547546H80524134
124H71515960H60412862H45892655H30258592H18781908H16104068H23407925
117H38087621H55278760H70153544H80014199H84833169H85778422H83652599
110H78841176H71732123H62545592H51509281H39747867H29371082H22393038
103H19911142H22378869H30071763H42731866H58908758H75956785H91210711
96I03482203I13102557I20768679I27074594I32881893I39023051I45295216
89I50605539I54316990I56736942I58342505I59259421I59569569I59375549
82I58777752I58561944I60177904I64130012I69168919I73802341I77532518
75I80267602I81785091I82151914I82102429I82757899I84786748I87824717
68I90862401I92481208I91229011I87430695I83890623I83105000I84631745
61I86278819I86386474I84125797I79385076I73370797I68253427I65544617
54I65558572I68666175I75220293I83881722I91783874I96871767I99083672
47I99300334I98631123I98607342A000338788A003332898A006249684A008271697
40A009541410A011094998A013923923A017305006A019150515A018961692A018178418
33A016433302A010787769A001884829I93646043I87207767I80529120I72627183
26I66866733I67450715I74084009I83198984I92222823I99433692A002960592
19A003819337A007172225A013946779A016429814A010776449A001959660I96219573
12I95439148I97593238A000041243A001785860A003729554A007364252A012606436
5A017543171A020452481A020728310A017900524A013065107
$$ === CHEMSPECTRA INTEGRALS AND MULTIPLETS ===
##$OBSERVEDINTEGRALS= (X Y Z)

##$OBSERVEDMULTIPLETS=
##$OBSERVEDMULTIPLETSPEAKS=
$$ === CHEMSPECTRA SIMULATION ===
##$CSSIMULATIONPEAKS=
##END=


$$ === CHEMSPECTRA PEAK TABLE EDIT ===
##TITLE=YM-277
##JCAMP-DX=5.00
##DATA TYPE=INFRAREDPEAKTABLE
##DATA CLASS=PEAKTABLE
##$CSCATEGORY=EDIT_PEAK
##$CSTHRESHOLD=0.93
##MAXX=3997.453
##MAXY=0.8988742260288689
##MINX=373.96442
##MINY=0.5722524548771075
##$CSSOLVENTNAME=- - -
##$CSSOLVENTVALUE=0
##$CSSOLVENTX=0
##NPOINTS=39
##PEAKTABLE= (XY..XY)
409.37771730260965, 0.8094046152357434
450.4571421736023, 0.8082978165883676
487.2869713682562, 0.8024523287253759
518.4506729945265, 0.6863819384486041
541.115183268178, 0.6831948782762283
563.7796935418291, 0.7067829993511925
645.9385432838153, 0.7867673073282393
670.0195854495696, 0.7885140808361804
677.1022449100856, 0.7911218438642873
696.9336913995307, 0.7711856989022103
793.2578600625484, 0.5811254403253916
813.0893065519936, 0.5916583558593442
844.2530081782638, 0.7612556251273391
933.494517380766, 0.7423436671424676
947.6598363017979, 0.7993755971530132
1002.9045800938229, 0.5722524548771075
1015.6533671227521, 0.6604691171226548
1025.5690903674745, 0.6648502973726811
1096.3956849726587, 0.8286289008028787
1110.5610038936907, 0.8184350168393819
1128.9759184910085, 0.7913720044548855
1171.471875254128, 0.808557513899035
1204.0521087725015, 0.8162041342395051
1246.5480655355746, 0.7954073580539783
1256.463788780297, 0.8041085636668742
1294.7101498671059, 0.8212352429668122
1330.1234471696857, 0.8228483232454276
1352.787957443315, 0.8012492093727304
1365.5367444722438, 0.7827957305446087
1383.9516590695853, 0.7346845298569067
1466.1105088115714, 0.7674029503479469
1487.3584871931193, 0.7447657613145869
1916.567650500408, 0.855334046762211
2871.310145777951, 0.7440008547514027
2885.475464698983, 0.74582273076703
2923.7218257857703, 0.7722710399294306
2957.718591196247, 0.7229133274779119
3025.7121220172007, 0.7955278194190649
3313.2680961141514, 0.7271209389203951
##END=


$$ === CHEMSPECTRA PEAK TABLE AUTO ===
##TITLE=YM-277
##JCAMP-DX=5.00
##DATA TYPE=INFRAREDPEAKTABLE
##DATA CLASS=PEAKTABLE
##$CSCATEGORY=AUTO_PEAK
##$CSTHRESHOLD=0.93
##MAXX=3997.453
##MAXY=0.8988742260288689
##MINX=373.96442
##MINY=0.5722524548771075
##NPOINTS=106
##PEAKTABLE= (XY..XY)
3984.7042129710712, 0.8257558383107773
3967.7058302658324, 0.8279854685464315
3956.373575129007, 0.8278566039513542
3942.208256207975, 0.8286957775546484
3933.709064855356, 0.8288996843831979
3925.2098735027366, 0.8277319702712375
3903.9618951211883, 0.8279296789014555
3894.046171876466, 0.8303380640384755
3886.96351241595, 0.8303388392318379
3881.297384847537, 0.8307594678565298
3874.214725387021, 0.8286336691629131
3864.299002142299, 0.8306504518949531
3855.799810789679, 0.8281680977403253
3844.4675556528537, 0.8307209049167489
3828.8857048397185, 0.8331250583016666
3821.8030453792026, 0.8299707211674564
3809.054258350274, 0.8308850558783669
3801.9715988897574, 0.8318331274062356
3797.722003213448, 0.8331544436552363
3786.3897480766223, 0.8339830073225969
3780.7236205082095, 0.8345148594519503
3772.2244291555903, 0.8339470654739797
3765.1417696950743, 0.8351208003101973
3752.392982666145, 0.8333870200810652
3746.7268550977324, 0.8348023925666045
3736.81113185301, 0.8345000169267724
3481.8353912744333, 0.8325213827492927
3313.2680961141514, 0.7271209389203951
3306.1854366536354, 0.7273988750407663
3297.6862453010162, 0.726949158247865
3124.869354464425, 0.8106406367749125
3095.1221847302577, 0.8171902932105781
3083.789929593432, 0.8143147259900316
3051.2096960750587, 0.8184341227718754
3025.7121220172007, 0.7955278194190649
2957.718591196247, 0.7229133274779119
2923.7218257857703, 0.7722710399294306
2905.3069111884283, 0.7772846850403962
2885.475464698983, 0.74582273076703
2871.310145777951, 0.7440008547514027
2799.067019280688, 0.8089868462876453
2766.486785762314, 0.8168228297911311
2759.404126301798, 0.8169192702076868
2750.904934949179, 0.8179127608671697
2735.3230841360437, 0.8187856704502801
2722.574297107115, 0.8185565505831911
2699.909786833464, 0.821191909992713
2688.577531696638, 0.8218279511236781
2680.0783403440187, 0.8224982054053197
2672.9956808835027, 0.8217411077014055
2660.2468938545735, 0.8215804124613855
2651.7477025019543, 0.8223080076118696
2647.4981068256448, 0.8224021827225522
2640.415447365129, 0.8228202496931524
2630.4997241204064, 0.8255723150493769
2622.0005327677873, 0.8265200291176712
2612.084809523065, 0.8271392018401574
2600.7525543862394, 0.8290479212780575
2590.836831141517, 0.8302910953572784
2582.3376397888974, 0.8296177419764711
2565.339257083659, 0.8324879439548368
2551.1739381626267, 0.8342689306134543
1487.3584871931193, 0.7447657613145869
1466.1105088115714, 0.7674029503479469
1446.2790623221263, 0.8127315676729182
1419.3649563721656, 0.8185231126258771
1405.1996374511336, 0.8105237516798518
1383.9516590695853, 0.7346845298569067
1365.5367444722438, 0.7827957305446087
1352.787957443315, 0.8012492093727304
1328.7069152775603, 0.8224872982840258
1290.460554190774, 0.8173192172427274
1256.463788780297, 0.8041085636668742
1246.5480655355746, 0.7954073580539783
1202.635576880375, 0.815754655194892
1171.4718752541044, 0.808557513899035
1128.9759184910085, 0.7913720044548855
1111.9775357857698, 0.8168729578457079
1096.3956849726346, 0.8286289008028787
1025.5690903674745, 0.6648502973726811
1015.6533671227521, 0.6604691171226548
1002.9045800938229, 0.5722524548771075
958.9920914386234, 0.8204348122887987
947.6598363017979, 0.7993755971530132
933.494517380766, 0.7423436671424676
844.2530081782638, 0.7612556251273391
813.0893065519936, 0.5916583558593442
793.2578600625484, 0.5811254403253916
766.3437541125877, 0.8177552258376712
746.512307623143, 0.8227227360607322
733.7635205942138, 0.8276755243070432
728.097393025801, 0.83147597590022
696.9336913995307, 0.7711856989022103
677.1022449100856, 0.7911218438642873
670.0195854495696, 0.7885140808361804
645.9385432838153, 0.7867673073282393
604.8591184128222, 0.8167138129924126
563.7796935418291, 0.7067829993511925
541.115183268178, 0.6831948774390865
518.4506729945265, 0.6863819384486041
487.2869713682562, 0.8024523287253759
474.5381843393275, 0.8221590541235779
461.7893973103983, 0.8229983482752999
450.4571421735727, 0.8082978165883676
409.37771730257964, 0.8094046152357434
389.5462708131349, 0.8333237798735352
##END=

##END=

