##TITLE=CZ-237
##JCAMP-DX=4.24
##DATA TYPE=INFRARED SPECTRUM
##DATE=13/8/2020
##SAMPLING PROCEDURE=Diamant-ATR
##ORIGIN=Gabrielsen
##XUNITS=1/CM
##YUNITS=TRANSMITTANCE
##RESOLUTION=4
##FIRSTX=3997.453
##LASTX=373.96442
##DELTAX=-1.4165319
##MAXY=0.90718353
##MINY=0.39708811
##XFACTOR=1
##YFACTOR=8.448805e-010
##NPOINTS=2559
##FIRSTY=0.83170384
##XYDATA=(X++(Y..Y))
3997+984404116+984933861+985350518+985464947+985124835+984427186+983762412
3988+983498774+983596130+983675849+983506322+983242402+983117250+983159720
3978+983323321+983542513+983570168+983182366+982637312+982496921+982961339
3968+983666255+984115575+984157339+984090530+984340764+984885465+985178099
3958+984866488+984289687+984003686+984035432+983953597+983604455+983349565
3948+983369671+983291997+983011428+983099683+983844671+984499921+984314309
3938+983559163+982919857+982628705+982525846+982612338+983018977+983425686
3928+983294325+982717031+982429830+982936788+983841214+984454699+984584578
3918+984454840+984348313+984439320+984847511+985566748+986182067+985991870
3908+984769273+983189844+982355120+982861866+984063510+984948112+985504524
3898+986019666+986144536+985549040+984697455+984677560+985927036+987014252
3888+986591387+985138380+983939769+983659764+983976525+984634103+985286601
3878+985064093+983981816+983110830+983170514+983892502+984899222+986074905
3869+986437663+985292810+983865412+983866823+985244837+986201468+985888940
3859+984686097+982967900+981369564+981867421+986033776+989710103+989821287
3849+988395794+987025892+986008026+985350095+985218946+985613380+986137763
3839+986295368+985732536+984546412+983418349+983083528+983624631+984321928
3829+984626484+984738867+984728919+984078608+982906594+982734809+984577382
3819+986573962+987333976+987564879+987510839+986781937+985688020+984841867
3809+984659712+985375986+986360342+986217624+984971040+984406727+985647455
3799+987165718+987769539+988017304+988218930+987977585+987237677+986462425
3789+986092260+986291346+987013405+987943934+988532939+988573081+988450962
3779+988595445+988922294+989049492+988832274+988358474+987848976+987600435
3769+987634792+987596061+987420891+987379267+987435847+987437752+987671336
3759+988507471+989536344+989900371+989383184+988184996+986727756+986139739
3750+986974604+987608689+987267731+987053477+987874021+988544650+987695181
3740+985528158+983066879+982097055+984375827+988479181+990595551+989892399
3730+987793314+985565972+984209686+984319741+985410978+986433853+986982082
3720+987168964+987058838+986646344+985999489+985414152+985558987+986956191
3710+988673965+989307204+988846525+987813773+986676962+986031377+986297131
3700+987038591+987476694+987426323+987124942+986832309+986811003+987446217
3690+988993900+990664971+991079017+990204998+988807230+987657156+987407769
3680+987905132+987951482+986816083+985842873+986562110+987437611+987568336
3670+988413713+990412691+991564599+991160923+990314559+989885697+989786718
3660+989498953+989085118+989323641+990408881+991014677+990169724+988611177
3650+988063442+989970425+992535269+993030587+992063374+991009668+990370785
3640+989854162+989048716+988135330+987721637+988002206+988287361+987721919
3631+986546377+986362741+988012859+989571829+989840264+989227555+988303235
3621+987915926+989161945+991705977+993698324+994422993+994343627+993830178
3611+993022403+992146338+991469853+991101945+990987798+991060040+991216445
3601+991281913+991249320+991407841+991965523+992709029+993125333+992899650
3591+992262460+991915858+992602643+993936847+994400277+993654231+992471212
3581+991451158+990828572+990616010+990642325+990649239+990405848+989738040
3571+988684758+987778992+988060479+990035471+992069864+992386272+991471052
3561+990616716+990450575+990608109+990460805+990058328+990002666+990525921
3551+991080922+991140605+990863563+990665253+990697917+990814533+990824409
3541+990697917+990590825+990662784+990873299+991073655+991203252+991190271
3531+990897215+990368175+989908061+989793138+990060445+990536997+990871394
3521+990768465+990325282+989885203+989649926+989615569+989742132+990048945
3512+990598797+991333766+991846650+991634935+990766348+989983054+990029192
3502+990875980+991819701+992302108+992188102+991643683+991077394+990847831
3492+990949209+991188790+991472746+991676629+991540401+991033161+990565780
3482+990572130+991019757+991547174+991944288+992193464+992238403+992053850
3472+991795362+991609115+991458777+991333202+991397894+991769047+992346483
3462+992924906+993353767+993684638+994089724+994432658+994217487+993263960
3452+992001785+990860318+989952224+989422550+989395600+989573522+989607879
3442+989654935+989997939+990485073+990769170+990816508+990867585+991100605
3432+991541883+992148313+992749947+993009846+992699505+992012720+991444950
3422+991384208+991823158+992341685+992462534+992135685+991755220+991719875
3412+992068382+992441864+992384226+991865204+991435073+991609750+992228456
3403+992683279+992644336+992321509+992081504+991996917+991885028+991751340
3393+991878890+992359605+992925611+993349746+993625801+993758854+993746367
3383+993722381+993866722+994226094+994702222+995149849+995437474+995385550
3373+994736932+993475745+992173005+991669151+992334842+993798855+995295672
3363+996173783+996296537+996104999+996100907+996223379+995926583+994848398
3353+993212742+991549713+990193075+989054359+987769327+986126969+984462742
3343+983445721+983322333+983687983+984262809+985388896+987278595+989329144
3333+990806913+991706189+992342109+992636082+992387189+991878749+991681285
3323+992032332+992749241+993590809+994378125+994929034+995183219+995254260
3313+995109425+994455234+993265371+992131029+991733985+992186198+993096479
3303+994024961+994724586+995170732+995439943+995525024+995367208+995066038
3293+994844800+994781659+994734886+994578481+994457068+994721270+995500544
3284+996393047+996807093+996618518+996224507+995996708+995976178+996004115
3274+995872755+995487492+995111471+995232673+995996284+996953198+997508199
3264+997485059+997208934+997124136+997329219+997543614+997583827+997625379
3254+997826300+998001400+997904326+997599135+997400825+997556807+997981082
3244+998310965+998363382+998393859+998659684+998906813+998609595+997690001
3234+996740143+996420066+996812878+997528094+998195337+998578624+998517882
3224+998153361+997925632+998096711+998537565+999030414+999460051+999771450
3214+999996216+1000173150+1000188530+999937238+999572152+999353030+999349220
3204+999436065+999460333+999377016+999257296+999139834+998946461+998651500
3194+998399573+998366416+998636332+999216660+1000016393+1000795243+1001249078
3184+1001236450+1000955951+1000842792+1001184809+1001808947+1002208461
3176+1002068141+1001627216+1001389257+1001556738+1001909337+1002164368
3167+1002198302+1001989339+1001646687+1001462415+1001672719+1002167120
3159+1002565222+1002538343+1002037311+1001328515+1000829388+1000783955
3150+1001072073+1001423332+1001751027+1002102780+1002343207+1002205568
3142+1001740868+1001401956+1001542135+1002018334+1002395342+1002406771
3133+1002132974+1001804150+1001559207+1001462557+1001551588+1001708275
3125+1001681608+1001416630+1001140646+1000989179+1000826213+1000580071
3116+1000517213+1001003712+1002036112+1003129042+1003750711+1003792475
3108+1003504781+1003137296+1002832176+1002652067+1002483810+1002136008
3099+1001677375+1001443226+1001602453+1001867432+1001710321+1000880818
3091+999695470+998729174+998243450+998019390+997712083+997215989+996712417
3081+996485888+996697955+997300929+998122390+998915350+999359873+999169817
3071+998230963+996603280+994459749+992085808+989845132+988034165+986722395
3061+985801461+985217394+985040742+985242086+985505865+985350024+984422459
3051+982783346+980972449+979666323+979166773+979304553+979731439+980081780
3041+979932007+978836467+976544362+973272345+969658734+966236661+963105599
3031+960338565+958367947+957627546+958159266+959865258+962738608+966535432
3021+970491553+973669530+975480074+975687274+974091689+970544182+965306697
3012+959293890+953933651+950604349+949917776+951490362+954432426+957867479
3002+960928911+962777551+963109197+962411830+961343662+960056443+958443716
2992+956766225+955561900+955063055+955108276+955507084+956165297+957023937
2982+958187273+959939827+962396027+965282711+968150629+970598716+972269575
2972+972874948+972332645+970724150+967972284+963651570+957376818+949485881
2962+941190845+933928279+928364228+923708976+918109720+910430357+901903571
2952+895482079+893291139+894972792+898467459+902033168+905429349+909464131
2942+914706413+920653329+925907393+928882756+928243943+922840741+911663043
2932+894458638+872689848+849501067+828168969+810385719+796035687+784509764
2922+776131763+772407886+774964617+784126829+798376753+815112013+831920854
2912+847328682+860817887+872547906+882913173+892044697+899774573+906140050
2902+911613165+916622427+921061238+924460312+926462535+926819579+924996689
2893+920316110+912992449+904934949+898995440+897106870+899218231+903929922
2883+909786113+915916806+921923546+927537616+932397317+936206134+939143471
2873+941809551+944534045+946983684+948615036+949250180+949040864+948070405
2863+946161164+942972394+938095127+930993129+921158594+908781861+895302463
2853+883007919+873987367+869415926+869518080+873799216+881166827+890036265
2843+898784784+906441008+912928533+918681865+924161682+929581322+934769776
2833+939329083+943065870+946176685+948949928+951457910+953620065+955434208
2823+957031133+958535075+959960851+961291668+962570633+963818346+964895473
2813+965604057+966008227+966498888+967355906+968400228+969337458+970184669
2803+970997524+971516052+971569174+971529526+971893342+972650746+973419578
2793+973962798+974338184+974735863+975294039+975957190+976494696+976767646
2783+976913116+977152909+977491892+977730062+977725194+977563922+977467341
2774+977533092+977591929+977380497+976858018+976269930+975931088+976044529
2764+976652582+977598490+978567890+979315629+979880154+980461399+981069100
2754+981441382+981401804+981158696+981112064+981460218+982082945+982716960
2744+983166634+983397960+983484100+983525300+983635002+983899204+984276213
2734+984607154+984742676+984621545+984324044+984085451+984113882+984377731
2724+984717491+985091466+985557012+986118010+986703700+987219970+987603469
2714+987904003+988243410+988640595+988981342+989162721+989146848+988957779
2704+988744583+988694917+988802291+988901059+988949172+989040320+989158629
2694+989176196+989090198+989066846+989220147+989442444+989508195+989373660
2684+989252388+989291612+989367522+989369497+989416553+989589537+989732608
2674+989698040+989523292+989294787+989100075+989117923+989472004+989991308
2664+990334877+990373678+990298262+990302424+990321120+990208313+990065313
2655+990169018+990585463+991058205+991320856+991389922+991475850+991663014
2645+991767072+991549572+991001626+990335935+989754901+989329991+989107200
2635+989224169+989801534+990699257+991538214+992076637+992411669+992691463
2625+992853441+992812170+992692732+992704161+992901061+993185299+993464034
2615+993742205+994083728+994509626+994934255+995219480+995334191+995441495
2605+995706755+996023728+996152196+996158545+996386627+996895560+997295779
2595+997339589+997315673+997605555+998121614+998458128+998403171+998045987
2585+997540298+997044346+996782613+996920181+997382200+997917942+998332059
2575+998624198+998897148+999180540+999400650+999490669+999474513+999494055
2565+999766864+1000372237+1001091121+1001621713+1001876391+1001917380
2557+1001801963+1001652966+1001662419+1001888596+1002190400+1002398940
2548+1002443950+1002352590+1002240207+1002254176+1002458342+1002759017
2540+1003005301+1003162482+1003264353+1003190912+1002741239+1002033643
2531+1001569860+1001753567+1002486138+1003339204+1003990433+1004394885
2523+1004607728+1004604342+1004347688+1003977734+1003844046+1004270297
2514+1005185728+1006037031+1006297565+1006071811+1005894242+1005971845
2506+1005998935+1005730923+1005302274+1004881031+1004404832+1003847997
2497+1003476561+1003586898+1004117137+1004696901+1005000681+1004970133
2489+1004818102+1004886887+1005347424+1006020241+1006619758+1007091936
2480+1007528769+1007892867+1008061759+1008042782+1007941969+1007808421
2472+1007630429+1007413141+1007232608+1007256806+1007574414+1007934420
2463+1007931387+1007554942+1007191691+1007040083+1006929181+1006690447
2455+1006323033+1005925001+1005734310+1005978053+1006531784+1007053064
2446+1007406509+1007616460+1007629088+1007425275+1007126363+1006866041
2438+1006758737+1006870909+1007045586+1007018284+1006811860+1006728331
2429+1006914790+1007159662+1007166011+1006972568+1006966642+1007323404
2421+1007683834+1007676990+1007427744+1007212643+1007012640+1006690447
2412+1006278517+1005980452+1006088461+1006764946+1007738014+1008424376
2404+1008465223+1007980982+1007322557+1006746744+1006315414+1006022004
2395+1005966342+1006292486+1006907241+1007414622+1007448133+1006993168
2387+1006326913+1005748631+1005440759+1005454939+1005689300+1005934948
2378+1006054033+1006122324+1006390406+1007063152+1008043981+1008927948
2370+1009324569+1009144812+1008613163+1008156717+1008154318+1008633692
2361+1009396739+1010301518+1011109927+1011503021+1011570959+1011662742
2353+1011712478+1011411097+1010806077+1010184196+1009710608+1009416070
2344+1009311870+1009363511+1009426581+1009380513+1009332188+1009509193
2336+1009843238+1009837947+1009108198+1007958265+1007119097+1006848757
2327+1006645578+1006037454+1005261426+1004938175+1005267917+1005857839
2319+1006292486+1006467727+1006449878+1006423564+1006685297+1007366579
2310+1008187970+1008649213+1008458239+1007774982+1007099132+1006859409
2302+1007062799+1007388872+1007584784+1007659847+1007767151+1008040101
2293+1008462190+1008805547+1008846818+1008711507+1008768157+1009105023
2285+1009339313+1009063118+1008351853+1007751560+1007768562+1008410125
2276+1009230387+1009771561+1009903697+1009842744+1009949201+1010450445
2268+1011235221+1011901617+1012109240+1011925674+1011741050+1011786836
2259+1011903099+1011871634+1011743660+1011713607+1011893152+1012274393
2251+1012743467+1013149612+1013465173+1013729234+1013815021+1013575299
2242+1013277727+1013426795+1013981655+1014243812+1013787789+1013021708
2234+1012569002+1012627698+1013124567+1013938691+1014775179+1015289615
2225+1015429018+1015353744+1015128554+1014738212+1014289950+1013978480
2217+1013862993+1013801264+1013682179+1013618403+1013667858+1013540871
2208+1013141569+1013235963+1014716624+1017191237+1019210180+1019963351
2200+1019911216+1019744652+1019525601+1018922344+1017891850+1017043510
2191+1017113705+1017860244+1018066879+1017188768+1016254783+1016442934
2183+1017519427+1018344768+1018397326+1018180814+1018447062+1019643416
2174+1021948219+1024981149+1027199814+1026544282+1022632747+1018022363
2166+1016250832+1018367132+1022268790+1025686912+1028310593+1030330664
2157+1031210822+1031087362+1030720583+1029681199+1027085808+1023851252
2149+1022184767+1022804884+1024245051+1025016353+1025251348+1026000004
2140+1027579927+1028993356+1029089866+1028159902+1027633543+1028050411
2132+1028511231+1028317506+1027638975+1026487843+1024616487+1022542869
2123+1021296920+1021137764+1021553997+1022166707+1022724107+1022740968
2115+1022010161+1021077657+1020617825+1020676309+1020878570+1021012400
2106+1021099880+1021199917+1021340378+1021398862+1021148628+1020836735
2098+1021331277+1023005099+1024906933+1025833087+1025758095+1025508919
2089+1025502993+1025349339+1024574158+1023432409+1022713101+1022706822
2081+1022853068+1022651089+1022407910+1022746118+1023724830+1024731198
2072+1025071733+1024531124+1023536255+1022931588+1023370115+1024631302
2064+1025815309+1026469501+1026873953+1027036707+1026428230+1025018116
2055+1023600172+1022706893+1022057146+1021502920+1021655657+1022773279
2047+1023661690+1023045030+1021586238+1021194555+1022939631+1026419059
2038+1030392041+1033433437+1034779352+1034928984+1034814555+1034631695
2030+1034129957+1033347509+1032407951+1031414494+1031104435+1032514619
2021+1035161087+1036846973+1036352149+1034892934+1033816654+1032849440
2013+1031820921+1031690054+1032913851+1034478465+1035026623+1034080715
2004+1032192920+1030474018+1029894889+1030618218+1031831997+1032474478
1996+1032252040+1031605961+1030863514+1030012705+1029135652+1028522237
1987+1028663826+1030112530+1032399908+1033592311+1032285127+1029605431
1979+1028036231+1028825664+1031413365+1034590848+1037292202+1038820836
1970+1039064509+1038429859+1037717395+1037787519+1038683550+1039560603
1962+1039789813+1039431923+1038573142+1037035901+1035027399+1033400420
1953+1032900729+1033396752+1034100327+1034546120+1035084260+1036119341
1945+1037314777+1038133275+1038746408+1039620145+1040596671+1041118444
1936+1040861085+1039998918+1039119325+1038711769+1038713674+1038770394
1928+1038811312+1039081017+1039670305+1040210562+1040151513+1039371393
1919+1038146256+1036742774+1035494920+1034765172+1034462168+1034046570
1911+1033059815+1031434600+1029275760+1026528126+1022985064+1018516129
1902+1013231871+1007505347+1002073926+998195407+997258812+999617373+1003873465
1892+1008244620+1012256968+1016091676+1019201432+1021001959+1022055382
1884+1023242141+1024670244+1026003461+1027209550+1028477227+1029904978
1875+1031415764+1032659455+1033335234+1033794431+1034784714+1036182905
1867+1036725631+1036001879+1034962988+1034534621+1034873110+1035517707
1858+1036064384+1036506015+1036901225+1037172623+1037342503+1037668011
1850+1038377019+1039283208+1039903537+1040150666+1040506158+1041044298
1841+1041218904+1040974244+1040723516+1040733111+1040941862+1041137986
1833+1041321340+1041846923+1042869587+1043739656+1043957720+1043875813
1824+1043726252+1043390020+1043016468+1042923980+1043240176+1043857259
1816+1044362806+1044371695+1044097193+1044060367+1044303264+1044460374
1807+1044441538+1044443584+1044627714+1044926344+1044978408+1044565068
1799+1043993981+1043533373+1043120456+1042818651+1042880875+1043355733
1790+1043859446+1044028197+1043977050+1044062201+1044287320+1044163297
1782+1043484554+1042604044+1041866606+1041478733+1041612351+1042261604
1773+1043319190+1044518859+1045256368+1045494749+1045788793+1046059980
1765+1045881917+1045471327+1045309208+1045274781+1045169452+1045319296
1756+1045791333+1046157266+1046229860+1046295540+1046897385+1048228626
1748+1049514364+1050230990+1050700276+1051115945+1051558140+1052397379
1740+1053517258+1054209546+1054545002+1055262616+1056472726+1057367769
1731+1057754937+1058163339+1058999615+1060256852+1061631550+1063036302
1723+1064460032+1065560158+1066311635+1067472714+1069097224+1069785420
1714+1069612295+1069363825+1069209324+1069443191+1070274811+1071467849
1706+1072767202+1073741823+1073599669+1072002955+1069035565+1064187575
1697+1055878289+1042373493+1024524492+1003118319+972992410+927027625+867806938
1687+804429632+732058723+640372685+559646563+519523859+503377252+497632562
1677+503704595+527361603+564663973+602340107+637874297+678338312+719875222
1667+749607825+768230385+784137341+802401870+821317064+836021458+846015995
1657+853235879+858975948+866011138+878493269+889734038+893960005+896191721
1647+899870800+903464798+904135075+903546705+904323791+907430232+912441752
1638+919171186+928261439+937014826+941475436+943165978+944708863+947135221
1628+950156369+953019631+955627862+958393697+960891026+962227982+962874978
1618+964481427+967739969+970631450+971816233+972012145+971951262+971873095
1608+971662015+971094527+970100999+968513881+965774713+961216182+954334435
1598+944609672+931559700+915556517+898772438+884753771+876629108+875683059
1588+881120689+890931590+903058512+915941286+928288036+938867981+947310110
1578+954973529+963741025+971996060+976448346+978065800+979303424+981244764
1568+982909486+983076473+981816627+979588368+976659214+972114510+961219568
1558+939476669+916925360+897598378+880366813+869592014+869635331+879305206
1548+892522095+904471589+914928075+925023638+934605540+944573905+955563169
1538+962618959+965208494+966943764+970292467+975215025+979159859+981160460
1528+982500872+984279458+986242880+987730032+989199053+991421316+993902490
1519+995928770+997644921+999051084+999780833+999679949+998795489+997025157
1509+993513206+986719714+979224058+974836817+971888545+968144139+961175123
1499+947556745+927115528+909332277+903176963+906973151+915952856+925432605
1489+928250998+920206901+905920152+892664179+886619907+891258228+904478715
1479+920196390+934121722+945397905+954868342+963805294+971761911+976837065
1469+979289738+980739006+982547434+985168998+987582375+988763278+988951853
1459+988921588+989056758+988122279+984685250+978883240+970977982+961543172
1449+952309001+946307269+945838760+949826063+954790316+956963618+953508176
1439+943021425+925462235+905105040+890087977+881560556+875891458+872803219
1429+873946661+878238591+882865342+886497718+888898185+890218068+891594177
1419+894910781+900051685+903251038+901023061+891336324+874212274+855438741
1409+844992273+848098643+861740090+878938145+893507440+904021281+913100317
1400+923006882+933348798+942610412+950595672+957432198+962528516+965958349
1390+968752121+971893554+975394006+978385312+980532018+982299951+984109578
1380+985934021+987441208+988396146+988823879+988742749+988106900+987161838
1370+986281187+985466569+984297518+982141924+977980719+970416490+958883865
1360+943883028+924949774+900095637+867447495+827763600+785821110+749165771
1350+725807393+721236305+735236347+761875561+793114365+823276041+851083601
1340+877258820+900555328+918551704+931549753+941738227+950516094+958091328
1330+964159163+968180118+968952619+964361001+953026474+937465627+924744268
1320+922302389+932088528+948900121+965740779+979373831+989785096+997446399
1310+1002507373+1005047736+1005023750+1002159783+996079037+986666239+974642175
1300+961899369+951029260+944172204+941928707+943159064+945843628+947993720
1290+947809025+943512016+933631978+917837899+897661095+876341131+857620650
1281+843891724+834727889+826989195+816458492+799746725+775392279+744134498
1271+708849484+673980844+644315825+623816053+614857160+617757530+630910644
1261+651361315+675354061+699253401+720657599+738677256+753440135+765480142
1251+775179506+782487928+787136408+789007553+788298757+785648832+782297378
1241+779933385+780113917+783653664+790380206+799313278+809143086+818823544
1231+827938489+836539068+844691809+852273887+859097009+865064666+870195905
1221+874519934+877964300+880406531+881786945+882043810+881019241+878593941
1211+874795848+869606618+862885367+854916263+847111606+841777823+840742460
1201+844063791+850028343+856216815+860497881+861371406+857891132+849514119
1191+836093205+818313834+798537532+780951675+769764452+766398324+768453599
1181+771430585+771431713+767035231+760033341+755062598+757548216+770282909
1171+791255777+814871938+834945530+846721334+848090530+841234815+832866550
1162+830521040+837368219+850916754+866384196+880430236+892074680+901593160
1152+909416018+915829538+921119652+925597828+929489327+932941736+936077384
1142+938939517+941528488+943915551+946126525+947893048+948600644+947337341
1132+943091056+935661080+926901979+920459040+919337609+923607104+930775700
1122+938137879+944335876+949124887+952643116+955179459+957135403+958878080
1112+960620827+962389466+964066110+965537601+966761186+967621589+967832105
1102+967022989+964683476+959668006+949909592+933854274+913645936+896497476
1092+890668869+898784713+915808232+933889407+948194076+958132740+964915297
1082+969445115+972160437+973584026+974282874+974406827+973467833+970340157
1072+963265108+950478562+932093890+911962660+896766476+891840390+897436259
1062+909336157+922702114+934773444+944713237+952521351+958539167+963239217
1052+966984259+969989816+972438679+974534378+976486865+978424537+980284465
1043+981893312+983183565+984220057+985047373+985664880+986104465+986373958
1033+986349266+985829257+984662886+982686695+979422721+973896695+965121297
1023+953219635+940219540+929561216+924407965+925918116+932799511+942427904
1013+952408544+961331387+968671132+974500938+979226879+983235629+986659607
1003+989458882+991635994+993354826+994893901+996438832+997881398+998884661
993+999126500+998309201+995850956+990825750+982771494+973076997+965397916
983+963658696+968848913+978094090+987231540+993809931+997480403+998583421
973+997097327+992400099+983483535+969676371+951738902+932586456+916569446
963+906930188+903254424+901567974+896973323+886335810+869835828+851437258
953+837475382+833284759+840400867+856538373+876856837+894191191+900302272
943+891721305+875847789+867174263+874568260+894310488+916435545+934444409
933+947499743+956956422+963749279+967950978+968971032+965832209+957477137
924+943388275+924893618+906181391+893256782+890685519+898490105+912136702
914+925695608+934836797+936994296+929648343+909411926+873830751+825733652
904+776217127+740800752+729465943+739898442+761358867+784377557+805737169
894+826111648+846159490+865440828+883169756+898779634+912055360+923099793
884+932250083+940051001+946983331+952892715+957027041+959024044+959651215
874+960319728+961934361+964203397+965986075+966246397+964462802+959996760
864+951187640+934877997+906708596+863075846+804876060+740327022+683410715
854+647901852+640788848+659527318+694673918+735430495+774088905+807199770
844+834187985+855641567+872554255+886079298+897225884+906684328+914858233
834+921911059+927954908+933299837+938245606+942662477+946165680+948676272
824+950527452+952122825+953574915+954397081+953540276+950049277+943552299
815+933844186+920402108+903039606+883114588+863681501+848240374+839215590
805+837081018+840130880+844809271+846278646+838671100+816589429+780267994
795+740579866+715234785+716194450+740964846+776790470+811455932+839400708
785+860612027+877124567+890737865+902319381+912165133+920600277+928033357
775+934670233+940518593+945638474+950253302+954640331+958908768+962923867
765+966534515+969823816+973048284+976411449+979926434+983456586+986924938
755+990433503+994037801+997533949+1000676440+1003399946+1005605771+1006985408
745+1007264355+1006308147+1003613848+997709543+986018467+964874379+930047433
735+879839396+820461457+767317000+736571327+732941561+747176670+766078107
725+782754670+797362555+811905746+826668201+839908724+848856611+850637525
715+842603517+823224823+794923427+766371304+749791603+753558373+776430040
705+809268661+842158994+869690993+891088489+907577254+920347715+930176395
696+937798332+943876679+948464557+950600822+948698636+942265997+934031350
686+929357544+932085283+941220263+952390131+962077503+969553547+975549070
676+980698299+985009912+987954022+989231506+989421068+989734583+990751110
666+991640509+991807919+991207062+989664741+986687191+981242366+971382716
656+953884691+924250008+878323319+816380889+747587118+689953620+661707252
646+669275361+704251587+751031131+796472521+834405555+863900059+885651424
636+900416489+909679303+916218540+922493363+928180309+930164754+925074503
626+910910648+885977779+847557469+793476981+725925914+654188597+593666158
616+559427935+557222533+581120498+619498655+661400792+699177492+728331742
606+746087479+750478176+741219877+721847321+700925178+689393540+694198283
596+714484154+744117214+776059028+804814330+827626455+844854634+858609945
586+870582579+881128590+889996759+897368956+903905724+910138923+916078925
577+921313941+925608622+929420190+933241635+936615594+938585224+938836234
567+937528486+934532382+930275162+926985437+927489926+932421585+939646831
557+946627557+952319372+956720227+960008118+962616208+964944292+966643229
547+967080274+966202939+964012212+959978840+953724829+945322490+934867062
537+923417118+914437696+912175927+917900052+928788362+940497287+950166175
527+957139777+962164700+966458605+970343120+972017084+967301866+949526799
517+909377357+837790943+734033433+614907602+515356764+469993225+487971399
507+548549325+620189743+683168665+733546087+772323652+800233224+819630754
497+832834380+839717680+840020684+836551979+834507003+837947983+847545124
487+861445129+876880753+891098930+902477479+911168783+918177305+924198226
477+929520510+934414073+939089572+943342701+946739940+949484188+952282263
467+955101644+956780687+955618479+949600169+937050382+919364064+903908828
458+901470477+913967846+931330348+945588597+955170922+960983515+965061190
448+969589667+974680977+978180441+978995270+979224763+981315030+984606236
438+986684087+986436746+984635725+982151659+979355559+977330125+977384518
428+979312666+981841318+984406868+987558459+992405673+1000481939+1011256597
418+1017443164+1014952043+1008882797+1002807343+996748891+990123797+984045662
408+980179137+977241517+970318993+954590171+928376785+891929563+847387025
398+807427923+794258160+809423162+836403898+862871187+882996279+895378867
388+901208038+902379770+901552383+902824434+907460003+910975129+908127952
378+896573386+877479988+860009124+859683263
##END=
