##TITLE=X7352
##JCAMP-DX=5.0
##DATA TYPE=LINK
##BLOCKS=1


$$ === CHEMSPECTRA SPECTRUM ORIG ===
##TITLE=X7352
##JCAMP-DX=5.00
##DATA TYPE=INFRARED SPECTRUM
##DATA CLASS=XYDATA
##ORIGIN=ComPlat
##OWNER=
##XUNITS=1/CM
##YUNITS=TRANSMITTANCE
##XFACTOR=1
##YFACTOR=9.0805075e-010
##FIRSTX=3997.453
##LASTX=373.96442
##MAXX=3997.453
##MAXY=0.9750120676815173
##MINX=373.96442
##MINY=0.5889306093554573
##NPOINTS=2559
##XYDATA= (X++(Y..Y))
2559A048379626A047709177A046527456A045496708A044734559A044324636A044696948
2552A045904662A047230135A047918700A047859887A047502345A047349272A047360168
2545A046908301A045683651A044265888A043292772A042689735A042274692A042354642
2538A043133857A043990396A043877889A042610836A041467383A041794009A043241901
2531A044506130A045177434A045480363A044832823A042070617A037272383A032838387
2524A031541467A032732706A032860639A030758642A029780275A032964613A038606258
2517A042944157A043708997A040193635A033097797A025784295A023207720A026555108
2510A031305950A032549898A030200963A028306849A028926427A029438027A027299797
2503A024341392A025063894A030900622A038419643A043676767A045488372A044222500
2496A039226886A029122560A014958255A001969435I95625506I96521101A002796502
2489A012995547A023856705A030424927A029495790A022819590A017858174A019621533
2482A023197874A021845620A015981323A011369639A009473424A008491644A011247154
2475A019644638A027295924A027455298A020579158A011955150A005091809A001872550
2468A003909826A007826249A008224751A005792781A007065282A014402217A022419316
2461A025706118A022177760A010409257I90672229I76111720I83324858A003128641
2454A020678078A030376091A031641569A026144857A016710717A005874306I95455629
2447I88744376I90066895I98366116A007458401A013970042A018751866A022683452
2440A024600671A023820275A021823237A019014033A012460711A001670969I95102353
2433I98818836A006487911A013176583A021200114A031215038A038803966A040098325
2426A034390909A024869140A017606509A014020716A008923294A000700676I96440757
2419A000364860A007923068A016628339A027273541A037942438A045013924A047566147
2412A047057107A044444889A040135543A036243735A035124504A035436361A034074195
2405A031828578A032912888A037892946A042707787A043657666A039595784A032394724
2398A026595477A025002192A025931986A027518116A029177894A028625401A023213496
2391A015045294A010692231A011946682A012848710A006851951I92018445I75560408
2384I70449070I76139158I82207858I85095831I89348988I97778701A005348659
2377A006635535I99073586I84058059I70765128I71638602I87104158A005794618
2370A018258120A021563433A017410311A010778614A007138208A008334829A013095189
2363A019829480A026702996A031039451A030062068A022028034A008515406I98194597
2356A001108629A014537764A028434716A036770892A037874632A033358585A028850284
2349A029705182A034677560A038977125A039580162A035502854A026364095A012981106
2342A000557514I98582006A009328885A024272667A035927349A041296981A039666872
2335A032077813A020115475A004602264I90337005I87565216I94450677I98902659
2328I98586470A002982001A016362299A031123208A040880429A044970142A045513315
2321A044079011A040215165A033602833A027123159A023359480A018269804A004853272
2314I82327323I65166280I71096677I92981846A014281964A028328444A035589959
2307A038931702A040689875A041286019A040094847A036939718A031931895A023768288
2300A010621472I97294999I96997386A010403021A024492759A031348551A029223974
2293A019782679A009393146A005634128A007570449A009189399A009314509A010610379
2286A013035981A014484989A016446384A022113038A029587227A033660924A032229770
2279A028059845A025212700A024468734A024160619A024274111A026581299A030132369
2272A029956519A022166076A010487500A006310682A014154097A026002483A034587633
2265A038768192A040349334A041151654A042003073A042851210A043171535A041854529
2258A036613224A024801399A007727723I95550741I98750177A012843984A026491831
2251A034802933A039322196A042475223A044001883A042391072A038217340A034756131
2244A034333933A034697252A031838752A025964412A022397260A025380149A033056312
2237A040555247A044579714A044799084A043539120A043774899A046021239A047848137
2230A046723195A042467543A037159810A033048238A030930882A030954184A033616551
2223A038641178A044125681A048140893A050282076A051018428A050353821A047886209
2216A044084853A041058839A041004686A043196150A044164408A041935858A038824249
2209A038654109A041835888A045544625A047609929A048191829A048470341A048832412
2202A048667393A047640911A046564149A046512228A047193310A047005579A045152753
2195A043167071A043515686A046562245A050024504A051634133A051344726A050764007
2188A051037464A051881991A052440720A052404618A052013731A051379581A050488843
2181A049742645A049698338A050330847A051173930A051913761A052393985A052429824
2174A051810640A050245646A047693423A045139559A044215936A045353678A047349206
2167A049109348A050493504A051411548A051470886A050824068A050309645A050351130
2160A050503350A050369443A050213942A050375089A050689177A050645395A049774743
2153A048171940A046910664A047296431A049388385A051917765A053623820A054055141
2146A053391388A052126369A050877236A050177971A050246302A050854393A051562914
2139A052103986A052291717A051830792A050767551A049763190A049359438A049426391
2132A049699716A050168913A050698695A050970117A050986527A051189487A051953014
2125A053115764A054085992A054428437A054266306A054050153A054042013A054142049
2118A054148351A054031314A053830652A053425455A052719560A051965617A051556481
2111A051645621A052214787A053095416A053744073A053560214A052642630A051817401
2104A051814447A052599767A053450529A053653883A053275927A053054916A053344521
2097A053517154A052776404A051272653A049972648A049553207A049865195A050455892
2090A051110390A051689928A051861905A051376758A050548379A050214467A051040221
2083A052817167A054559390A055396499A055278150A054725919A054107194A053404516
2076A052537474A051589629A050817504A050697448A051631048A053223152A054312779
2069A054156293A053189478A052366547A052175600A052420766A052587558A052405537
2062A052163587A052322699A052924292A053604981A053945785A053649682A052797016
2055A052021279A052013206A052820843A053859140A054405529A054021665A052951992
2048A052181179A052547189A053756675A054808100A055236928A055304537A055161573
2041A054650367A053904432A053420729A053461622A053761664A053842008A053486632
2034A052937748A052577974A052443083A052251414A051842672A051350043A051027815
2027A051071137A051486706A052098997A052756778A053446329A054111855A054477274
2020A054232370A053470615A052799510A052773713A053268837A053705279A053784704
2013A053667208A053598614A053706132A053939024A053981296A053519583A052730194
2006A052165425A052095125A052339175A052744569A053313998A053795403A053697534
1999A052911098A051945006A051400651A051435112A051798234A052217281A052625038
1992A053004307A053227353A053316427A053607475A054226725A054647019A054290724
1985A053336972A052452995A052007823A051986490A052308520A052762948A052899874
1978A052448203A051728655A051316763A051380631A051603939A051639188A051384701
1971A050943467A050517528A050236850A050041833A049889285A049964706A050413422
1964A050982654A051224801A051015212A050701320A050752126A051306458A052072085
1957A052652870A052864691A052728881A052387814A052076352A051908707A051697476
1950A051288472A050958630A051068971A051454542A051613457A051348008A050819735
1943A050193593A049624493A049361275A049492818A049791547A050050038A050311680
1936A050606142A050739851A050442698A049521963A047990970A046310778A045220166
1929A044958655A044845360A043973330A042239509A040446612A039422691A039234041
1922A039277954A038927173A037835248A035706930A032332169A028168282A024457772
1915A022316588A021894785A022691132A024303452A026497345A028882710A030922086
1908A032129932A032235875A031416357A030105128A028220663A025121526A020811918
1901A016533817A013611449A012246461A011797088A011695871A011829908A012364679
1894A013364248A014558572A015543241A016120743A016392165A016707370A017472603
1887A018696859A019775262A020010910A019234124A017659744A015334373A012110848
1880A008020084A003338559I98527000I94400790I91903377I91268571I91852966
1873I93080044I95018071I97858060A001425278A005325357A009031600A011848484
1866A013272352A013453781A013111730A012998041A013401729A014052289A014571372
1859A015016018A015799894A017168820A018972482A020856356A022476422A023610160
1852A024204007A024341130A024198296A023956806A023550034A022551646A020619855
1845A018009278A015311202A012798626A010362652A007879943A005250789A002241448
1838I98565399I93986010I88295725I81430678I73591989I65154531I56610538I48540271
1830I41345053I35149339I30185429I26908998I25576173I26190763I28950146I34143862
1822I41439312I49705450I57743619I65008613I71490321I76993859I80845430I82494706
1814I82165389I80611357I78379327I75537368I72056993I68206210I64422839I60935769
1806I57788714I55169998I53379661I52479996I52259839I52575437I53579601I55563445
1798I58505046I61830248I64866502I67508783I70147321I73045797I76081723I78893684
1790I81047077I82349838I83186094I84206209I85604608I87034646I88178755I89031027
1782I89674958I90161942I90604292I91123703I91682695I92110669I92328660I92500441
1774I92901240I93589609I94306334I94789380I95006978I94917970I94226319I92656008
1766I90422075I88242819I86820856I86346671I86581859I87341448I88654449I90522241
1758I92856998I95573256I98395719A000736449A002131895A002695350A002916820
1751A003146364A003384835A003449556A003241739A002796764A002094217A000995860
1744I99490795I97839616I96364352I95195300I94262880I93464170I92808096I92447797
1736I92603496I93388553I94622917I95900538I96981435I97985599I99023174I99835603
1728A000057336I99638683I98763830I97538983I96016590I94421139I93106562
1721I92299516I92006629I92194426I92970425I94515595I96822783I99556370A002292845
1713A004910839A007636943A010690131A014025114A017417728A020631145A023478880
1706A025871203A027857738A029564515A031087237A032473952A033754724A034896929
1699A035743490A036160766A036331037A036701116A037494575A038468282A039268830
1692A039778133A040005970A039958577A039764020A039650462A039707701A039898517
1685A040254352A040771072A041181914A041178566A040854369A040644715A040812688
1678A041214078A041571817A041776352A041876978A041917413A041848294A041574180
1671A041079384A040482058A039936719A039506579A039153106A038800487A038400213
1664A037982873A037659332A037527789A037579907A037695959A037770395A037886185
1657A038274053A038959993A039568478A039714002A039494501A039343726A039462797
1650A039615936A039483408A039052217A038605930A038398178A038457911A038709772
1643A039105780A039543075A039843051A039992513A040264330A040914299A041818099
1636A042586549A043000017A043131954A043105041A042996997A042964046A043126440
1629A043335832A043321523A043037760A042657900A042328517A042104422A042038585
1622A042193430A042557339A042996210A043342856A043572859A043802665A044116163
1615A044526611A045028693A045454633A045408487A044684016A043678737A043076685
1608A043148429A043600428A044052820A044389751A044604198A044601047A044333695
1601A043965256A043759146A043943595A044683819A045917462A047174406A047840523
1594A047696443A047085661A046582200A046533561A046798616A046907513A046612788
1587A046187702A046007651A046036139A046012706A045965182A046142082A046484396
1580A046556141A046098104A045339434A044655725A044240289A044227817A044727536
1573A045501959A045999184A045930393A045549811A045265851A045265851A045536880
1566A045983233A046491879A046962716A047253896A047216350A046912830A046621190
1559A046521089A046622241A046980505A047615508A048254056A048550159A048517602
1552A048414415A048335122A048248214A048229573A048302171A048283266A048123826
1545A048106563A048356849A048545236A048414022A048119166A047813217A047515670
1538A047525516A048174172A049074428A049466891A049372762A049555767A050276169
1531A050849864A050596296A049619241A048439490A047411039A046786801A046799863
1524A047286848A047678917A047685021A047600674A047803502A048310376A048846065
1517A049108626A049065304A049041279A049295241A049603816A049494197A048749180
1510A047608222A046671208A046477438A046949785A047459744A047617806A047700119
1503A048137348A048870615A049469713A049797520A050227595A050999196A051654548
1496A051521363A050572863A049358322A048245720A047253896A046571895A046630643
1489A047405591A048114243A048069017A047623188A047794706A048950696A050224838
1482A050401279A049234721A047641108A046653682A046593490A047265646A048361378
1475A049360356A049534500A048571427A047119925A046344123A046804852A048023856
1468A049238725A050138062A050583956A050337345A049632566A049307319A049675692
1461A049914360A049226713A048062387A047515735A047901700A048536112A048746358
1454A048570442A048438111A048600768A049038129A049656459A050306691A050627344
1447A050207509A049155034A048177389A047728410A047501819A047181101A047071154
1440A047469918A048076696A048538082A048977280A049602831A050291463A050794595
1433A050969264A050701189A049934183A048895099A048083064A047896711A048338076
1426A049091560A049758202A050043934A049875304A049330621A048468240A047414255
1419A046557782A046337034A046885195A048132162A050093952A052800626A056047059
1412A059320865A062027867A064095928A066220439A068884250A071467521A073108920
1405A073741823A073444604A071909214A069459062A067419161A066386509A064964151
1398A061585124A057254708A054751715A055678358A059548965A064622034A069055899
1391A071858802A072835135A072221530A070765105A069177399A067390476A065063465
1384A062488137A060413512A059205601A058509093A057604242A055953456A053542885
1377A050903689A048782263A047608419A047156683A046753784A045871317A044523001
1370A043079048A041857811A041022737A040728143A041148438A042252703A043557040
1363A044389226A044700886A045283049A046679479A048183624A048549240A047547636
1356A046209758A045563136A045598385A045582500A045130501A044718215A045094596
1349A046382588A047926643A048962839A049306400A049370465A049693546A050516346
1342A051618839A052440064A052507608A051912907A051243640A050908021A050727314
1335A050488252A050596493A051538693A052839550A053384495A052868038A052079305
1328A051594684A051017444A049805922A048330133A047634544A048093041A048782394
1321A048694305A048046633A047707536A047992677A048688201A049638605A050927517
1314A052693435A054291578A053920054A050813434A047426071A046923660A048979775
1307A050531115A050083121A048800117A047898877A047403031A047334240A048196621
1300A049949346A051630720A052401730A052311475A051914023A051920522A053079925
1293A055352914A057492129A058456712A058799157A059617559A060725763A060886909
1286A059456806A057009476A054513179A052453323A050906709A050196482A050883669
1279A052705382A054186947A054375466A054497294A056510611A060269169A063441692
1272A064053196A061915491A057986399A054002564A052236908A053667142A056251923
1265A056484551A053077562A048144240A044954585A045609150A050285752A057268755
1258A063338309A065348015A062624537A057579496A053615746A052815854A054964915
1251A057663187A058031297A055541432A052659631A052124072A054379142A057793352
1244A060327392A060739284A059072745A056462365A054219636A052986191A052674990
1237A052893244A053215603A053273367A052854188A051861839A050260875A048379954
1230A047189897A047646950A049562069A051672664A052938405A053205691A052743453
1223A051999684A051701612A052261457A053208383A053880473A054224296A054242610
1216A053432938A051617855A049683569A048771236A049107313A050057652A051136056
1209A052428314A053892354A054869211A054809676A053998757A053062596A052284234
1202A051802107A051805323A052186955A052507345A052337993A051373082A049582089
1195A047629818A046674753A047356164A049263800A051460712A053247373A054452462
1188A055261806A055911447A056559184A057261403A057855972A058032873A057677103
1181A056856206A055625649A054417869A054047987A054486726A054662313A054334899
1174A054377697A054431522A053073164A051255849A051968505A055742226A059833253
1167A062038370A062503496A061865933A060075137A057049779A053371105A050296320
1160A048828408A048843834A049803559A051649625A054015692A055552198A055498045
1153A054906101A054704454A053969809A051537052A048176863A046063380A046279205
1146A047358921A046872789A044486899A042558455A043008419A045062695A047092750
1139A048551078A049334822A049228814A048562106A048013813A047665853A047414190
1132A047951718A050054633A053080319A054777643A052874340A047664279A042887312
1125A042353067A045580793A048856043A049815768A048968484A047581901A045688443
1118A042481196A038198895A034822625A034057982A035099101A035585889A034255231
1111A031469066A028305930A026719865A028808734A034029822A039501393A043480569
1104A045949166A046971775A046566184A045458111A044704890A044854944A045363918
1097A044430448A040590890A035220536A031709375A031166924A031803175A032844294
1090A035538891A039562898A041908354A040389046A036418076A033718097A034243218
1083A036459035A037901085A037800459A036914381A036070708A035424677A034796237
1076A034421235A034872774A035581885A034421891A030517480A026669716A026482510
1069A029383742A032161111A033505619A034093756A034437907A034645330A034975304
1062A035445878A035621532A034666992A031058749A023501723A013891339A008629751
1055A012353192A021701999A030436546A035443450A037084127A037449612A038402445
1048A040287894A042170587A043257720A043481882A042450017A039122781A033216802
1041A025790859A018805953A015751451A019507319A027331435A033793911A036622217
1034A037237200A037756938A037724185A034545492A027265598A019500361A016355932
1027A017515860A019565870A022283375A027028899A032396497A035578537A035840639
1020A034722392A033460656A031293807A027109900A022034139A019119319A019856787
1013A022501957A024149920A022641639A017609201A011485363A008240832A009174761
1006A011552644A011915897A008491578A002757840A001083817A008426726A019984851
999A028095487A030241332A028550899A025695484A022694545A020712801A021038639
992A022230797A020717856A014239429A004299794I97167919I98323646A005655658
985A014419546A021544791A024445169A021897410A016657221A013641315A013493691
978A013869678A014697729A015621746A012773946A002741561I88469803I79419528
971I80532392I86843633I92579800I96274556I98632615A000412318A002381328
964A003839459A001315724I92213659I82230110I82628743I92661653A005180554
957A016492201A024013782A026350770A025016896A022112513A016346808A003863287
950I84774981I70981938I74891469I90248587A005360737A014763304A017159040
943A013028170A004820452I97485093I93895952I90486927I82343340I71661314
936I67158264I72333535I85765952A002122968A013156891A015348224A011048724
929A004453786I95815206I82173002I68840820I70285823I84175883I98388040
922A007619417A010478376A007934096A003710411I99687519I94373025I90313899
915I95011179A007076047A016359542A017929328A015293545A015803437A020534522
908A023524500A019853046A007321804I86724824I71952428I77524035I86382445
901I85899398I81420898I86634175A002548776A016921094A023832351A023094753
894A015198104A002099731I92948698I99767928A016100198A027912220A030942829
887A027499343A022253837A017751509A013629303A011698759A014836821A019695181
880A019895974A014651847A011901522A017550387A025291863A028044157A024656859
873A017872680A010932409A004893247I99315404I94391141I90919299I88661473
866I86395835I84173980I84280317I88962367I97435863A006348753A013109367
859A017384055A019918620A021431102A022641901A024180836A025668506A025117260
852A019907527A009255630I98280061I96044356A000454262A001695453I97144420
845I93386518I97182032A004898105A010121490A010644708A004678144I87710018
838I60044834I46575462I61092189I80279940I93116408I99499788A001740876
831A003241149A004264020A000068035I86725808I66398675I45308081I31517007
824I38229965I62200065I81544367I87920263I86232982I86865688I93120872
817I97298215I93762439I84672583I75485381I66803938I56230284I46716917
810I41624943I35674986I25046982I14761423I09689601I07493148I03479249
803H95162503H85315552H90203778I23257170I59358106I79052205I83014051
796I74013793I53820960I27527001I05742458H93459992H83402402H66305096
789H43918632H35853616H57074834H95526478I32170586I58576134I75474551
782I85806911I89988587I86799851I76634413I63454515I55739295I60994123
775I73812015I82233852I80380960I69463745I56573517I47650715I39233473
768I23768245H96361815H61711462H40302972H40435828H50185041H62009469
761H73475632H83464629H92440731I00521632I05780923I07944359I10424115
754I15943603I23214438I30803826I41256242I55623769I68782400I76950602
747I81549159I86042100I90480954I91321017I86966642I79694823I71176233
740I59963440I48474696I47400625I60379665I77580354I90614991I98137163
733A002751932A006424043A008245756A007262399A005799148A006708199A007968032
726A005140777I97649522I89616997I85291307I86557310I93416056A002175480
719A006893830A004420835I96902339I90432774I88270191I87151617I83109427
712I75783847I66727336I56248598I43429064I29791916I21534115I23700832
705I33169039I43187508I49861149I51410258I46254744I35595167I26762161
698I28217929I39478507I53473920I65345609I74267033I81001063I85838156
691I88612111I89846541I90726186I91873511I92695261I91495358I86224252
684I76746330I67162924I63436661I66526280I71460652I73549389I71836967
677I68237258I65484832I65257258I67386692I70535190I73217053I74323943
670I73658220I72441842I72518969I74283312I76159572I76874460I77095208
663I77998680I79294942I79815010I79193266I77839371I75842070I72946024
656I69473919I66675480I66090888I68577471I73700755I79955283I85638544
649I89619032I91670354I92442152I92817089I92948435I92266368I90642363
642I89035491I88730658I90278257I93234233I96502853I98910011I99906363
635I99864485I99432441I98616271I96792589I93525741I88973395I83581642
628I77892868I72684054I68701268I66033585I64142884I62583141I61441525
621I61188090I62306796I64935424I68621909I72447881I75557257I77648161
614I78951710I79805952I80422444I81012156I81837319I83051269I84707963
607I86966445I90039852I93826635I97757959A001196194A003951967A006198109
600A007916176A008755846A008511598A007409499A005830983A004005726A001985517
593I99719879I97196079I94644972I92525581I91215402I90775285I91024192
586I91739736I92749414I93883742I94906351I95528095I95563082I95118107
579I94594429I94429672I94852526I95893646I97541543I99789327A002483070
572A005153051A007126656A007942629A007676326A006934855A006615778A007411337
565A009236726A011319359A013027908A014314456A015286850A015854835A015939117
558A015526568A014314259A011712018A007543668A002634633I98453155I96094045
551I95622946I96303831I97295524I98106443I98528247I98405303I97701902
544I96656385I95502364I94125364I92360167I90406518I88486345I86327438
537I83460602I79801094I75598480I71081711I66457686I62042988I58146322
530I54921878I52452427I50812735I49898826I49361495I48873854I48311449
523I47597480I46624495I45414221I44083957I42549026I40449852I37522823
516I34138939I31451695I30769824I32606831I36394337I41067592I45712490
509I49658977I52262136I52991399I51987367I50372355I49671186I50839779
502I53750528I57145243I58856681I56692194I49946087I40116925I29603004
495I19682864I10537607I03262571I00280798I02664588I08112069I12848142
488I15149948I16463671I19615648I26298413I35830487I45928118I54455898
481I60325971I63269278I63613824I62445625I61497386I62404009I65791438
474I71062544I77089628I82879620I87580838I90427457I90870725I88138780
467I80412008I65287649I42454241I16798173H98029339H94675387I06713014
460I25014950I39411555I46882199I51458438I57794358I66585750I75509800
453I82415478I86777336I89060893I89740467I88887144I86336890I82449283
446I78876355I77924703I80344267I83885425I84679212I80124766I70442506
439I58205989I46957751I39535615I36673111I36989169I38363149I39225202
432I39037274I38271319I37753614I37542515I36638978I33923245I28932029
425I21813282I13299156I04887822H98461186H95392834H96027772H99882690
418I06170038I14205582I23450612I33277805I42861736I51478261I58889829
411I65252072I70646451I74972272I78301084I80960432I83193577I85067343
404I86723839I88401931I90193318I91972759I93499878I94451005I94506077
397I93634638I92270306I90954942I89702723I87945994I85193175I81406129
390I76648001I70933430I64731020I59207068I55655867I54688330I55803295
383I57649687I59000236I59576688I59796583I59987858I60175130I60335029
376I60587613I61414155I63672637I67863305I73331726I78602766I82466218
369I84570840I85350843I85726568I86602011I88353751I90796092I93498763
362I95942613I97588279I98101257I97508526I96137171I94455403I92815448
355I91237654I89565798I87779333I85954667I84086284I82203395I80389953
348I78391208I75557848I71652518I67483971I64115512I61429317I58245636
341I54300922I51451874I52092063I56551724I62607100I67398245I69412086
334I68842395I66704559I63958172I61176865I58419845I55235179I51279765
327I47194056I44443337I44037418I45572348I47530921I48269702I46693024
320I42312327I35115600I25629669I14884827I04067123H94379349H87200082
313H83706054H83963823H86806241H90902715H95792189I01856163I09560224
306I18830854I28976271I39057623I48369672I56623338I63708280I69500372
299I74023836I77583702I80597507I83466050I86548514I90013399I93699753
292I97169363I99911943A001729783A003044425A004495927A006155246A007541830
285A008427841A009076958A009607134A009675531A008999043A007711444A005784248
278A002190380I94758398I80677194I57348531I23687573H81375366H35172271
271G92436291G61677155G48621645G51130283G58962145G60861838G52395104
264G37182263G22468090G14398479G15575145G24625749G37074284G47359515
257G51997587G52302683G53863804G62411472G79728345H03254060H28937829
250H53804114H76243089H95341241I10831150I23297276I33696787I42461002
243I49333927I54034422I56610801I57123319I55310009I50517617I41719990
236I27781553I07987747H82199217H50404476H12788039G71127049G29995578
229F95398722F71028874F56080825F48565743F50774470F68493455G03544541
222G49159698G94253277H31009762H57560047H75716130H88252754H97538350
215I04954906I10687004I14208864I15566303I16062675I17391364I20168667
208I22934942I24514246I25784778I27380295I28856674I29328102I27968692
201I24119420I17989477I11514530I07645236I08337412I13309068I20588239
194I27976964I34152395I38722267I41730821I43575048I45118381I47228451
187I50139201I53522560I56955215I59957007I61770187I61478154I58492771
180I53199610I47317131I43007195I41034312I40308922I39460129I38161634
173I37024483I37054021I39068585I42894293I47233637I50654279I52512029
166I52890313I52201025I50948282I49237173I46326029I41077700I32876415
159I21847941I08502497H94064539H81579770H75782558H79967450H92496853
152I07966086I21612883I31414017I37431124I40986723I43781749I46441359
145I48285521I48876020I48654682I47705393I45062652I39896833I33247020
138I28269588I27815161I31616189I36841412I41088006I43595856I43885329
131I40904148I34066998I24314700I13570578I03387287H94444399H87068670
124H81802028H79488735H80735768H85001857H90698902H96779746I03375275
117I10163786I15370367I17494353I16914685I14340735I08301441H95888418
110H77003597H57944961H48740562H53464820H65677444H75974555H80115140
103H80576328H82535360H87745487H93410565H96774954H98021003H98530305
96H98171450H95155939H88019797H77523796H67184740H61528260H62514767
89H68595020H77116236H85422086H90979383H92872447H92744777H93190539
82H95491819H99260815I03625036I08414211I13844101I18854812I21347893
75I20554828I17395040I12186948I04426634H96063546H92094676H95057741
68I02302648I09776246I15183490I18743946I21814792I23680550I21089927
61I13530078I07284543I08297437I13999078I19723101I24752192I28560440
54I28160757I22403388I14773960I09950783I10459757I16330093I23761681
47I26308324I21344940I13889984I11306582I14910295I20763367I25897679
40I29098821I28531099I23160482I15450711I08733420I02024137H93236619
33H89517182I02492086I24140162I38040790I40723768I37749085I34674366
26I32569876I30489606I28278121I25363368I20002532I10480303H95914083
19H78310297H66639861H70646408H85989217I01957971I14187071I23002814
12I28146382I26604165I16550250I04671078I03568257I15024443I28349669
5I35132469I31644874I15270594H91899724H78945366
##END=


$$ === CHEMSPECTRA PEAK TABLE EDIT ===
##TITLE=X7352
##JCAMP-DX=5.00
##DATA TYPE=INFRAREDPEAKTABLE
##DATA CLASS=PEAKTABLE
##$CSTHRESHOLD=0.93
##MAXX=3997.453
##MAXY=0.9750120676815173
##MINX=373.96442
##MINY=0.5889306093554573
##$CSSOLVENTNAME=- - -
##$CSSOLVENTVALUE=0
##$CSSOLVENTX=0
##NPOINTS=20
##PEAKTABLE= (XY..XY)
398.0454621657541, 0.7869529757609458
501.45229028928816, 0.782311382639195
525.5333324550429, 0.7706995038795215
546.7813108365908, 0.7986204054333013
592.1103313838935, 0.7952550086288185
692.6840957232212, 0.5889306093554573
743.6792438389366, 0.6487100746548092
753.594967083659, 0.6797864462084837
813.0893065520199, 0.8052650722447308
967.4912827912681, 0.813638690385429
991.5723249570224, 0.8531460198524613
1028.4021541517054, 0.8154562148009543
1069.481579022698, 0.8175006538344985
1253.6307249961133, 0.8730376978573937
1361.287148795956, 0.8428689865918968
1374.0359358248847, 0.8367997442763363
1456.194785566849, 0.763037743951829
1488.7750190852225, 0.758997502899012
1508.6064655746882, 0.8039114509802641
2961.968186872565, 0.8446555764425218
##END=


$$ === CHEMSPECTRA PEAK TABLE AUTO ===
##TITLE=X7352
##JCAMP-DX=5.00
##DATA TYPE=INFRAREDPEAKTABLE
##DATA CLASS=PEAKTABLE
##$CSTHRESHOLD=0.93
##MAXX=3997.453
##MAXY=0.9750120676815173
##MINX=373.96442
##MINY=0.5889306093554573
##NPOINTS=81
##PEAKTABLE= (XY..XY)
3902.545363229085, 0.9040784874424295
3852.966747005473, 0.88635897942979
3838.801428084441, 0.897830072185082
3820.3865134870994, 0.9036034379684148
3800.555066997654, 0.9048187767244178
3749.5599188819388, 0.8812170058503025
3735.394599960907, 0.881504002554246
3711.3135577951525, 0.9064113524517977
3674.483728600469, 0.896759335062712
3648.9861545426115, 0.8764199644287101
3627.738176161063, 0.9053242241053395
3566.8273048006254, 0.9040105970281057
3028.545185801407, 0.9001221693479783
2959.13512308835, 0.8404701380747798
2925.1383576778735, 0.8647002609988292
2869.893613885848, 0.8956528343615533
2833.063784691165, 0.9011929664016978
2808.9827425254107, 0.9007923634684217
1772.0813975058636, 0.9054790767238893
1749.4168872322125, 0.889362636965046
1733.8350364190774, 0.8919147880580826
1716.8366537138386, 0.8817008770373536
1698.421739116497, 0.8782287869938981
1684.2564201954651, 0.879756633231615
1670.0911012744327, 0.8992552787223743
1653.0927185691944, 0.8825821312097211
1647.4265910007816, 0.8911799824945735
1636.094335863956, 0.9016478099304235
1597.8479747771694, 0.893679920669485
1575.1834645035183, 0.904458824499067
1569.5173369351055, 0.9020453727097885
1558.1850817982795, 0.8595385582006965
1541.1866990930412, 0.8458647168441052
1534.1040396325252, 0.8955495989798365
1508.6064655746677, 0.8039114509802641
1488.7750190852225, 0.758997502899012
1473.1931682720874, 0.8678597836292212
1456.194785566849, 0.763037743951829
1417.9484244800624, 0.8602878480817188
1396.700446098514, 0.8946945102898303
1374.035935824863, 0.8367997442763363
1362.7036806880374, 0.8415470753676708
1338.6226385222826, 0.8748493825985457
1328.7069152775603, 0.8765025770698435
1320.207723924941, 0.8830265439594815
1298.9597455433932, 0.877259555416566
1280.5448309460512, 0.8978176155448935
1252.2141931039873, 0.8728075660155675
1205.4686406645815, 0.8996742406257138
1191.3033217435495, 0.902992609481854
1153.0569606567628, 0.9040761628325095
1100.6452806489442, 0.845186236760568
1086.4799617279123, 0.8623496327006895
1069.481579022674, 0.8175006538344985
1048.2336006411256, 0.8730884224803395
1026.9856222595777, 0.8124106561718902
1002.9045800938229, 0.8880052600026772
990.1557930648942, 0.8505467209483832
968.9078146833463, 0.8130621344583255
917.9126665676308, 0.8669054540727475
854.1687314229866, 0.8639665877746056
832.9207530414383, 0.8572338854429635
815.9223703362, 0.8024499451142405
753.594967083659, 0.6797864462084837
743.6792438389366, 0.6487100746548092
692.6840957232212, 0.5889306093554573
653.0212027443313, 0.824187937283727
617.607905441751, 0.8508657845565123
592.1103313838935, 0.7952550086288185
566.6127573260355, 0.8425032528074208
546.7813108365908, 0.7986204054333013
525.5333324550429, 0.7706995038795215
501.45229028928816, 0.782311382639195
491.5365670445658, 0.8106575643134327
471.7051205551211, 0.810067239612807
457.5398016340887, 0.8238604097345572
444.79101460515994, 0.8262814909662373
434.8752913604376, 0.8275126252650365
419.29344054730245, 0.8077267442529865
398.0454621657541, 0.7869529757609458
383.88014324472215, 0.8204858334450428
##END=

##END=

