##TITLE=NiW- X15671
##JCAMP-DX=4.24
##DATA TYPE=INFRARED SPECTRUM
##DATE=20/5/2020
##SAMPLING PROCEDURE=Diamant-ATR
##ORIGIN=Fabienne
##XUNITS=1/CM
##YUNITS=TRANSMITTANCE
##RESOLUTION=4
##FIRSTX=3997.453
##LASTX=373.96442
##DELTAX=-1.4165319
##MAXY=1.0006253
##MINY=0.54110914
##XFACTOR=1
##YFACTOR=9.3190489e-010
##NPOINTS=2559
##FIRSTY=0.99987656
##XYDATA=(X++(Y..Y))
3997+1072938421+1073490972+1073741823+1073730566+1073669037+1073575527
3989+1073270054+1072680726+1072068373+1071869650+1072261405+1072937782
3980+1073419592+1073487646+1073232957+1072872670+1072619197+1072574169
3972+1072667295+1072785621+1072906249+1072976158+1072771742+1072121396
3963+1071285311+1070847569+1071065352+1071573067+1071960217+1072280273
3955+1072663457+1072839923+1072558819+1072198340+1072347623+1072876764
3946+1073070883+1072615423+1071812725+1071068167+1070613155+1070535700
3938+1070741523+1070928030+1070828956+1070482933+1070150085+1069982062
3929+1069918869+1069920276+1070055616+1070325335+1070571261+1070619999
3921+1070448202+1070177268+1069936266+1069764662+1069718291+1069956158
3912+1070491567+1071024034+1071262733+1071271368+1071259919+1071257169
3904+1071236445+1071304627+1071441181+1071388670+1071113131+1070951951
3895+1071140889+1071540767+1071842850+1071920818+1071924144+1071922417
3887+1071769872+1071402742+1071037786+1070891829+1070862088+1070674173
3878+1070279924+1069892326+1069574061+1069187423+1068891224+1069340735
3870+1070805611+1072336110+1072893649+1072554725+1071916340+1071424936
3861+1071179201+1071018342+1070843347+1070802733+1071098100+1071528743
3853+1071438367+1070831195+1070423898+1070475833+1070933787+1071677897
3844+1072444522+1072925949+1073070883+1073033210+1072745454+1071969491
3836+1070852430+1069995238+1069898530+1070576954+1071533412+1072179408
3827+1072233966+1071750300+1071008300+1070290541+1069753341+1069536197
3819+1069688933+1070018327+1070220185+1070119128+1069846595+1069632073
3810+1069654203+1070057407+1070689907+1070957324+1070534996+1069770546
3802+1069068969+1068548462+1068280917+1068418240+1068914377+1069452217
3793+1069824784+1070075252+1070159231+1069966072+1069687846+1069695649
3785+1070021077+1070358786+1070562563+1070682424+1070616225+1070209823
3776+1069622159+1069152053+1068915784+1068918279+1069182306+1069630602
3768+1070029008+1070235024+1070263486+1070141578+1069933644+1069720785
3759+1069420493+1068891096+1068276312+1067795077+1067383750+1066971848
3751+1066863244+1067209012+1067539621+1067697410+1068007488+1068546096
3742+1069028354+1069523660+1070307554+1071355731+1072251043+1072309439
3734+1071226596+1069714069+1068733626+1068510342+1068729085+1069124230
3725+1069608343+1069980911+1069924754+1069518672+1069325320+1069669105
3717+1070212510+1070512354+1070591089+1070726556+1070891701+1070823264
3708+1070673150+1070755850+1070983228+1070979710+1070441870+1069428552
3700+1068466913+1068154021+1068660648+1069616594+1070387312+1070541584
3691+1070054145+1069267309+1068838905+1069145465+1069759417+1070114779
3683+1070112029+1070028305+1070152899+1070561923+1071084924+1071208943
3674+1070500650+1069524044+1069128771+1069532039+1070380341+1071140889
3666+1071492925+1071334496+1070882939+1070630233+1070831771+1071279235
3657+1071660756+1071874702+1072051232+1072351332+1072760037+1073069923
3649+1073070883+1072757734+1072197445+1071519021+1070968133+1070696239
3640+1070629017+1070632599+1070718561+1071015592+1071558612+1072033195
3632+1071815859+1070485875+1068634808+1067934126+1068807628+1070026130
3623+1070777596+1071093367+1071409521+1071911543+1072084939+1071415022
3615+1070155521+1068986268+1068416513+1068444591+1068677214+1068753838
3606+1068789400+1069339775+1070677499+1072244519+1072981402+1072487695
3598+1071622828+1071454101+1072006076+1072365276+1071928301+1071004654
3589+1070114267+1069470126+1069179556+1069357556+1069875057+1070468989
3581+1071016167+1071464975+1071670030+1071520620+1071088826+1070478839
3572+1069753469+1069071591+1068666468+1068652013+1068927489+1069291997
3564+1069624206+1069868405+1069958525+1069852863+1069648958+1069572270
3555+1069712598+1069836169+1069597662+1068993944+1068457063+1068416705
3547+1068895573+1069503449+1069868213+1070027601+1070090538+1069835785
3538+1069061997+1068115069+1067585800+1067558041+1067697986+1067918456
3530+1068364897+1068895509+1069168299+1069215693+1069359027+1069599709
3521+1069638021+1069432581+1069212175+1069006480+1068655147+1068215934
3513+1067913595+1067743653+1067582730+1067627118+1068206916+1069181666
3504+1069949058+1070031247+1069518863+1068935100+1068723457+1068893143
3496+1069058415+1068863977+1068421629+1068187664+1068420286+1068869286
3488+1069049397+1068818949+1068547823+1068581657+1068765095+1068746163
3479+1068553899+1068465634+1068522686+1068578204+1068569249+1068443440
3471+1068127413+1067796037+1067799490+1068163935+1068542066+1068721410
3462+1068802511+1068886427+1068929280+1068906382+1068882909+1068917383
3454+1068968871+1068899986+1068611335+1068183314+1067797252+1067518962
3445+1067285892+1067080324+1066952276+1066901108+1066897399+1067013742
3437+1067363411+1067867288+1068232244+1068231988+1067899716+1067456025
3428+1067182852+1067324076+1067919799+1068724416+1069359923+1069529225
3420+1069198168+1068678813+1068372572+1068333557+1068259939+1068001604
3411+1067841256+1068100230+1068606986+1068817670+1068509702+1068117116
3403+1068186001+1068699472+1069188958+1069335298+1069200470+1068962859
3394+1068633273+1068110272+1067467794+1067023783+1067006962+1067272268
3386+1067481609+1067522863+1067603325+1067861724+1068070105+1067930545
3377+1067538342+1067238113+1067150041+1067194813+1067425644+1067958751
3369+1068691093+1069326472+1069586725+1069390879+1068987612+1068838457
3360+1069139389+1069539586+1069528010+1069038012+1068491026+1068290256
3352+1068453929+1068716293+1068826496+1068758507+1068727550+1068943735
3343+1069354678+1069684648+1069625293+1069001747+1067984591+1067077574
3335+1066637465+1066566469+1066669637+1066943130+1067343072+1067686601
3326+1067862043+1067831982+1067561559+1067230118+1067237538+1067736682
3318+1068370717+1068618306+1068297483+1067740072+1067517619+1067894791
3309+1068544177+1068881886+1068632953+1068012157+1067472911+1067314929
3301+1067442274+1067522608+1067399037+1067191423+1067004979+1066833183
3292+1066758094+1066901620+1067140894+1067217902+1067173450+1067338403
3284+1067789577+1068100934+1067844390+1067190655+1066744662+1066807599
3275+1067081603+1067159251+1066996473+1066774212+1066593013+1066479676
3267+1066459272+1066474879+1066435415+1066449678+1066756942+1067307574
3258+1067695747+1067649888+1067322988+1067028325+1066946200+1067114926
3250+1067471120+1067876115+1068165086+1068128693+1067592644+1066696244
3241+1065889261+1065470707+1065355642+1065375214+1065499680+1065693351
3233+1065832976+1065872503+1065901285+1066004709+1066217440+1066580029
3224+1067029988+1067305144+1067247835+1067133795+1067324140+1067701951
3216+1067889866+1067876626+1067962716+1068173401+1068190158+1067853089
3207+1067374540+1067005683+1066760268+1066546066+1066358280+1066249228
3199+1066210404+1066154887+1066007779+1065822487+1065737868+1065813468
3190+1066045387+1066514470+1067254615+1068008704+1068371805+1068167644
3182+1067563158+1066947991+1066697332+1066812907+1066875396+1066570883
3173+1066095788+1065861950+1066002406+1066308199+1066509289+1066505068
3165+1066396528+1066366786+1066517796+1066773380+1066927140+1066828769
3156+1066528477+1066202537+1065990254+1065923032+1065964286+1066040974
3148+1066037264+1065875318+1065695014+1065799525+1066254920+1066736475
3139+1066938589+1066906865+1066805552+1066640599+1066368641+1066059139
3131+1065818841+1065683246+1065652481+1065745159+1065957378+1066213986
3122+1066444434+1066663177+1066886397+1067033250+1067024935+1066892474
3114+1066665032+1066240337+1065473457+1064332282+1062813808+1060603734
3105+1056868405+1050807938+1042973669+1036010471+1033244072+1035970048
3097+1042442865+1049594617+1055248234+1058743521+1060443514+1061227791
3088+1061883701+1062577859+1063117682+1063493127+1063785936+1063979863
3080+1064241331+1064898201+1065879347+1066671556+1066984384+1066998711
3071+1066942874+1066876611+1066889212+1067059537+1067195644+1067009265
3063+1066557579+1066158916+1065899111+1065581293+1065139266+1064768042
3054+1064576993+1064391701+1064087955+1063930422+1064257961+1064923785
3046+1065460793+1065750212+1066056772+1066466500+1066747284+1066725858
3037+1066460871+1066103463+1065790443+1065601761+1065512025+1065408026
3029+1065179561+1064808465+1064397969+1064068128+1063786959+1063383180
3020+1062740318+1061883957+1060845247+1059556580+1057940439+1056031169
3012+1053924134+1051634813+1049032473+1045925040+1042304711+1038514569
3003+1034987366+1031835993+1028941738+1026361720+1024290567+1022595115
2995+1020605127+1017435269+1012530624+1005931933+998047007+989305081+980117034
2985+970868161+961682289+952380073+942845554+933255519+923904437+915063629
2975+907114679+900687274+896531281+895213129+896901289+901261187+907338092
2965+913705246+919122787+923114851+925852595+927719012+929095304+930313166
2955+931663682+933433455+935745162+938307912+940532888+941995206+942726269
2945+943097557+943496283+944084844+944794352+945390779+945547033+945169861
2935+944799852+945386174+947498197+950935728+955085517+959444648+963834863
2925+968296585+972798538+977042924+980617905+983359615+985508287+987471348
2915+989440932+991303000+992924642+994422841+996042245+997833765+999568104
2905+1000983092+1002069516+1003069659+1004214799+1005523293+1006839462
2897+1007967972+1008747837+1009113560+1009159483+1009080621+1009004061
2888+1008899358+1008594269+1007801357+1006202548+1003615494+1000074476
2880+995789347+991108114+986406222+981899856+977704655+974128651+971672714
2870+970663425+971102958+972910724+976123947+980781323+986675366+993265741
2860+999909267+1006173382+1011866335+1016875555+1021130430+1024661982
2851+1027601009+1030186144+1032679114+1035098465+1037137318+1038555887
2843+1039554495+1040568005+1041784396+1043033855+1044085422+1044891382
2834+1045547612+1046136875+1046703049+1047311245+1048001437+1048650376
2826+1048997934+1048943248+1048736594+1048726616+1048984694+1049320101
2817+1049562957+1049668107+1049652949+1049598135+1049635615+1049833955
2809+1050147168+1050498756+1050886353+1051371234+1051929413+1052374895
2800+1052623827+1052949959+1053647699+1054485639+1054896838+1054680973
2792+1054151256+1053675969+1053461959+1053645972+1054167118+1054623729
2783+1054651231+1054384390+1054226985+1054257302+1054203256+1053940188
2775+1053677440+1053646740+1053863436+1054182213+1054404410+1054391810
2766+1054231782+1054217071+1054531498+1055005122+1055268957+1055153445
2758+1054857055+1054677903+1054651999+1054587080+1054399869+1054209652
2749+1054089599+1053970825+1053860110+1053908912+1054135394+1054257174
2741+1053988798+1053407785+1052878644+1052659005+1052694887+1052776436
2732+1052781808+1052728530+1052651714+1052564792+1052583468+1052941964
2724+1053747093+1054765336+1055571680+1055909453+1055894230+1055889305
2715+1056133505+1056466097+1056521934+1056231491+1055948660+1055964970
2707+1056098838+1055974884+1055579611+1055260770+1055222778+1055325370
2698+1055394511+1055433846+1055478810+1055512901+1055585879+1055811466
2690+1056208018+1056645505+1056946436+1057013147+1056882924+1056655035
2681+1056371116+1056034431+1055710473+1055483415+1055347372+1055253799
2673+1055211009+1055239855+1055291087+1055314305+1055368863+1055547759
2664+1055777056+1055809803+1055509895+1055054371+1054763289+1054788490
2656+1055005954+1055165790+1055138479+1055036974+1055038509+1055116477
2647+1055111935+1055014780+1054951780+1054954274+1054959199+1054995592
2639+1055170139+1055456488+1055623040+1055459622+1055079188+1054855456
2630+1054972311+1055227959+1055401227+1055569058+1055903185+1056388129
2622+1056881069+1057276150+1057508389+1057538258+1057406565+1057227413
2614+1057082223+1056972084+1056936139+1057148422+1057718242+1058418604
2605+1058861591+1058948704+1058890629+1058810743+1058647581+1058423977
2597+1058272072+1058167497+1057965063+1057736087+1057767427+1058116265
2588+1058444828+1058478918+1058412336+1058595134+1059012345+1059360159
2580+1059501895+1059551847+1059634036+1059814723+1060148146+1060600216
2571+1061049791+1061425812+1061717853+1061876538+1061879160+1061828184
2563+1061826201+1061815648+1061698601+1061589357+1061777272+1062357581
2554+1063035941+1063423411+1063388233+1063037732+1062605298+1062449619
2546+1062838241+1063576211+1064118848+1064130936+1063748136+1063337065
2537+1063193027+1063380046+1063684304+1063789134+1063591370+1063304509
2529+1063246817+1063569751+1064108230+1064476896+1064458987+1064279643
2520+1064296657+1064473442+1064460266+1064133878+1063688205+1063230699
2512+1062667531+1062046416+1061720539+1062014116+1062803958+1063512635
2503+1063619256+1063232746+1063024684+1063407293+1063939056+1063863711
2495+1063098110+1062230684+1061695339+1061534544+1061826393+1062632545
2486+1063525619+1063785872+1063183433+1062207275+1061483823+1061216279
2478+1061291624+1061698217+1062488315+1063390791+1063932532+1064012163
2469+1063932468+1063893005+1063856356+1063830004+1063893261+1063982357
2461+1063926072+1063708033+1063546789+1063606144+1063758497+1063831092
2452+1063889423+1063984852+1063936562+1063731250+1063738094+1064167585
2444+1064722119+1065016207+1064970731+1064715659+1064418564+1064203339
2435+1064050219+1063864415+1063698567+1063727029+1063958372+1064182808
2427+1064257449+1064235511+1064122813+1063773080+1063194498+1062718571
2418+1062621864+1062764623+1062825385+1062766669+1062857365+1063270546
2410+1063859746+1064365669+1064634429+1064525889+1063891854+1062886466
2401+1062078524+1061979258+1062515051+1063131177+1063394181+1063380174
2393+1063403583+1063530032+1063630257+1063755939+1064018111+1064181017
2384+1063866462+1063118066+1062386299+1062029658+1062099758+1062456207
2376+1062879942+1063223472+1063558878+1064041648+1064649268+1065183078
2367+1065456443+1065476143+1065568310+1066089328+1066861965+1067296765
2359+1067215088+1067022696+1066965452+1066777282+1066165376+1065253690
2350+1064417925+1063941679+1063895372+1064163364+1064575778+1065095453
2342+1065668727+1065951430+1065629455+1064905492+1064263525+1063929910
2333+1063862560+1064007238+1064233144+1064212997+1063649829+1062593593
2325+1061483056+1060845822+1060851259+1061236554+1061758084+1062406127
2316+1063147807+1063823736+1064284888+1064424513+1064271265+1064139507
2308+1064319171+1064551921+1064232825+1063214965+1062076477+1061509599
2299+1061643276+1061988852+1061950220+1061381295+1060692126+1060390747
2291+1060556915+1060866993+1061131020+1061567099+1062413162+1063499843
2282+1064386393+1064721287+1064395219+1063580177+1062699000+1062106666
2274+1061791727+1061567035+1061508896+1061904744+1062721386+1063489609
2265+1063937777+1064368036+1065069166+1065788716+1066150090+1066177145
2257+1066131222+1066217312+1066528477+1066913325+1067014509+1066780352
2248+1066596467+1066581500+1066278010+1065382186+1064203723+1063193858
2240+1062673160+1063052698+1064505422+1066252682+1066779072+1064962033
2231+1060798044+1054869655+1046994067+1035098273+1014821415+980097526+926820630
2221+860285847+798942314+765277348+769530624+803583636+850301242+895688991
2211+933153183+961664636+982807192+998612158+1010807029+1020879196+1029660777
2201+1036922349+1042071769+1045043415+1046263452+1046421881+1046674075
2193+1048278192+1051308553+1054291073+1055860907+1056371820+1057211039
2184+1058956508+1060847933+1061848715+1061958279+1062365192+1064048492
2176+1066318688+1067202616+1065246399+1060654006+1055122105+1051041840
2167+1050160343+1052148924+1054769494+1056355254+1058008300+1061960773
2159+1067295805+1069955007+1068456871+1065450879+1063244770+1061863490
2150+1061190375+1061906215+1063688333+1064679393+1063718074+1061754118
2142+1060444281+1060471145+1061500389+1062782339+1063598469+1063808514
2133+1063885010+1064084437+1064066976+1063519479+1062541274+1061390442
2125+1060402451+1059996561+1060287963+1060872749+1061265848+1061339977
2116+1061257981+1061239112+1061356095+1061405153+1061070642+1060303441
2108+1059470234+1059166872+1059777498+1061001053+1061980537+1062135576
2099+1061661824+1061091876+1060728775+1060650169+1060854905+1061223762
2091+1061517083+1061547464+1061358909+1061246724+1061527124+1062177406
2082+1062763471+1062879878+1062633760+1062420006+1062292662+1062046607
2074+1061919647+1062482751+1063649701+1064512841+1064389015+1063512955
2065+1062671689+1062521447+1063144481+1064097933+1064921162+1065403165
2057+1065350014+1064632191+1063502017+1062318501+1061181548+1060491868
2048+1061235147+1063790413+1067072713+1069539075+1070235024+1069091802
2040+1067260819+1066413285+1066857296+1067469713+1067967322+1069376872
2031+1071655192+1073042484+1072489550+1070998770+1070164284+1070632087
2023+1071972114+1073070883+1072838068+1071223590+1069702237+1069707354
2014+1071021796+1072297286+1072600393+1071968979+1071089785+1070696623
2006+1070746256+1070307234+1068808843+1067038622+1066384951+1067257557
1997+1068549102+1068949875+1068536246+1068428473+1069035454+1069588516
1989+1069483366+1068821507+1067754654+1066427932+1065246335+1064589785
1980+1064729410+1066008290+1068186512+1070033358+1070746832+1070934554
1972+1071368715+1071846688+1071632294+1070375544+1068586454+1067394048
1963+1067618931+1069020359+1070453383+1070829404+1069969718+1068557672
1955+1067548575+1067586887+1068444719+1068979169+1068222074+1066560329
1946+1065342211+1065425295+1066566150+1067849187+1068352105+1067775186
1938+1066645972+1065809695+1065647940+1065938062+1066406825+1066995961
1929+1067574863+1067889226+1067922486+1068001156+1068377817+1068834108
1921+1068906574+1068514308+1068097928+1068030450+1068106243+1067937132
1912+1067496192+1067063758+1066919721+1067147034+1067578189+1067954913
1904+1068222394+1068521151+1068848818+1068973540+1068798162+1068570273
1895+1068555370+1068609992+1068377113+1067893640+1067633450+1067825394
1887+1068148392+1068375706+1068689110+1069102292+1069127044+1068441073
1878+1067581387+1067451292+1068192717+1069022981+1069211600+1068729021
1870+1067944168+1067190783+1066663433+1066457162+1066635354+1067250074
1861+1068183698+1069037245+1069379431+1069162286+1068746738+1068453290
1853+1068250664+1068010239+1067878289+1068109760+1068639605+1069087965
1844+1069150326+1068903248+1068636023+1068469663+1068366304+1068347692
1836+1068520959+1068863337+1069132609+1069080545+1068695314+1068209218
1827+1067786443+1067389251+1067071050+1067094267+1067583625+1068324410
1819+1069010126+1069510613+1069811928+1069812376+1069376744+1068602316
1810+1067929457+1067784012+1068121017+1068555562+1068848690+1069060398
1802+1069256180+1069238591+1068803215+1068160225+1067732716+1067684171
1793+1067820853+1067822196+1067569362+1067228072+1067005171+1066974662
1785+1067020969+1066982082+1066889340+1066906097+1067085633+1067315569
1776+1067433000+1067310005+1066912621+1066372926+1065905635+1065596964
1768+1065421329+1065363957+1065430412+1065574194+1065621013+1065390181
1759+1064922441+1064304332+1063465304+1062399091+1061314713+1060410574
1751+1059647723+1058744288+1057550283+1056332868+1055493969+1055223482
1742+1055452778+1056010765+1056674542+1057211295+1057621534+1058208943
1734+1059217848+1060308430+1061064374+1061596585+1062134489+1062749720
1725+1063346467+1063744426+1063888272+1063986642+1064328637+1064968940
1717+1065490854+1065504605+1065338565+1065422673+1065748549+1066108836
1708+1066472448+1066972040+1067552349+1067924980+1067960030+1067805119
1700+1067807997+1068257572+1068978018+1069467951+1069382309+1068887898
1691+1068329527+1067908031+1067678030+1067603837+1067673681+1067918392
1683+1068258979+1068596944+1068918343+1069159792+1069252022+1069234497
1674+1069182498+1069071975+1068935868+1069022598+1069494239+1070063291
1666+1070435794+1070612963+1070620447+1070425497+1070132176+1069906845
1657+1069734664+1069487395+1069197336+1069204180+1069521230+1069684072
1649+1069637125+1069581097+1069710424+1069983597+1070197735+1070274743
1640+1070279860+1070337552+1070541200+1070868995+1071114985+1071132255
1632+1071016935+1070911848+1070916070+1071035227+1071150483+1071155664
1623+1071102193+1071127202+1071280514+1071529254+1071815028+1072024305
1615+1072105662+1072140200+1072160540+1072133804+1072051040+1071930092
1606+1071792386+1071667600+1071587522+1071600890+1071785158+1072140648
1598+1072537136+1072840690+1073013958+1073070883+1072998416+1072716096
1589+1072203393+1071658709+1071378117+1071387583+1071406643+1071211565
1581+1070844563+1070466367+1070199462+1070134798+1070303397+1070600939
1572+1070920035+1071220711+1071451415+1071522986+1071409969+1071209454
1564+1071029727+1070884729+1070750477+1070633878+1070352454+1069643905
1555+1068655275+1067622065+1066705135+1065905443+1065007188+1063785552
1547+1062082041+1059537776+1055606346+1049255821+1036656339+1013413655
1538+985611455+959860516+932831592+901585912+873747190+861391204+865354358
1528+880169735+901493554+924471827+945330976+964732733+983916003+1000178155
1519+1011383629+1019047701+1024824057+1029247787+1032864853+1036177278
1510+1039128201+1041532522+1043419278+1044446796+1044429399+1043818709
1502+1042770468+1041119724+1038594391+1034689313+1029232629+1023033113
1493+1016342320+1007636723+994436849+975675907+953227799+930031934+908677094
1483+891565042+880706359+876550174+877021495+878794722+879238733+876794757
1473+871137942+865020167+862954387+866627674+875805104+890056481+906748444
1463+920784084+929801614+935243651+938721669+939987949+937725172+932674762
1453+926585193+920464732+915115117+910752852+906744543+903041066+900975478
1443+901697906+904788582+908604564+911775253+914094827+915991369+917368044
1434+917229827+913747652+904181153+887051128+864566946+839909851+814997172
1424+792687729+776397691+766726234+761927890+761205525+765777515+777379732
1414+797207591+824521521+855274772+883507999+904686501+916709448+918362942
1404+909408157+890806668+862060737+822212373+775427097+730300177+694548771
1394+675723421+678761010+700337280+731648838+762750799+785338532+796457852
1384+796578352+785692807+766581812+747653039+737223081+737385155+746359320
1374+762337682+781836466+798722932+807117875+802834601+783855619+750313456
1364+704129660+652762802+610598445+587411407+580648467+582846197+589396853
1354+600034298+616416631+639243511+667209961+697577341+727659204+755918015
1344+781739375+805090790+826571759+846779476+865429447+881835381+895890145
1334+907795917+917506518+924767578+929124470+929697231+925575393+917257393
1324+907766176+901409382+900737930+905055679+911996747+919883975+928301688
1315+937166353+946091077+954541282+962155912+968820609+974581935+979538836
1305+983728152+987085669+989517429+990968489+991406296+990796629+989157590
1295+986595544+983218903+979035087+973948539+967756187+960136439+950776851
1285+939497504+925995098+909352640+887994282+860420355+826199895+786410694
1275+743425538+700749822+663193144+636395883+624893379+629933044+648936714
1265+676677897+707115250+735127367+757672822+774212945+786368736+796743369
1255+807432942+819224865+831876538+844839313+857609952+869703127+880697405
1245+890330102+898399169+904655737+908933126+911300222+911946794+910903542
1235+907854121+902122281+892793969+878890215+859663964+835374383+808465192
1225+783965886+767803768+763747232+771591735+787983470+808590874+829789395
1215+849289715+866023700+879714403+890462051+898487178+903955950+906815474
1205+906771214+903511940+897076348+888238929+878846914+871766029+869951100
1196+874896040+885695943+899631870+913713945+925871527+935125965+941126053
1186+943698973+942641778+937666521+928566994+915755421+900826963+886379228
1176+874937998+867829802+864858348+864797650+866119320+867370441+867062026
1166+863562518+855768224+844498023+833220978+826755452+828538849+838748849
1156+854786757+873208775+891167210+906749915+918945746+927615717+933215863
1146+936374720+937664922+937471123+935742412+931769728+924148701+911099644
1136+891628298+867395834+843486559+826235010+819339993+822042879+831083242
1126+843782246+858911347+875597745+892668544+909018961+923872138+936587131
1116+946591372+953564356+957556292+958867537+957662402+953451083+944800300
1106+929472348+905031246+870288681+827763398+785411830+754579013+744018895
1096+754716271+780317735+812173402+843806999+872006391+895838849+915476171
1086+931413087+944148931+954235681+962347345+969148852+975094127+980342877
1077+984853849+988565448+991540228+994050850+996560449+999480671+1002847142
1067+1006316461+1009521369+1012333627+1014793848+1016963372+1018892342
1058+1020587730+1021993763+1023121442+1024146209+1025170656+1025896474
1050+1025789917+1024622007+1022603877+1019917237+1016330999+1011305278
1041+1004133826+993776590+978873140+958588351+934093139+909462651+890655147
1031+882600343+886296976+898186949+912170846+922368694+924725620+917411217
1021+900952388+878150709+853177460+830086170+811778257+799833661+794772314
1011+796311575+803521339+814979583+829091591+844521496+860384346+876064653
1001+891038907+904966966+917829388+929826814+941090620+951493971+960773993
992+968820034+975781633+981920834+987437449+992370173+996617118+1000124493
982+1003064158+1005725598+1008228993+1010439195+1012153132+1013337287
973+1014191217+1014997817+1015914939+1016883678+1017663990+1017979569
965+1017749696+1017188767+1016554156+1015781007+1014431899+1011992400
956+1008109708+1002613432+995636611+987963136+980968278+975725092+972159706
946+969375207+966720674+964279257+962441110+961282283+960315143+958702392
936+955779739+951574688+947039284+943857722+943751804+947475172+954211951
926+962074747+969373416+975409706+980182209+983763202+986143026+987238086
916+986510221+982291163+971565837+951663593+924200636+897348242+881402692
907+880297974+888650256+897866254+903456870+905933914+907380497+909478769
897+913853506+922049853+934324610+948863296+962514089+972271444+976284806
887+974177196+966862154+955527353+940237393+920122738+895813713+871509358
877+853788022+847858353+854735653+871513515+893642591+916869732+938042925
867+955451177+968867876+978898980+986118530+990923525+993884490+995664241
857+996542476+996366138+995035131+992791861+989964829+986700758+983186347
847+980028130+978180709+978392481+980663892+984198578+987945228+991227399
837+993823856+995654775+996744654+997474757+998516026+1000309145+1002615863
827+1004645506+1005764230+1006087612+1006180802+1006275463+1006201589
819+1006001842+1006062028+1006604665+1007540847+1008852795+1010665806
810+1012834434+1014829602+1016262690+1017351929+1018639124+1020357474
802+1022333518+1024428081+1026679089+1028963677+1030902305+1032247064
793+1033104512+1033713859+1034255664+1034888740+1035726744+1036747098
785+1037869788+1039072876+1040299053+1041339427+1041948070+1042078357
776+1041973590+1041987022+1042257381+1042601997+1042820165+1042987612
768+1043274281+1043586086+1043653884+1043514067+1043673583+1044605417
759+1046109692+1047373414+1047762099+1047460400+1047252338+1047735747
751+1048770237+1049628068+1049679236+1048945807+1047921615+1046888597
742+1045567439+1043365296+1039719831+1034401045+1028089343+1022708132
734+1020413759+1021803418+1025456238+1029437301+1032825518+1035581555
725+1037565594+1038246768+1037036389+1033353252+1026073900+1012640635+989455259
715+955769761+919002606+893754073+891384547+910497972+939350907+966338961
705+986683425+1000952839+1010839521+1017416209+1021579110+1024499588+1027323742
696+1030568433+1033863397+1036441177+1038009733+1039016207+1039955460
687+1040741720+1040999351+1040540246+1039335496+1037512316+1035507553
679+1033706887+1031886265+1029402378+1026011283+1022193702+1018389296
670+1014157958+1008822094+1003653742+1000657471+999356333+998444199+996943505
660+993686022+987250686+976987727+964165920+951931329+944030222+943173030
650+949793722+961794794+975579775+988063873+997941665+1005208290+1010367432
640+1014230489+1017530249+1020349479+1022380913+1023712624+1024857060
632+1026099228+1027313317+1028391490+1029498574+1030798050+1032087420
623+1032943908+1033254114+1033323127+1033452262+1033644078+1033606214
615+1032837415+1031015578+1028443618+1025738109+1023204142+1021145589
606+1020439854+1021822158+1024697608+1027302379+1027751379+1024436587
598+1015971160+1001873287+984131164+968245673+961424210+967510964+983344328
588+1001556941+1016389395+1026147454+1031939416+1035577973+1038468518
579+1041413364+1044473467+1046848878+1047500311+1046130159+1043001875
571+1037744235+1028749283+1013770488+991857597+966146186+944377461+934364137
561+937880659+949995004+964183956+976254106+983989749+986141811+982767985
551+975075195+964232182+950632558+934045744+914442833+893515374+875615078
541+866193705+868322358+880646365+898928885+918936408+937694343+953496687
531+965886636+975554511+983900525+992132370+999952120+1005043081+1004432135
521+996343369+981655017+965020298+953401322+951413957+958614958+971397558
511+985861155+999339767+1010530338+1018639316+1023411052+1026096861+1028732525
501+1032023587+1035059961+1037046431+1037997836+1038193682+1038017792
493+1038022780+1038688540+1040094765+1041822836+1043357557+1044683384
484+1046177937+1047880681+1049349458+1050173903+1050231403+1049837537
476+1049805877+1050902791+1053157062+1055747570+1057548876+1057897969
467+1056998948+1055826880+1055456488+1056199320+1057143305+1056406230
459+1052479214+1046203969+1040752786+1038266340+1038402191+1040023513
450+1042176152+1043928976+1044278517+1042920710+1041045530+1040175930
442+1040071100+1038877414+1035165431+1028592645+1019751645+1010798011
433+1004720147+1002803521+1003845430+1006124261+1009286508+1013876662
425+1019640674+1025041649+1028715960+1031191788+1035017683+1041263698
416+1046290827+1047290969+1045834792+1045702075+1049284347+1055327800
408+1060628550+1063181706+1063298305+1061989939+1059226483+1054881232
399+1050944429+1050887761+1054690183+1058302453+1059688082+1059850157
391+1060550903+1063159448+1067835948+1072670749+1073070883+1067396223
382+1056139261+1047596251+1045674508+1047996768+1052041855+1060336125
374+1073070883
##END=
