##TITLE=JPK-054
##JCAMP-DX=4.24
##DATA TYPE=INFRARED SPECTRUM
##DATE=5/12/2018
##SAMPLING PROCEDURE=Diamant-ATR
##ORIGIN=Angelika Moesle
##XUNITS=1/CM
##YUNITS=TRANSMITTANCE
##RESOLUTION=4
##FIRSTX=3997.453
##LASTX=373.96442
##DELTAX=-1.4165319
##MAXY=0.86964107
##MINY=0.55316597
##XFACTOR=1
##YFACTOR=8.0991636e-010
##NPOINTS=2559
##FIRSTY=0.7470758
##XYDATA=(X++(Y..Y))
3997+922411049+922655968+922822658+922949312+922792558+922301909+921847690
3988+921796101+922117778+922576340+923028646+923339358+923268635+922770259
3978+922256723+922183644+922452629+922566846+922329360+921968751+921641996
3968+921252244+920775063+920423801+920434619+920848804+921514973+922224047
3958+922783285+923016871+922855701+922438278+922038444+921916353+922117337
3948+922250762+921854681+921228989+921246725+922054414+922728311+922673189
3938+922236190+921812438+921491938+921518726+922171796+923057274+923361142
3928+923006200+922778722+923237799+923782759+923324345+921906712+920876402
3918+921529398+923639914+925461355+925669036+924618120+923388298+922328477
3908+921044048+919596757+918973051+920044647+922330169+924614661+926288694
3898+927060544+926525960+924838827+923233898+923398307+925311298+926337413
3888+925102513+923495744+923449748+923913388+923359449+923088330+924200403
3878+924772078+923595464+922278875+922013055+922138900+922692323+924703341
3869+926789131+926779932+925805405+926295465+928169231+929084735+927723990
3859+924330296+919857351+916512597+918363402+926501159+932751903+932592205
3849+929528210+926624428+924757433+923755751+923131162+922556396+922508192
3839+923925384+926393639+928006810+928148478+927918424+928053763+928115287
3829+927670855+927032578+926138269+924265018+921993258+921706684+923865773
3819+925338896+925476589+926621337+928647810+929092242+927594833+925514858
3809+924292174+925151600+927284784+927866541+926641502+926229084+927195441
3799+927103523+925982177+925958701+927097782+927688591+927295234+926769849
3789+926471133+926090213+925644971+925461797+925341177+924973136+924926109
3779+925837051+926956483+927147384+926465319+925532005+924979465+925568655
3769+927272199+928766517+929337308+929384629+928816340+927323935+925712309
3759+925232553+925744323+925823068+924736827+923097677+922780194+925687876
3750+929536673+929892425+927674314+927605872+931626658+934671666+932963706
3740+928514311+924505007+923225950+925334480+929070458+931750221+932110167
3730+930476537+928130595+926718187+927087332+928432549+929569496+930296454
3720+930634248+930201444+928774465+926696035+924974902+925222765+928192487
3710+931766853+933276920+932413815+930148604+927940061+927477452+929066852
3700+930746184+930902497+929864827+928432402+926938305+925710617+925628118
3690+927716557+931333755+933824603+933882301+932326901+930333545+928629706
3680+927193527+925717240+925092799+927048769+929870568+929826264+928375293
3670+929598124+933495787+935716400+934829303+932806657+931371950+930811020
3660+930450043+929989421+930128955+930909635+930411554+927599322+924424275
3650+924288862+928471112+932892909+933756014+932092652+930175539+929243550
3640+929284027+929504072+929334659+929012098+928978245+928914513+928298756
3631+928259089+931144620+935584741+936773277+934269182+930685469+928025944
3621+927436607+929035575+930890648+930974030+929920979+929388456+929655454
3611+930185474+931274071+933108612+934342187+933779564+932067925+930629023
3601+930215648+930540931+931017082+931645203+932777661+934018670+934244749
3591+933267868+932445386+933100148+934345057+934202433+932855008+931758979
3581+931510821+931733663+931945539+932049085+932193107+932328520+931947526
3571+930688119+929353058+929765623+932516698+935214197+935787933+935061564
3561+934512851+934511894+934671445+934675419+934461997+934132666+933860296
3551+933616922+933256682+933029940+933406298+934177043+934420196+933747551
3541+932766033+932288411+932625175+933381349+933743430+933273314+932388572
3531+931865469+932058210+932691336+933284721+933671087+933990778+934297957
3521+934432781+934304066+934049873+933795902+933411743+932684492+931758243
3512+931184581+931344353+931904915+932223502+932247640+932519127+933286487
3502+934003362+934038614+933544948+933183456+933234604+933285236+932823804
3492+931916322+931151611+931043649+931542761+932108180+932255956+931985868
3482+931714528+931818442+932182583+932305632+931899911+931238083+930803955
3472+930772530+930996917+931297915+931601415+931885045+932046067+931879893
3462+931388877+931024073+931233668+931848101+932335805+932513902+932554599
3452+932469304+932134748+931743745+931720637+932166540+932750137+933207153
3442+933590576+933983639+934236212+934128471+933752335+933583805+934024189
3432+934903559+935591733+935593057+934954044+934152978+933708252+933839396
3422+934382075+934971854+935361605+935601594+935877349+936220810+936483834
3412+936490899+936056991+935000040+933347717+931432150+929649713+928279401
3403+927543097+927600426+928376324+929497375+930511936+931221010+931779806
3393+932419260+933159612+933863608+934421668+934823195+935159665+935509896
3383+935765634+935751136+935543897+935413268+935430047+935388099+935139942
3373+934791623+934502327+934266607+934049432+934015432+934368828+934974062
3363+935418272+935498784+935412532+935435199+935574880+935628014+935492308
3353+935368008+935581797+936203884+936893529+937218666+937105258+936861148
3343+936747152+936718524+936653614+936624398+936776000+937056613+937233164
3333+937197471+937138522+937298515+937619162+937767748+937509360+936938053
3323+936380214+936155607+936387353+936924291+937375494+937314705+936675104
3313+935961099+935813544+936324283+936969257+937208583+937000019+936723087
3303+936681359+936771585+936769377+936780710+937064046+937552192+937934069
3293+938068598+938034230+937935320+937868865+937962550+938298504+938739845
3284+938938548+938716442+938364076+938262738+938372760+938453934+938533268
3274+938751988+939032821+939258018+939525236+939942291+940341757+940431320
3264+940167119+939789437+939475119+939177065+938896599+938888357+939409326
3254+940349263+941165195+941209425+940304371+939066012+938432739+938763837
3244+939551435+940090508+940201266+940137461+940068724+939986668+939985122
3234+940224669+940606693+940797522+940608313+940191111+939915061+940112365
3224+940815405+941700662+942344164+942506806+942228549+941774624+941436167
3214+941295677+941279192+941400915+941738048+942204337+942564945+942661205
3204+942509529+942230315+941922326+941609038+941317387+941149299+941207879
3194+941516825+941988487+942364697+942346887+941989517+941785810+942149951
3184+942947705+943668554+943928708+943763417+943532701+943543960+943715507
3174+943689308+943248261+942529767+941918352+941780953+942161726+942701167
3165+942986710+942935415+942706392+942426589+942165921+941977080+941811347
3155+941605358+941505345+941751294+942283965+942691084+942646045+942286982
3145+942054574+942148332+942277268+942089457+941708463+941568562+941832983
3135+942283082+942668197+942849973+942740171+942452347+942366831+942711691
3125+943190270+943308093+942975009+942571201+942519391+942942848+943626238
3115+944154346+944123804+943429081+942464637+941851014+941762996+941734809
3105+941358010+940878548+940803041+941179840+941617133+941806490+941671961
3095+941072541+939723718+937575300+935097110+933026187+931893361+931818884
3085+932584478+933801495+935110798+936314863+937376230+938346414+939224532
3075+939797900+939708263+938737417+936921789+934456404+931680675+929090328
3065+927125895+925914103+925218791+924542907+923328172+921341734+919048411
3055+917443188+917304169+918633785+920885674+923492506+925992627+927953896
3046+929155385+929757749+930022391+929932533+929285940+928149802+927004466
3036+926270075+925743513+924735428+922869978+920618898+918957891+918633785
3026+919777576+921962275+924528778+926997842+929209771+931084935+932433758
3016+933159612+933455090+933598598+933684187+933689854+933651585+933647611
3006+933689559+933718334+933720027+933819378+934172701+934762554+935402229
2996+935927540+936276226+936459254+936549847+936628004+936715801+936807793
2986+936865785+936763784+936423634+936027995+935906124+936223681+936881386
2976+937601647+938044533+938008914+937564114+936878811+936012835+935000408
2966+933983124+933096910+932362078+931803356+931536726+931613190+931862010
2956+931988076+931822049+931479691+931247798+931262149+931369080+931398591
2946+931416033+931522596+931592289+931435020+931052701+930536516+929869537
2936+928998852+927937043+926663654+925071089+923132928+921058472+919194862
2927+917773328+916786144+916129689+915811397+915926645+916440990+917136008
2917+917832277+918592719+919617216+920966554+922445564+923767231+924802693
2907+925656158+926511977+927456551+928483697+929562578+930577140+931314253
2897+931731528+932159622+932990935+934220463+935490394+936488838+937133592
2887+937481836+937629539+937669206+937670751+937647937+937469546+936884845
2877+935796175+934413499+932948472+931245296+928892435+925601036+921333712
2867+916195482+910497793+904981292+900635959+898006902+896806370+896381514
2857+896372977+896821898+897910347+899712801+902029306+904478133+906862123
2847+909264512+911725040+914056779+916042775+917617531+918878778+920051418
2837+921367712+922888303+924482193+926006389+927430940+928734283+929744870
2827+930269003+930412952+930581776+931057043+931738667+932381286+932911454
2817+933431467+933996739+934471785+934638696+934480690+934275070+934320624
2808+934644730+935073192+935492308+935917090+936355928+936754438+937076557
2798+937321623+937439299+937356286+937134548+937019301+937272536+937972926
2788+938946790+939841983+940338224+940392904+940266912+940267206+940506901
2778+940913947+941351681+941686164+941834382+941798247+941642744+941468622
2768+941432708+941674536+942125003+942462576+942372056+941854620+941248724
2758+940953246+941118390+941554873+941913127+941957651+941694333+941271464
2748+940820851+940418147+940137682+940043997+940116781+940252046+940391653
2738+940597200+940947358+941392967+941782351+942014686+942124635+942209709
2728+942301259+942335112+942231566+941984513+941698675+941548912+941635385
2718+941858594+942034556+942143695+942343355+942740024+943272179+943801023
2708+944231913+944560067+944841710+945124235+945402198+945597884+945579706
2698+945317787+945025620+944961741+945119157+945300198+945413164+945488156
2689+945526056+945523628+945556671+945696794+945896379+946039592+946114290
2679+946257061+946561592+946927941+947197440+947335723+947397026+947416823
2669+947396216+947291861+947056361+946768610+946631653+946755364+947017430
2659+947211570+947295467+947445819+947828579+948350872+948737312+948854032
2649+948848291+948959197+949260195+949594089+949743337+949666873+949538599
2639+949547578+949729869+950020269+950388679+950844297+951307053+951559626
2629+951434002+951053597+950805733+951004363+951563821+952030699+952004205
2619+951565808+951202182+951261351+951619678+951962698+952193488+952407351
2609+952639318+952804535+952762072+952387848+951791004+951396175+951502591
2599+951856944+952013036+951948495+951967555+952179137+952404922+952466446
2589+952365476+952280549+952418463+952746617+952919635+952624084+951974252
2580+951498838+951685471+952490217+953349275+953774278+953797092+953721953
2570+953746754+954031487+954762272+955829967+956742822+957094158+956897516
2560+956411283+955947791+955825993+956158931+956657601+956863736+956578856
2550+956000484+955512926+955359483+955429177+955390025+955083287+954731509
2540+954677345+954961637+955267271+955328280+955297370+955555463+956205368
2530+956909217+957280570+957307800+957288445+957402368+957501277+957360199
2520+957005772+956738774+956878308+957460727+958167079+958644039+958843992
2510+958908534+958896906+958872620+959046227+959532387+960098395+960347215
2500+960059243+959322424+958463293+957868436+957774310+958171936+958846789
2490+959504127+959939433+960131070+960173902+960141079+960000368+959661691
2480+959179358+958798070+958652575+958586120+958443570+958335019+958481838
2470+958974547+959639245+960036429+959848618+959344649+959107163+959357381
2461+959903666+960498744+960885110+960842941+960502718+960247937+960159919
2451+959940316+959453494+959002145+958944963+959238895+959547032+959782899
2441+960239400+961022657+961756679+962145180+962413649+962841375+963248789
2431+963274032+962833353+962126855+961484309+961245498+961477097+961876489
2421+962210163+962597191+963076065+963304720+963073121+962705447+962588728
2411+962662763+962660923+962530000+962405995+962396502+962464944+962431017
2401+962168877+961865230+961906442+962428883+963131554+963597843+963695576
2391+963561194+963291400+962872137+962427558+962227531+962308484+962397900
2381+962345354+962292514+962293618+962174028+961955235+962007412+962567460
2371+963474132+964497672+965497367+966195034+966270321+965788356+965184374
2361+964782479+964584365+964503854+964568690+964949169+965823681+966904844
2351+967299453+966401906+964620720+963075255+962775582+963733918+964931065
2342+965547116+965522757+965049771+964346879+963653995+963123533+962936016
2332+963395019+964412377+965140512+964824722+963834520+963256075+963621688
2322+964445788+964998108+965025191+964591872+963875070+963267408+963176078
2312+963609618+964249514+964831566+965188053+965173408+964886246+964700569
2302+964762020+964740236+964419589+964183501+964468529+965087377+965568017
2292+965816543+965986691+966028566+965823019+965548000+965609818+966261195
2282+967274505+967893721+967363848+965749131+964076717+963495401+964310082
2272+965802854+966973066+967442887+967515377+967445168+967132028+966603626
2262+966288719+966544751+967190093+967709811+967871422+967936258+968172715
2252+968443171+968587856+968879949+969637816+970635082+971320827+971469192
2242+971311113+971218753+971467058+972084508+972726023+972813011+972023204
2232+970688290+969607201+969395840+970063628+971145380+972011282+972106807
2223+971384706+970672541+971097912+972806976+974605897+975188538+974457018
2213+973334568+972579351+972229193+972129106+972445705+973398595+974903584
2203+976712955+978501353+979778937+980305205+980398007+980253616+979485225
2193+977912604+976034570+974450026+973704597+974317558+975844993+976795086
2183+976514179+975819824+975271257+974742119+974636071+975443098+976545456
2173+977194920+977818404+978930477+979704314+978763125+976143709+973864295
2163+974260155+977751802+982337271+985323993+985707342+984483407+982794214
2153+980955110+979161929+978089082+978181883+978933126+979528131+979795422
2143+980062494+980565358+981204298+981502426+981015604+980097303+979697322
2133+980133879+980790923+981080808+980928764+980380050+979451814+978426729
2123+977817816+977946531+978720956+979722270+980445107+980597519+980224620
2113+979524451+978676800+977876102+977312375+977054724+977049204+977205076
2104+977441237+977730975+978081134+978387430+978509080+978541314+978704618
2094+978935113+979002304+979029681+979461160+980383877+981197380+981201649
2084+980406691+979504801+979121452+979352095+979884912+980179802+979836414
2074+979225219+979300579+980319188+981326169+981352515+980472263+979308601
2064+978197706+977302072+977038460+977920037+979953943+982153140+982841461
2054+981090817+978013501+975957885+976278238+978303681+980546592+982312028
2044+983751960+985133165+986405524+987023931+986566400+985816408+986212488
2034+987836846+989340731+990167187+990982677+991833713+991949549+991374784
2024+990998573+990941685+990343885+988812034+987098702+986369684+987184512
2014+989068066+990998279+992374258+993431651+994670010+995998742+996736812
2004+996439052+995337724+993889771+992175703+990019190+987667139+985850702
1994+984823189+983808922+981904026+979326558+977382730+977531978+980332508
1985+984458680+987146244+986763851+984621689+983237247+983246373+983325191
1975+982945743+983272498+985177763+987833240+989430368+988740060+986177384
1965+983456556+982021260+981970775+982237773+981480200+979178635+976251524
1955+974383792+974449364+975792888+977210301+978242966+979352095+981182367
1945+983758363+986319493+988098765+989145487+989835574+989944198+989101625
1935+987843984+987261344+987510900+987568376+986737063+985634558+985361820
1925+986310441+987930089+989225483+989605300+989247708+988473430+987324193
1915+986089440+985394716+985377643+985547570+985630069+985850334+986317286
1905+986963732+987917946+989212604+990362357+990709056+990071809+988862814
1895+987626000+986562499+985657225+985133091+985281529+985848568+986258852
1885+986442100+986781219+987470203+988343317+989159690+989767426+990065848
1875+989995493+989619135+989223570+989300033+990211637+991630374+992699100
1866+993119319+993236407+993318316+993476616+993891095+994548507+994956657
1856+994621217+993696072+992818322+992420107+992427540+992573917+992888383
1846+993797411+995400058+996697219+996796349+996255951+996129076+996641582
1836+997079832+996843081+996182799+995828593+996226293+997054221+997803624
1826+998546920+999407964+1000051540+1000320083+1000602535+1001243388+1002161468
1816+1003036349+1003568357+1003709141+1003729600+1003786488+1003574391
1807+1002794594+1001585157+1000303672+999338419+999059793+999562511+1000543219
1798+1001633508+1002700983+1003961714+1005865507+1008254207+1009915362
1789+1010234831+1009987851+1010188173+1011162110+1012412833+1013365208
1781+1014005840+1014510618+1014714914+1014439821+1014089001+1014573909
1772+1016277747+1018135249+1019089537+1019344024+1019375080+1019417102
1764+1019989440+1021619537+1023634015+1024888859+1025648197+1026716629
1755+1027971915+1029146321+1030802765+1033541771+1036849655+1039606471
1747+1041485168+1042910160+1044346413+1046092494+1048520199+1051677437
1738+1054756004+1057496923+1061325040+1067098383+1072013772+1073741823
1730+1073094273+1070635144+1065778409+1057116371+1043098118+1024035688
1721+1001640058+975346985+941984071+901939743+862631940+829109181+801892435
1711+781810218+769721442+765720012+769917716+780542275+792532214+803574857
1701+816968080+834073068+849039794+859657729+869042897+876793773+881556014
1691+885087991+889172655+893206614+896302916+900069877+906618308+913125599
1681+915933047+916296084+916069858+915828029+915661561+915671496+916155226
1672+918064538+922439677+927917173+931377102+932558058+933430951+935332536
1662+937703280+939042683+938826170+937474404+935938653+936307724+940439342
1652+944050947+943735083+942291324+942745544+945359661+947455827+948151655
1642+948545159+949188809+950111304+951981759+955908197+960551879+962944553
1632+963182113+962972298+963424089+964560006+965819192+967181262+968954278
1622+970532787+971019167+970757542+970702715+970369704+967590001+961758077
1612+954221064+946912191+942051335+941122879+943650082+947671088+951286594
1602+953696048+955289128+956968239+959348550+962493204+966076475+969607642
1592+972671490+975131356+977111317+978767394+980064481+980855317+981206064
1582+981443624+981804086+982445895+984027789+987410739+991389134+993508629
1572+994149409+995579921+999069949+1003206424+1006242306+1008000530+1007836416
1562+1003792008+992515926+970142594+945775686+937886528+942599019+951304477
1553+960309461+968311365+975404609+981698626+987344358+993225221+999923561
1543+1006935557+1013126029+1014599961+1007062065+991346229+966699886+930996844
1533+891670200+863998425+852111811+851158406+857102928+866190925+875200546
1523+884340501+894606290+903820721+910411689+915821185+920721046+924238083
1513+926265880+927551413+928819578+931556523+938033862+945592659+948560099
1503+947542668+944516500+940219886+936051177+935049863+938593541+943966388
1493+948820179+953630623+959582357+966082510+971127570+973576397+971983317
1483+962959051+943941587+918824686+897649090+888467261+892096160+904240058
1473+920010205+934682705+944393010+949301407+951228970+949382434+940176024
1463+923524814+905668803+892900023+889669780+899042732+915114613+926603528
1453+932778544+936720952+937767306+931794230+916665892+898902242+889377981
1443+892330776+903286358+915019530+924207100+932258900+940504619+946964001
1434+950408107+952434727+954634366+957066707+958985954+960371280+961845212
1424+963519098+964911930+966082951+967760738+969874861+971402148+972218375
1414+972955635+973925746+974968640+975796347+976375602+977008875+977746430
1404+977760854+975891577+971409360+963962279+953741308+941542289+928625806
1394+917344793+910234255+907980083+910162722+916429215+925433611+934402607
1384+941393188+946163598+949036691+950597684+951954382+954318870+958167299
1374+962630456+966051600+967874219+969088587+970706983+972810876+975249179
1364+978426287+982551428+986564928+989080504+989829907+989080357+986309705
1354+979527247+965808079+943448878+914978318+887951517+870630237+865889412
1344+870120896+877727308+885503574+893058470+900809714+908467052+915007387
1334+919143641+919646211+915860778+908538291+900354537+895034899+895122402
1324+900322745+907984131+914921945+918912263+919523310+918436701+918392545
1315+920981273+925283185+928537493+928296401+924229104+918277371+913304137
1305+911113036+911344929+912236589+912416231+912051648+912465023+914796836
1295+918916089+923288137+925799886+925236674+922501422+920194410+920539490
1285+923738382+928323925+932613180+935766223+937981316+939927425+941915261
1275+943627931+944597673+944753839+944471828+944191658+944054332+943920980
1265+943703143+943587381+943926058+944941282+946474972+947933597+948421596
1255+946985344+943157889+937773782+933083001+931379972+933263968+937451442
1245+942161064+946337131+949777705+952684651+955261383+957554486+959576322
1235+961515954+963674013+966153307+968743138+971144203+973101792+974144834
1225+973380049+969955004+963939759+956744735+950634040+947593153+948208763
1215+951426201+955459129+959005677+961780008+964245688+967025170+970357266
1205+973821979+976372217+976411148+971873441+960972907+943922011+924221524
1196+907469859+897905417+895740809+897843451+900888312+903778994+907344824
1186+912346391+918245431+923846786+928660983+933233941+938205629+943486116
1176+948513956+952931852+956719346+959832722+961694051+960910279+956223693
1166+948657831+942046405+939998590+942555084+946925438+950942397+954451633
1156+957847535+960924188+963376768+965325305+966963866+968249767+969203466
1146+970211772+971626093+972862245+972265327+968727684+963559207+959726821
1136+958835455+959880043+961278615+962763292+964595551+966006561+965086641
1126+959937004+950390224+939307914+931454817+929968668+934031254+940267721
1116+945791214+949637435+952198124+954120756+955654299+956651640+957022846
1106+957057287+957219708+957756500+958659640+959903887+961501677+963386115
1096+965408834+967351557+968807754+969295164+968746377+967723058+966753168
1086+965290716+961573946+953985344+942625513+929208446+915660309+903613923
1077+894957773+891438233+893226116+898640764+905523015+912418071+918655200
1067+924035701+928605126+932467243+935742452+938630117+941346383+943984492
1057+946485202+948733780+950721469+952635785+954708843+956941745+959084275
1047+960950609+962652239+964389269+966066687+967289150+967802171+967907115
1037+968399604+969965749+972536446+975428600+978280867+981536941+985714848
1027+990485405+994766859+997501596+998057596+995947079+990230256+979359969
1017+962427705+941562601+922602613+911316522+907834000+906097265+900274026
1007+890970031+883924550+883465547+888600465+894803447+898069383+897560115
997+895812121+896614438+901899414+910434724+919354486+926284352+930201224
987+931686121+932813428+935652153+940332410+945195032+948895906+951678848
977+954432867+956901858+957150898+953112892+944962330+935879704+929944456
967+928655611+929574059+929191372+927263515+927160410+931626290+939634669
958+948003290+954673076+959555127+963298465+966339646+968880685+971127570
948+973309767+975490860+977495181+979114829+980280331+980957907+980941716
938+979643746+975953985+968775372+958546895+948318933+942390308+943133676
928+949274398+957359168+964434529+969244237+971821705+972916189+973710337
918+975204434+977374782+979251271+980144477+980478076+981131440+982338669
908+983595059+984370956+984452351+983421010+980101866+973429798+964558166
898+957369839+955611321+959586699+966427516+973167364+978663553+983077917
888+986739198+989649235+991492754+991992307+991412905+990614120+990445959
878+991023963+991501070+990671229+988206801+985402591+984251955+985575168
868+988415218+991349173+993822653+996004409+998005492+999694979+1000950339
858+1001796518+1002422431+1003064756+1003728202+1004128330+1004045317
850+1003428750+1001767890+997764252+990757922+982835279+978278512+979891904
840+986593997+995303356+1004089326+1012645463+1020901338+1028521143+1035377563
830+1041668342+1047620812+1053330055+1058716295+1063439899+1066877382
822+1068265725+1066867962+1061860581+1051967102+1035107916+1008284896+968622519
812+916898080+861548863+816997738+794225455+792345507+801534475+813957734
802+829092696+848996300+872711611+896791872+918616196+937603192+954308273
792+969184774+981833155+990755862+992969704+983919827+959806155+921900456
782+878329156+840589926+817596790+811742567+819037458+832516490+846167584
772+856343221+860362682+854996017+837049486+805785020+765318706+724793739
762+695032863+682991481+688097109+703610268+721579834+737212656+749976138
752+761871583+774955639+789796079+805340735+819955905+832827496+844414511
742+855492185+866103570+875729978+884139369+891704937+899008952+906217370
732+912785818+917954148+921580692+924084493+925202600+922959836+914258131
722+896901527+871764314+843999370+822085188+814074306+823073182+845295942
713+872559272+897478353+916077585+925501611+921390894+900462720+866460867
703+830665023+804270390+792032367+793397233+805618625+823588485+838802191
693+840767140+821467886+782555280+739317579+712342735+711707476+731403399
683+758461551+783460702+803225288+818069702+828942418+836567816+841595877
673+844686366+846743380+849483122+855184858+863408205+870669389+876318947
663+881704526+887328621+892823633+897847351+902324785+906289124+909863343
653+913201842+916424211+919522427+922251792+924370478+926027143+927681674
643+929648904+931792758+933701113+935262622+936904127+938981821+941183299
633+942959333+944423772+946295109+948657463+950027113+948395838+943699905
623+938633134+936241564+937129544+939469452+941158130+941531176+941343586
613+941675419+943013056+944725358+944469179+938530177+925034218+908059785
603+896290700+895297481+902541076+911423085+918391441+924397192+931358630
594+939509560+947267575+952237644+952754124+949223398+944168844+940729889
584+940528684+943021299+946856113+951099740+955282946+959155146+962579897
574+964858943+962835119+949798311+920422035+881005607+850693000+845626745
564+864101236+891160712+913752322+927022496+929605851+920140319+900566192
554+879459922+868043864+871626621+886059352+902972261+917064181+927696908
544+935867046+942194622+947214293+951599735+955547000+958746113+961336239
534+964072595+967078157+969207293+968645701+962769032+947522356+919734671
524+881516200+840128863+803960561+780332459+773922458+784030537+804084199
514+825822491+844293082+859044400+871616759+882539886+891036633+897128489
504+902548730+908945190+916041524+922236926+926477241+928655979+929035354
494+928203820+927168285+927079825+928684018+931644320+934505418+935973242
484+936469557+937709093+940152621+941703606+939811368+934777272+929959101
475+927837398+926698463+921840036+909700922+890094488+866793289+847746019
465+840770157+847358475+862438094+879683867+895839645+910081107+921690788
455+930383000+936811031+941404080+944039025+944872840+944664864+944381750
445+944652427+945378796+945896379+945626217+944368871+941819221+937240744
435+929883520+919364348+905673440+890031787+876116712+868868407+871293683
425+882458934+897701636+911798118+922359386+929690778+934725757+937193718
415+936491414+933800244+932206796+933594476+935854609+935907964+934100285
405+932924848+933157330+934044427+935985237+940269193+945634975+948170053
395+947362952+945797617+945161253+946219455+948791256+951656181+954189346
385+957254665+960837201+962541407+960996973+957537559+953990275+950425770
375+944978667+938890712
##END=
