##TITLE=X8002
##JCAMP-DX=4.24
##DATA TYPE=INFRARED SPECTRUM
##DATE=30/10/2018
##SAMPLING PROCEDURE=Diamant-ATR
##ORIGIN=ComPlat
##XUNITS=1/CM
##YUNITS=TRANSMITTANCE
##RESOLUTION=4
##FIRSTX=3997.453
##LASTX=373.96442
##DELTAX=-1.4165319
##MAXY=0.91798997
##MINY=0.18260217
##XFACTOR=1
##YFACTOR=8.5494478e-010
##NPOINTS=2559
##FIRSTY=0.81217772
##XYDATA=(X++(Y..Y))
3997+949976811+950164281+950553096+950466228+949883180+949349980+949149891
3988+949150518+949315958+949733078+950257703+950647912+950881047+951023689
3978+951073189+951123385+951335327+951640480+951792116+951746799+951692559
3968+951664463+951392356+950701455+949919154+949616510+949958335+950583005
3958+951039794+950990852+950248848+949008434+947818147+947171237+947221713
3948+947622171+947655565+947134078+946953440+947974593+949562479+950462672
3938+950456746+949937211+949042247+948179283+948416602+950074136+951709082
3928+951943263+951137677+950591231+950855809+951174349+950718954+949748137
3918+949307243+950015434+951312947+952339399+953036644+953749227+954136577
3908+953181377+950543893+947504348+946120943+947046095+949157142+951499651
3898+953475376+954176874+953251513+951588820+950840820+951782913+952763211
3888+951975891+950148804+949198763+949190327+948646321+947997181+948702025
3878+949754760+949247356+947448225+945460439+943531424+942230077+943196710
3869+946094868+948150141+948452088+948386275+948736466+948644508+947348390
3859+944980643+942038842+939572584+939890147+944543374+949603125+951442482
3849+951065311+949827685+948263154+946733551+945453537+944297550+943525638
3839+944323973+947233147+950574011+952554059+953068017+952624892+951508505
3829+950316963+950119453+951029127+951496304+950551074+949488091+949592528
3819+949628014+949196950+950150198+952579366+953937185+953049193+950702012
3809+948211632+947220946+948109775+948565937+947314089+946595022+948523409
3799+951279134+953025001+954474150+956034219+956881775+956726165+956132381
3789+955558048+955169303+955181085+955566484+955584680+954581793+953242729
3779+953176148+954803007+956599001+957156253+956405953+955197818+954559554
3769+954662108+954746048+954828315+955671060+956751403+956668370+955491538
3759+954767939+955094496+955102723+953632241+950967218+948528917+948346675
3750+950176063+950786371+949365527+948545022+950491675+952659472+951805292
3740+948332244+944135806+941289587+941397789+944101783+947427449+949968654
3730+951210114+951208929+950717838+950691694+951219107+951687749+951983281
3720+952477788+953199783+953591595+952969087+951327867+949988244+950876097
3710+953814482+956393334+957127181+955984441+953825079+952256504+952512577
3700+953931817+955074069+955575756+955705082+955540758+955089755+954797081
3690+955639966+957805393+959501830+959387144+957954170+956096337+954337015
3680+952876433+951805292+951769249+954076062+957619108+958701542+957148863
3670+956188016+957973761+960641921+961965578+962043592+961593147+960775360
3660+959391676+957766002+957236637+958615092+959875516+958382306+954443544
3650+951117947+951718773+955154732+957725706+958759199+959099560+959215988
3640+959266115+959302577+959136161+958359787+956672483+953988218+950475361
3631+947289548+947240049+951385523+955625256+957150606+956722470+955734433
3621+955231700+955728856+956528028+956475879+955761275+955422935+955785536
3611+956358893+957221369+958962216+960934316+961553617+960484010+958738702
3601+957184070+955792438+954330810+953072339+952512856+952725564+953040199
3591+952703882+952017861+952520385+955123917+958233249+959967194+960087318
3581+959278315+958561480+958603450+959004813+959052640+958844463+958604983
3571+957710856+955758486+954074180+954627319+956659864+957699910+957565286
3561+957618620+958457879+959505804+959934985+959411685+958385094+957919799
3551+958507797+959251125+959209644+958767704+958861056+959523860+960197053
3541+960759046+961251810+961445764+961236472+960913401+960689956+960418755
3531+959950811+959364068+958773072+958226278+957927329+958310008+959561508
3521+961051023+961677923+961045934+959979255+959562345+959842330+959987622
3512+959591556+959170671+959248128+959540872+959507547+959262420+959442779
3502+960204373+960808824+960611245+959956458+959719976+960151876+960641781
3492+960676431+960468463+960523052+961002500+961640694+962065622+962108359
3482+961885751+961610994+961347462+961086579+961008077+961390060+962174033
3472+962853500+962967907+962504843+961715362+960822140+960051483+959640777
3462+959598877+959689370+959788160+960019622+960478782+961026552+961414670
3452+961530122+961534096+961712712+962075871+962215515+961817916+961192898
3442+960989951+961460614+962165249+962466986+962212308+961787659+961595796
3432+961697862+961935181+962161345+962334384+962486716+962554064+962286836
3422+961555918+960680614+960181645+960309229+960978656+961868043+962477235
3412+962500939+962206940+962111497+962404729+962975855+963734660+964516054
3403+964880538+964464882+963506823+962638561+962125161+961709087+961277954
3393+961128549+961383924+961695353+961737183+961511507+961137194+960815029
3383+960969593+961898719+963207735+964041557+964024825+963647304+963570754
3373+963905050+964261097+964204975+963657344+963068649+962969371+963229975
3363+963319841+963350726+963973025+965112627+965812034+965601487+965136889
3353+965096871+965252202+965091224+964743124+964722418+965090666+965384874
3343+965302677+965085647+965074004+965050300+964396419+963062304+961921725
3333+961823354+962712601+963930776+964911213+965428308+965559447+965511830
3323+965348552+964980652+964446197+964001539+963911046+964230701+964803012
3313+965456962+966117885+966630587+966717525+966352136+965953421+965960114
3303+966325434+966538351+966201964+965532466+965025411+964700039+964226587
3293+963727828+963726364+964308993+965003798+965457241+965712617+965875616
3284+965924697+965889908+965973221+966328710+966769674+966921449+966708253
3274+966460198+966499588+966835278+967265714+967538937+967430875+966976456
3264+966663912+967011106+967806792+968194421+967725222+966878363+966303264
3254+966032271+965701183+965170563+964685747+964589467+964959458+965526052
3244+966024603+966582413+967438126+968244409+968107902+966675416+964865130
3234+963984249+964303625+964927109+964852930+963800265+962269407+961096897
3224+960658444+960404044+959641265+958676444+958421487+958965005+959467389
3214+959485934+959490466+959937495+960596604+961026273+961210188+961434051
3204+961751824+961859468+961574532+961261082+961526218+962533915+963811210
3194+964688326+964796110+964232792+963401201+962676906+962256649+962268849
3184+962768306+963561552+964284523+964749678+965095756+965552266+966097457
3174+966458524+966489409+966391596+966484669+966900185+967508540+968006324
3165+968170439+968101349+968052825+968122334+968314057+968562530+968508360
3155+967861520+967118122+967125164+967874069+968487305+968323538+967473263
3145+966403587+965599744+965279671+965207374+965037751+964777216+964623629
3135+964548961+964346432+963960475+963572567+963412217+963564271+963905817
3125+964179667+964148782+963798243+963424069+963343196+963456208+963348216
3115+962853221+962188395+961477694+960533510+959211386+957532588+954977719
3105+949609608+938493774+920075377+896896806+875623266+863487465+863882205
3095+874476901+889187441+902422548+911928953+918313127+922994869+926962354
3085+930604120+933851423+936430135+938229545+939475467+940493413+941345710
3075+941814421+941720093+941001793+939430360+936645214+932632900+927756019
3065+922210965+915806433+908248634+899423927+889695054+880017981+871257833
3055+863418305+856322175+851047346+849775489+853841974+862256950+872328625
3046+881581466+888909686+894318930+898337170+901750332+905238997+908972720
3036+912825381+916870253+921225159+925592265+929407906+932347058+934438305
3026+935869188+936776701+937128566+936908258+936335808+935580000+934452528
3016+932882628+931482073+931158235+932303903+934592590+937330398+939905136
3006+942137771+944259066+946452450+948572909+950424397+952064084+953655805
2996+955210297+956615175+957849524+959026984+960202840+961230127+961881359
2986+962005526+961466679+960070446+957582297+953543351+947152902+938036427
2976+927396485+917725617+910708756+905405274+898689732+887522656+870976592
2966+850619002+829553360+811067337+797305234+788372465+782726600+778637457
2956+775098734+771780180+769223707+769054015+772591413+778641082+783441065
2946+783295913+776861403+764941238+749017752+730486413+710853466+692109488
2936+676728753+667000717+663815601+666051443+671581368+678966407+687952301
2927+698621524+710581080+722998749+735151631+746742032+757607789+767342728
2917+775546809+782343990+788275488+793711016+798597030+802721799+806082045
2907+808967514+811684197+814294980+816763538+819176114+821616994+824043304
2897+826523366+829394962+832955088+837128519+841566389+845964589+850199930
2887+854259024+858079336+861337934+863326836+863066650+859439525+851146275
2877+837086758+817541586+794902489+772629897+753522551+739243632+730817013
2867+728501694+731120354+736219286+741275829+744921289+747418432+750265696
2857+755143902+762820500+772773724+783727953+794556620+804801682+814496742
2847+823652258+832065910+839577905+846225403+852055113+857058323+861371050
2837+865252016+868818765+872075899+875142703+878143416+880971717+883462515
2827+885686505+887857021+890035764+892074374+893786009+895105832+896147830
2817+897182787+898521922+900267440+902154763+903806372+905152547+906421755
2808+907770232+909154822+910515011+911811409+912886244+913525136+913773330
2798+914055756+914820766+916081957+917415862+918385912+918918624+919319779
2788+919935036+920757703+921425736+921620318+921353090+920891979+920560472
2778+920584455+921018377+921792311+922783555+923854835+924962716+926181727
2768+927513123+928844240+930141962+931368712+932249663+932550145+932504968
2758+932574895+932930176+933457937+934041822+934612041+935103620+935490134
2748+935803584+936140389+936620395+937185804+937454913+936974211+935684646
2738+934028715+932535644+931416956+930656059+930313188+930494036+931122051
2728+932053338+933327844+934989911+936731803+938062711+938814754+939213399
2718+939492897+939702816+939828796+939873833+939855497+939901302+940278125
2708+941158379+942394959+943634955+944588412+945121612+945216149+944961470
2698+944524899+944097531+943881964+943974688+944171152+944119561+943756542
2689+943266289+942583545+941416682+939819035+938279742+937188732+936588882
2679+936437456+936746653+937423610+938228151+939006338+939842739+940874559
2669+942054667+943194828+944142499+944835909+945316333+945682280+945925594
2659+945927128+945723135+945576449+945696154+946069979+946543571+946912934
2649+947088622+947264589+947721448+948483531+949384630+950288587+951027384
2639+951368164+951272999+950966102+950654883+950449286+950541662+951092222
2629+951906662+952606556+953126649+953607351+953836234+953391924+952402423
2619+951557795+951287849+951466047+951925207+952682130+953584763+954270574
2609+954628574+954935959+955417986+955980885+956468001+956868250+957159599
2599+957240890+957176262+957242354+957529451+957698098+957385414+956706087
2589+956069008+955627975+955237905+954869239+954714954+954910790+955409410
2580+956128059+957042056+958073596+958934538+959286054+959222193+959289958
2570+959724996+960134307+960372323+961108401+962851479+964905148+966045588
2560+966011844+965630698+965573321+965687518+965630698+965487987+965475716
2550+965520824+965454383+965333144+965360682+965667928+966234661+966922007
2540+967569334+968028982+968109994+967679279+966888961+966117118+965665348
2530+965594027+965729697+965759397+965475228+964926970+964209297+963333924
2520+962541584+962402498+963210733+964465579+965292359+965333632+965049533
2510+965195591+966106660+967422997+968430694+968657973+968101767+966961467
2500+965453755+963933983+962844716+962409400+962589201+963236738+964037304
2490+964561092+964746610+965089621+966075008+967653065+969331654+970459544
2480+970526264+969653191+968702941+968477823+968938935+969562628+970229407
2470+971295388+972883274+974493122+975435912+975579182+975567609+976111266
2461+977075529+977655998+977485957+977055730+976974300+977424814+978325565
2451+979344417+979798208+979221226+978023688+977066257+976697033+976596709
2441+976360158+975848013+975130968+974481200+974375648+975118140+976422485
2431+977649444+978430002+978767086+978715565+978334698+977765315+977080758
2421+976331504+975789589+975683479+975709205+975289436+974298750+973203348
2411+972611864+972799544+973455377+973927852+973949116+973864758+973963129
2401+974038633+973882187+973702107+973769524+974060455+974443204+974876987
2391+975325619+975675392+975588803+974303002+971059673+966027949+960269350
2381+954507265+948495801+941844539+934823774+927959385+921326110+914652329
2371+907819452+900927246+893939876+886662481+879459543+873681912+870559472
2361+869887047+870699465+872933843+877298509+883809011+891741821+900458117
2351+908817389+914633784+915903828+912212912+905444455+899314122+896602528
2342+897027735+898842971+900908353+903007339+905202953+907181258+908509168
2332+909476290+910867294+912752038+914403368+915518778+916689196+918661854
2322+921716946+925825819+930787407+935863192+939948291+942588983+944396131
2312+946177275+948187928+950463300+953188070+956303259+959223099+961371933
2302+962849248+964349569+966431892+968960617+971261435+972726340+973249710
2292+973265187+973433346+974164334+975419459+976964051+978582125+979990489
2282+980948339+981565827+982131097+982636828+982862155+982866477+983021390
2272+983579827+984427313+985198529+985593200+985692756+985957056+986676331
2262+987435207+987478711+986704218+985773838+985107547+984575881+984377186
2252+985052331+986359256+987536716+988788843+990819226+992911450+993457547
2242+992517267+991842052+992125384+992089968+990735426+988921097+988005775
2232+988148417+988724284+989469216+990478098+991856623+993831163+996404856
2223+998742346+999741119+999237828+998055349+997128733+997018161+997969039
2213+1000084966+1003237035+1006750660+1009586351+1011130873+1011402841
2204+1010472670+1008462574+1006006355+1003913714+1002531703+1001808871
2196+1001600137+1001642735+1001486358+1000675264+999170063+997507021+996306694
2186+995854297+996446338+998389505+1001151993+1003566590+1005175113+1006207211
2176+1006363030+1005049761+1002831976+1001344413+1001461748+1002341653
2167+1002674903+1002427057+1002733187+1004514888+1007795098+1011471443
2159+1013221911+1011424245+1007602747+1005061473+1005705454+1008529503
2150+1010637970+1010256476+1008456230+1007158716+1006573995+1005816654
2142+1004437014+1002195595+999198786+997113326+998263247+1002776342+1008220375
2132+1012221534+1013926198+1013406663+1011352226+1008980505+1007208704
2123+1006282228+1006345740+1007299825+1008140200+1007879387+1007119187
2115+1007268522+1008333945+1008957499+1008568335+1008100182+1008501197
2106+1009599179+1010559120+1010857441+1010665857+1010472670+1010462073
2098+1010440530+1010377436+1010599207+1011310396+1012286790+1013036672
2089+1013008645+1012022491+1010805711+1010421358+1010826974+1010918374
2081+1010400164+1010477132+1012049959+1014266001+1015645711+1015949610
2072+1016028739+1016307331+1016445162+1016416299+1016885568+1018168301
2064+1019518939+1019934943+1019142394+1017454533+1015443809+1014157730
2055+1014644149+1016334102+1016759100+1014276598+1010652123+1009585166
2047+1012471332+1016961630+1020172819+1021844995+1023558442+1025704906
2038+1026547094+1024809942+1021859914+1019820328+1018704219+1017528503
2030+1016964279+1018144527+1020150301+1021425365+1022594249+1025331290
2021+1029055810+1030976946+1029597794+1026779462+1025751059+1027784580
2013+1031324697+1033818145+1034103081+1033213206+1032622141+1032123451
2004+1030552018+1028147948+1026618066+1027143737+1029230870+1031115614
1996+1031141480+1029219576+1026792360+1025155462+1024466513+1024525982
1987+1025147584+1025565262+1024865577+1023021199+1020768974+1019198587
1979+1019733948+1022811349+1026206872+1026999909+1024994275+1022012456
1970+1019100285+1016391131+1014568645+1014444129+1015429378+1016228968
1962+1016829375+1018372015+1021020306+1023160704+1023087570+1020614271
1953+1016959190+1013757063+1012149516+1011937366+1011327965+1008374172
1945+1003054166+997372675+993447438+992079580+993177980+996272672+999994542
1935+1002449645+1002891724+1002266776+1001969989+1002601630+1003721642
1926+1004557067+1005097866+1006189922+1008159512+1010099193+1011235798
1918+1011886193+1012252001+1011221994+1007526407+1001494794+995195675+991025381
1908+990176012+992421405+996768015+1001758675+1005710544+1007547740+1007392549
1898+1006101589+1004613050+1003706234+1003665938+1004239225+1005325912
1890+1007217070+1009948115+1013137623+1016284882+1018367484+1018074740
1881+1015522660+1012741488+1011719219+1012746368+1014897014+1017286653
1873+1019608317+1021927261+1024117229+1025594055+1026138549+1026465943
1864+1027174482+1028004469+1028299723+1027789391+1026867307+1026201155
1856+1026115751+1026248842+1025812829+1024297727+1021908019+1019351686
1847+1017351769+1016409048+1016769976+1018157913+1019950211+1021915061
1839+1024139468+1026425367+1028052644+1028253849+1026809232+1024091154
1830+1021005456+1018758529+1017905675+1018134209+1018994872+1020169752
1822+1021398663+1022530667+1023564368+1024454452+1024924976+1024815938
1813+1024569835+1024961717+1026279588+1028064287+1029731233+1030905416
1805+1031256374+1030565125+1028818631+1025950172+1021714204+1016196689
1796+1010232702+1005232142+1002889145+1004231556+1007945827+1011642530
1788+1014437158+1016454295+1017746440+1018400669+1018859550+1019565719
1779+1020528588+1021482394+1022304503+1023136303+1024316830+1026095115
1771+1028206580+1030287509+1032274041+1033892255+1034741554+1034985077
1762+1035268967+1035831378+1036248429+1036259444+1035892730+1035046638
1754+1033625794+1031802053+1030042104+1028980166+1028809567+1029042773
1745+1029235472+1029410114+1029683686+1029823470+1029421966+1028363584
1737+1026857476+1025372144+1024686681+1024901969+1024989674+1024116671
1728+1021538795+1016348185+1008062744+997311184+985941439+975831978+968355190
1718+965722516+970178652+979392104+988979032+997910825+1006554544+1014502622
1708+1021067853+1026429899+1031285237+1035468568+1038384295+1040286887
1700+1041937937+1043459035+1044825986+1046527303+1048373772+1049628339
1691+1050300347+1050887857+1051451174+1051514129+1051035867+1051245229
1683+1053178496+1055514800+1057083445+1057966836+1058659968+1059648283
1674+1060864018+1061576043+1061608392+1062201130+1064784444+1068457303
1666+1071372751+1073049249+1073741823+1073589699+1072551326+1070639183
1657+1067929054+1064226076+1058556716+1050489979+1043229664+1037684052
1649+1031296601+1023277620+1016165107+1011708692+1007378396+1000919276
1640+992231495+981430714+965572066+937867711+897778663+855028636+811446112
1630+761259803+702781500+645101950+602349762+580862817+576106373+575611657
1621+567374600+545418526+507565075+463050427+432858516+422982155+425426243
1611+434045980+445526785+457920297+472017358+491303634+518982367+554584639
1601+593593239+631046755+664369437+691853903+709915835+714473828+706882983
1591+696876494+696994526+713170249+741083060+770981217+793531703+802116232
1581+794896633+775859701+751554216+729597235+718942722+722083149+736329858
1571+762839463+800972725+838662653+865145906+882022988+893249045+899988500
1561+903663311+908886200+919277321+928320452+932913374+935411283+936924921
1551+938231637+940280356+942857744+944974229+946286104+946911609+946735573
1541+945227652+941762342+936664595+929418782+916872135+894922475+863661480
1531+828841404+791684258+746758137+691308991+632524349+579591901+532923470
1521+492004818+462653909+447344321+442990984+446830538+456157141+467751132
1511+478738721+487393491+495340697+509767835+534699036+561885529+588011862
1502+615333677+644888893+676648230+710261146+741938355+766176633+782705406
1492+794978969+804319446+805564810+792259497+767614766+743067779+731478284
1482+740426600+765366724+792771851+811860792+817021842+799765636+748758264
1472+673802569+607960560+563877847+530341306+496161552+464360908+449031869
1462+453978537+471270962+496103512+530669850+571188846+603181632+621146238
1452+626125046+620945242+614793227+621345560+644980014+674813125+696729111
1442+702713595+692615010+672767124+653113402+645431644+654622647+674706178
1432+701398722+734346394+769753770+800615074+824651101+844533079+861999483
1422+876458831+888576087+901215598+915170051+927601873+937193891+944761590
1412+950694274+954392510+954525531+949447585+937641408+918772775+895462298
1402+871122929+845371363+814762784+775807483+724612013+659253634+590149402
1392+537423388+511748371+512282826+535053027+569929120+598910596+609023473
1383+598313117+570424847+532006614+491697991+456389056+428641093+408470624
1373+395902016+390886850+393068451+401972636+416114385+433775755+455066828
1363+480437598+507413718+532508825+554970630+575724704+595394322+613955431
1353+630982336+645845836+657334310+663280798+661620126+652111351+636743794
1343+619036655+603991680+598090090+605621048+623715608+645330415+665889698
1333+684232034+700410755+714541733+726741396+737130215+745716627+752361405
1323+756953002+759852067+762217443+765541018+770598816+777139506+784621313
1313+792636390+800658578+808009874+814130725+818578843+820990791+821440748
1303+820570952+818774401+815452221+810131657+804586394+802644273+806976242
1293+816667607+828458725+839578533+848945572+856513759+862368707+866393292
1283+868287378+867696452+864335648+857537073+845159282+824137492+794720456
1273+764599622+745940490+745923479+761072402+781898634+801343692+818004301
1264+833656307+849465804+863871190+872614745+870582549+855620120+832904403
1254+814430022+810380410+820136891+833740107+841819673+842452708+839676486
1244+838056738+838839596+839547020+835806814+822774933+795365692+749992682
1234+689430173+626099599+577337097+554736484+557891969+578150282+606583011
1224+637982883+669867014+700371434+727460602+749278426+764692625+773430812
1214+776138083+774875359+773256658+775029365+781918155+792881168+805208763
1204+815755632+820878407+815703832+794760265+755045321+699799960+639159297
1194+585730217+548263907+528727833+524153805+530017364+542177810+557512566
1184+574222047+591559230+608879088+625128155+639471841+652012701+663377984
1174+673723718+682454655+688717102+691951438+692521867+692558190+695878000
1164+705392700+718600758+725660704+715131962+685106431+648508001+624823210
1154+625706043+648876039+683879681+720826560+754263788+782332696+804646630
1145+820905178+830544325+832548983+824590099+802584525+762681623+705392979
1135+638748312+577176049+535567507+521919672+533897842+561878209+595417468
1125+627849858+656946472+683154479+707417646+729789655+749362993+765040097
1115+776033856+781535406+779842664+767740536+741515099+700705381+652455617
1105+610916932+589435146+592026756+612604584+641421492+671038199+697687449
1095+720158317+738662676+753919941+766486457+776673026+784788914+791190309
1085+796030937+798916267+798482484+792001891+776228995+750602083+720161733
1075+693464727+676465848+669496047+670268238+677113943+687684028+696784118
1065+698384415+689939529+673734246+654585487+637583193+627423186+627456232
1055+637943981+655885719+677291374+699389044+720770855+740376891+757009195
1045+769783330+778602180+783871083+786155308+786541613+786665153+787714053
1035+789917476+793245233+797794721+803274101+808762963+813024378+814676823
1026+812568704+807104940+801413549+799845253+804013944+810480245+812280491
1016+801947446+775667002+739641789+711261941+706881518+726361853+752976314
1006+768007136+763645398+745870284+729281833+726855453+741004558+764210389
996+787297909+805207856+816842040+823442409+827557068+831321675+834877828
986+837075534+837899316+839440771+843732373+849878880+853916153+851253013
976+839438052+820371281+800882580+789540164+790997819+803265456+820490150
966+837616263+852370306+864348337+873595601+879916542+883015974+883572878
956+884045145+887126939+892978471+899205920+903849387+907051793+909416890
946+909516656+903490969+888416922+867838467+852429078+851723258+865407555
936+884966113+902502096+915363936+923715260+926900794+922945788+911006869
926+894071712+878765157+872036090+877610355+894150562+915825326+935927263
916+951146950+962134643+970632025+977452074+982683817+986305434+988356106
907+988999041+988532561+987116389+983958324+976935049+964318545+946783469
897+925159529+895079409+846220731+770064919+670875617+570139284+498053895
887+475960721+503652945+562727473+631034206+693727004+744891799+784271889
877+813856735+835721480+850817906+857881129+853458388+835247819+806534651
867+775973829+752847406+743834184+751960530+773239089+794736352+803266432
857+798817059+794151631+799041201+810474040+820791887+829438326+842324288
847+863023425+888753797+913960940+935065972+951674502+965062082+976601729
837+987116389+996768084+1005285336+1012467916+1018621744+1024446644+1030230620
827+1035229507+1038364704+1039481022+1039217559+1037671712+1033661908
819+1024377484+1004271434+965925046+907497706+842542295+797711966+793604697
809+827240202+875592800+914262399+930905230+923823880+892195195+831959940
799+745112734+649310868+567522122+506807176+457299602+412584168+380252521
789+370519395+383216562+407629238+427938235+428980966+406029709+372190698
779+349730462+350570697+368384469+389537119+406626351+421587142+441318356
769+471330640+510324704+550097897+581190768+597598303+595932751+572157746
759+522829067+453011241+380305192+323277850+285023349+255232697+228764242
749+213583580+218870644+242583722+273311831+300627982+321822078+340137224
739+358398931+375492591+388584010+396919683+402466166+407140867+410164551
730+409312812+405205612+403010416+408718714+424338336+447296286+473437399
720+499658723+524447595+547323418+568299996+587453216+604648837+619590282
710+631840699+640906488+646890205+650923643+654476101+658646116+664445918
700+672871421+683986000+696502390+708687551+719359424+728090639+735057443
690+740800146+745666709+749369617+751391565+751591793+749647371+743339677
680+727637963+697623587+655292911+613175571+587216316+583157326+594019701
670+613986037+647065824+691297557+729215392+754258489+771941924+786787368
660+800311594+812872533+824185249+833578502+840779138+845607426+845757319
650+833242882+794860031+724131171+636698547+567003145+542768318+564021535
640+609269367+656559121+695229348+723881512+744291740+757460337+761776201
630+752452317+723181200+672140503+609790227+557765118+534190446+540604913
620+565341811+596100143+626620947+654775607+679350690+699570031+715284504
611+726352232+731818366+728721164+712047309+679892535+641104416+613738122
601+611192037+630450182+655700062+671496870+672033765+663495946+660147204
591+673140392+700838472+732546357+759069836+776643536+783391008+776057490
581+754152449+727273131+711820239+717042152+737524468+761102730+780547997
571+794887569+804665454+810466859+814104860+818159074+823873263+830339286
561+836060864+840559807+843982520+846436019+848493663+851103399+853772117
551+852431937+839905787+811950170+774795533+742999874+726491458+722451536
541+722755086+725267567+734123507+751996783+776205779+801573202+824158756
531+842207790+855846074+866719430+876539494+885034088+889954612+888451223
521+875158738+839238450+770998785+679831184+599273197+562274204+574547768
511+612273775+640235248+637277481+612083237+593773668+603718178+639210400
501+681711884+716445022+742031079+762742695+780310469+794087142+803998745
492+811351784+817784342+824087365+829744804+833510388+835060139+836126399
482+838665442+842163659+844231620+843267148+839069455+830988983+817854130
472+801233190+786042854+775937436+771221045+770683244+773243202+778323589
462+785151236+791613773+792620285+779144861+744132156+691269182+634614271
452+594073105+584896674+606130056+645168391+688370955+726093441+754405314
442+772813742+779051510+766095621+725883521+661869994+598763562+566479043
432+573651758+605836545+643371561+676532917+705649888+731877417+752282903
422+763484281+764733340+755496394+735755873+709407803+682469016+663934749
412+665488334+690984944+729653637+765828603+791429998+807455410+816815547
402+818701407+808940603+785178217+758128579+751447687+771814969+803649042
392+833023062+854991686+867847809+870370747+865823630+863914903+871723058
382+883472415+889599123+888674180+884306097+879553104+876348956+875753917
##END=
