##TITLE=X7392
##JCAMP-DX=5.0
##DATA TYPE=LINK
##BLOCKS=1


$$ === CHEMSPECTRA SPECTRUM ORIG ===
##TITLE=X7392
##JCAMP-DX=5.00
##DATA TYPE=INFRARED SPECTRUM
##DATA CLASS=XYDATA
##ORIGIN=ComPlat
##OWNER=
##XUNITS=1/CM
##YUNITS=TRANSMITTANCE
##XFACTOR=1
##YFACTOR=8.7065483e-010
##FIRSTX=3997.453
##LASTX=373.96442
##MAXX=3997.453
##MAXY=0.934858504367955
##MINX=373.96442
##MINY=0.3249815717302195
##NPOINTS=2559
##XYDATA= (X++(Y..Y))
2559A053761284A054505851A055095219A055149850A054753880A054156023A053568982
2552A053304249A053634086A054319915A054738203A054711914A054686242A054906066
2545A055037166A054764354A054240433A053854937A053853089A054155201A054423836
2538A054407611A054194497A053994595A053896903A053993500A054427807A055138828
2531A055783375A055976910A055537331A054673577A054003152A054113372A054932149
2524A055697458A055823561A055587785A055704372A056416282A057207402A057574824
2517A057549426A057230131A056582982A055957262A056090211A057058639A057924516
2510A057985856A057471382A056977378A056848606A056936713A056804654A056179619
2503A055205439A054345656A054028072A054388374A055344001A056683686A057981406
2496A058698314A058630882A058163782A057859274A057786022A057767949A058016799
2489A058600486A059084426A059223331A059163497A058936554A058355263A057575783
2482A057120390A057170229A057309064A056966835A056255130A055887502A056363227
2475A057341446A058079988A058169875A057535049A056531638A056010524A056693613
2468A058237718A059570421A060176288A059994391A059000769A057619529A056701281
2461A056763853A057674775A058897463A059590205A058960104A057854550A057584409
2454A058061367A058661278A058855087A058386070A057386081A056359325A055864910
2447A056199335A057266620A058593092A059642098A060039506A059691526A058991664
2440A058568036A058653542A058994950A059387086A059966870A060692336A060876561
2433A060181627A059297062A058848172A058781972A058646627A058202393A057549974
2426A057037143A057211647A058271127A059371066A059416659A058210471A056873114
2419A056780077A057862286A059221825A060122821A060396384A060335867A060227769
2412A060220581A060415348A060736218A060840551A060511123A059935652A059364630
2405A058934774A058828661A059134128A059715760A060430752A061169362A061591894
2398A061176893A059955848A058761297A058390178A058926832A059875956A060703221
2391A061008277A060645029A060050048A059824816A060090850A060517353A060616140
2384A060176835A059514763A058917522A058314051A057544565A056942737A056816293
2377A056853466A056761867A056756596A057035705A057132370A057140175A058009680
2370A059802293A061599083A062554436A062420187A061572794A060703221A060302801
2363A060391251A060703221A061037783A061317372A061474829A061457166A061356324
2356A061498379A062038593A062588186A062629878A062039346A061202223A060696854
2349A060751690A061181274A061736755A062258896A062836832A063786845A065061630
2342A065695497A064776290A063234924A062370622A062049889A061698691A061254594
2335A061045245A061214888A061549039A061897772A062337624A062612421A062285595
2328A061571083A061694789A063187618A064830716A065442745A064870080A063701544
2321A062597018A061980334A062214466A063352195A064570501A064910950A064299949
2314A063350210A062580177A061766876A061084061A061322985A062500147A063781505
2307A064471988A064726315A064992555A065151791A064734257A063624869A062099933
2300A060423631A059084495A058935868A059781892A060615867A061142800A061757019
2293A062812664A064043705A064880486A065234285A065218334A064759313A064042747
2286A063673065A064201025A065598901A066933520A067169568A066376259A065385581
2279A064702697A064224301A063839079A063537310A063088694A062446817A062026681
2272A062029351A062207551A062400607A062823208A063632879A064523401A064985366
2265A064855430A064692086A065082100A065573982A065317327A064514432A064064928
2258A064191098A064541748A065148368A066205110A067068317A066991231A066237629
2251A065459175A065020349A064961885A065108387A065100173A064611646A063796840
2244A063323168A063639657A064460898A065053415A064892193A064341777A064458228
2237A065805717A067783788A069146749A069087874A067877783A066456083A065544818
2230A065303156A065494774A065726715A065728495A065612387A065780182A066453413
2223A067261510A067509128A067019368A066482714A066642225A067268835A067489685
2216A067002527A066346684A066008494A065863771A065602666A065208065A064949836
2209A065077513A065445483A065588974A065302813A064936349A064945454A065353679
2202A065900123A066454782A066988835A067360502A067413421A067175250A066812004
2195A066493941A066289863A066089482A065819957A065779703A066341071A067237412
2188A067737988A067631397A067342908A067132943A066886283A066570821A066267340
2181A065907380A065490050A065381268A065994666A067236043A068431415A068914329
2174A068719356A068533146A068857987A069408059A069498152A068915972A068136971
2167A067706976A067650497A067514057A067029637A066579173A066718420A067381862
2160A067984922A068199885A068201391A068260335A068442300A068527258A068110819
2153A067141226A066278087A066220034A066897236A067761881A068391572A068519591
2146A068076315A067423964A067144307A067570468A068612354A069803892A070534698
2139A070513749A069955736A069222055A068488853A067795494A067213793A066906068
2132A066965285A067187231A067237412A067113158A067140610A067485646A067958565
2125A068401567A068987170A069852019A070643480A070886238A070704341A070610894
2118A070724605A070756165A070551128A070179530A069777946A069496920A069293663
2111A069001136A068970260A069942591A071741914A073001570A072825766A071861102
2104A071131802A070768830A070459461A070256615A070331373A070504781A070459187
2097A070125652A069745291A069705927A070130855A070533877A070327950A069728039
2090A069577907A070254903A071271118A071937024A072023625A071826804A071853435
2083A072364485A073027448A073127330A072350793A071245514A070658952A070928751
2076A071850765A072998968A073741823A073498381A072421307A071429738A071282276
2069A071878696A072450333A072273434A071276457A069998249A068975669A068362339
2062A068086379A068058927A068225214A068567513A069013321A069362397A069408333
2055A069124363A068788500A068902485A069640342A070354444A070172547A069131551
2048A068101508A067596208A067319563A066874850A066283360A065702480A065119752
2041A064555372A064213827A064082179A063653554A062456607A060664952A058772661
2034A056847578A054550007A051861258A049400411A047808521A046921148A045788690
2027A043661788A040834203A038163391A035798592A032895428A028816265A024082629
2020A019624953A015583443A011422608A006817265A001905497I97017142I92577677
2013I88977731I86220180I83974980I82124519I80886085I80272277I79956404I79898351
2005I80548716I82127052I84202198I86268513I88289644I90383069I92353130I93913391
1997I95248899I97005915I99596767A002733105A005788318A008364862A010341289
1990A011722598A012647692A013269715A013625637A013907485A014660882A016292205
1983A018560681A020843944A022664489A023802629A024256242A024325386A024481816
1976A024986363A025788983A026797187A027947171A029023629A029757036A030125143
1969A030303891A030415138A030503519A030554316A030432663A030114395A029951530
1962A030314708A031067900A031753454A032082813A031975400A031476740A030882990
1955A030563010A030557602A030739431A031227137A032102940A032913022A033054938
1948A032572846A032115468A032199947A032809648A033513137A033792522A033435231
1941A032712024A032080280A031721894A031467635A031186677A031070433A031303469
1934A031594833A031468457A031019020A030926531A031592163A032617550A033282840
1927A033327887A033100738A033009139A033089647A033214381A033374987A033487260
1920A033243202A032519858A031731615A031483107A031910295A032462695A032316397
1913A030952545A028325957A024668848A020440443A016438708A013605099A012467095
1906A012722243A013433060A013786859A013709636A013671641A014087602A015080197
1899A016499295A017912985A018879565A019305384A019207692A018384945A016929632
1892A015689213A015450905A015899247A016001320A015286192A014211103A013315994
1885A012577315A011787703A011125699A010921963A011091401A011257415A011320466
1878A011512769A011960905A012444709A012607780A012377961A012127673A012200992
1871A012379330A012230020A011815840A011496202A011282129A011023078A010934491
1864A011331420A012121512A013006146A013839230A014510203A014870847A014969429
1857A015034671A015142974A015104842A014706202A014021196A013495016A013558272
1850A014153460A014911512A015690856A016534415A017287538A017705210A017728076
1843A017359626A016573711A015537575A014652804A014341724A014901107A016318014
1836A018064007A019352758A019758791A019449628A018839106A018193669A017605533
1829A017185397A017019245A016929358A016600136A015994063A015340412A014770143
1822A014219729A013536297A012542059A011277063A010166991A009558591A009186513
1815A008496030A007370966A006190792A005283908A004675576A004352584A004367508
1808A004480672A004098804A002945809A001514319A000528022A000205989A000225500
1801A000195104A000044150I99988219A000094673A000010468I99301432I97934980
1794I96307696I94927757I94066262I93583622I93159857I92701452I92354362I92208611
1786I92223262I92330401I92435623I92444797I92376610I92349090I92451711I92708845
1778I93105637I93567260I93966721I94248364I94496667I94773038I94970475I94986220
1770I94921801I94904207I94836979I94550065I94065851I93579583I93328336I93477578
1762I93905998I94129655I93709450I92760122I91884113I91572211I91764994I92016445
1754I92010489I91856661I91893629I92240171I92581031I92453560I91707486I90564007
1746I89338239I88288206I87550349I86983983I86281657I85367927I84425513I83539372
1738I82668019I81879776I81234750I80556452I79640532I78563732I77558403I76688898
1730I75804058I74742867I73451651I71923565I70200301I68497643I67123866I66161324
1722I65419633I64764475I64268623I63981503I63746482I63318609I62553505I61441996
1714I60064658I58608318I57363792I56550971I56123441I55825848I55402288I54757126
1706I54047200I53578937I53439964I53326868I52911730I52236239I51554108I50919214
1698I50141034I49116469I48017282I47067816I46310585I45737305I45456142I45550136
1690I45950009I46548345I47233694I47800128I48046993I47988187I47866534I47976549
1682I48402503I48890621I49162610I49336429I49744106I50426785I51175869I51948846
1674I52832659I53683064I54167963I54207601I54147014I54381967I54885830I55248391
1666I55178768I54766778I54208422I53585303I52994018I52559505I52235760I51869981
1658I51462509I51113776I50805503I50444926I49979675I49366004I48603775I47831551
1650I47217401I46783025I46432033I46034488I45446968I44578353I43457807I42186855
1642I40897077I39772218I38960904I38402616I37863429I37211420I36529426I35872967
1634I35098416I34096442I33023475I32104405I31351145I30640329I29912536I29145309
1626I28260675I27217146I26144932I25246811I24554001I23902197I23130453I22139569
1618I20837605I19271524I17707566I16357612I15173535I14062710I13095651I12393050
1610I11975447I11723926I11421746I10969160I10555733I10416760I10497063I10558676
1602I10451948I10116017I09541915I08882581I08341887I07888274I07377361I06949215
1594I06896843I07141586I07273234I07096129I06686604I06019534I05038714I03983547
1586I03129787I02311970I01186152H99877821H98867153H98254919H97649394H96853963
1578H96141710H95677075H95165819H94287003H93051924H91557177H89754364H87684284
1570H85696766H84178265H83135147H82275158H81423521H80555590H79516100H78099878
1562H76411117H74851198H73763512H73180716H72850809H72544179H72328942H72359064
1554H72557939H72864707H73473518H74358837H74999344H75106689H75135989
1547H75488282H75649436H74793486H72968971H70985286H69334110H67955609
1540H66855601H66129929H65491818H64496347H63119215H61617691H60046544
1533H58328963H56600769H55178796H54215091H53488734H52646614H51684004
1526H50982020H50793756H50957922H51183496H51336024H51411535H51482391
1519H51650733H51842762H51769784H51358205H51054587H51354097H52144189
1512H52833166H53025880H52850897H52774086H53201615H54059140H54749212
1505H54720254H53963707H52822623H51626087H50648690H50044945H49693474
1498H49401015H49215420H49208917H49147235H48839099H48644057H49111225
1491H50206236H51339789H52047250H52250165H52055397H51718438H51593090
1484H51763349H51934566H51915671H51958595H52436991H53351542H54290122
1477H54890992H55273065H55813690H56517660H56977297H57005502H56890627
1470H56955869H57281463H57867887H58681803H59522076H60099395H60240216
1463H59935161H59340932H58800033H58648258H58893001H59201000H59313548
1456H59418291H59978290H61181398H62711059H64105854H65158351H65905176
1449H66433684H66798984H67035307H67260402H67744411H68626512H69574609
1442H70065806H70030481H69905063H70119615H70771419H71641403H72364747
1435H72795972H73171132H73646926H73915972H73683208H73237058H73115543
1428H73440588H73964578H74588518H75509368H76870412H78363105H79268551
1421H79147035H78503447H78374400H79145255H80224657H81010710H81644713
1414H82546189H83736358H84985608H86222125H87481370H88614170H89215793
1407H89028351H88517095H88533867H89181495H89779215H90069552H90488867
1400H91179966H91667740H91570528H91108905H90854304H91200230H92079114
1393H93002086H93502320H93684491H93970035H94445898H94968997H95559666
1386H96296291H97068583H97733668H98371711H99072532H99565372H99503416
1379H99099094H99040630H99745763I00984607I02331549I03648573I04943623
1372I06147622I07174310I07969536I08540420I09078307I09899547I11142294
1365I12628414I13995552I14930846I15449769I15944937I16742286I17712906
1358I18491565I18813324I18567349I17964084I17621101I18007213I18968385
1351I20151435I21433135I22632272I23484320I24105385I24765062I25218469
1344I25038010I24426392I23937796I23634384I23157289I22460507I22009153
1337I22310376I23486032I25182459I26668580I27207972I26727318I25954204
1330I25541256I25423095I25418166I25743075I26421783I27178877I28385203
1323I30821679I33963288I35962033I36058424I35636166I36119422I37134745
1316I37632241I37763478I38508181I40038663I41513419I42305564I42755823
1309I43788056I45994987I48920264I51370089I52610371I52840806I52508845
1302I51934743I51536719I51608670I52067007I52870654I54215063I56096195
1295I58230420I60311797I61912998I62580273I62330943I61615541I60851190
1288I60251142I59750634I59065970I58275673I58028876I58647408I59387045
1281I59296200I58684308I59013051I61029664I63747440I66066850I68437468
1274I71532182I74146995I74154388I71449620I68493536I67618075I68688646
1267I69907363I70427381I71238217I73729186I78164475I82780498I84207469
1260I81167933I76915088I75179365I76416018I78940807I81210378I82495569
1253I82747843I82317711I81443962I80111602I78154891I75350856I72265521
1246I70879625I72835173I77081787I80878281I82886953I83697035I84026598
1239I84027900I83794521I83521641I83517602I84284760I85887124I87359005
1232I87758398I87580677I87987943I88994914I89569290I89221516I88489957
1225I88094671I88267395I88693487I88894142I88818768I88828900I88999980
1218I89004088I88789740I88670758I88718406I88771599I88940010I89416146
1211I89977378I90247450I90177211I89745231I88670142I87115288I86155349
1204I86636620I87940432I88774954I88929536I89212547I89880644I90297084
1197I90210893I90289211I90966276I91442001I90460839I87852393I84824221
1190I82938160I83121084I85216494I87673508I88066671I85241140I81087082
1183I79171652I81187513I85628210I90059461I93319573I95306954I95813623
1176I94371454I91227518I87814809I85560915I84702432I85116407I87199836
1169I90536008I93029305I93152532I92044925I91696534I91901570I90791567
1162I88002045I85537022I85327603I87274936I89748859I90994960I90502462
1155I89516713I89318249I89204538I87659132I85118734I83859284I85250656
1148I87969869I89209672I87753606I85245111I84024887I84597825I85859946
1141I86911142I87376462I86843710I85280778I83467147I82408626I82892566
1134I85672846I90817171I96458581A000034224A001123826A001123894A000510634
1127I98703438I96556067I96445779I99019105A002192616A004034247A004723224
1120A005287399A005656396A004731645A001994358I98565287I96559900I97414550
1113A000818496A005042314A008252040A009682024A009689554A009059726A008558055
1106A008732558A009579882A010469925A010810306A010610815A010057867A009202122
1099A008492607A008701204A009810728A010817562A010963724A010552898A010325749
1092A010644497A011450813A012248025A012161424A010738765A008690592A007469205
1085A007821224A009100871A010464653A011920240A013674721A015356363A016446855
1078A017015891A017654961A018853414A020512531A022067111A023194161A024067157
1071A024869982A025757218A027297558A029863765A032528758A033654849A032911242
1064A031682940A031297855A031857649A032803418A033783622A034796686A035838572
1057A036442523A035838162A034204648A032873452A032718802A033463026A034174184
1050A034039935A033068220A032180368A032383419A033789646A035596226A036903324
1043A037363715A037255138A037200507A037697386A038679439A039592621A040157960
1036A040567895A040933538A041029245A040547426A039591183A038703605A038392114
1029A038841756A039949911A041445273A042933790A043962463A044350492A044365279
1022A044412858A044762687A045371840A045889805A046098949A046108054A045937042
1015A045415106A044716887A044379655A044586472A044983263A045156740A044974432
1008A044561758A044145934A043859020A043629612A043281496A042723550A042088588
1001A041652499A041549811A041678857A041744715A041449449A040961196A040869939
994A041427405A042290201A043144850A044052624A045089786A046088201A046769716
987A047105578A047371407A047718976A048037313A048266105A048563151A049023541
980A049455384A049681574A049762151A049805828A049938229A050259099A050613309
973A050654590A050435725A050516576A051048780A051629317A051983801A052238333
966A052564406A052836122A052893149A052832357A052703379A052295017A051646432
959A051206374A051112653A051157699A051097797A050864282A050564223A050269984
952A049922826A049557936A049429712A049546161A049347218A048697331A048066066
945A047761421A047684198A047545636A047249822A047058204A047213333A047607113
938A047921479A047659347A046537364A044923977A043356870A042228861A041574799
931A041116325A040552629A039773559A038809238A037491802A035642025A033778008
924A032268749A030782218A029184646A027524775A025744416A023891627A022205194
917A020764462A019587163A018648309A017495792A015575707A012551643A008278397
910A003194796I98168495I93645235I89722571I86352992I82984576I79021863
903I75961858I74979531I75692401I78389160I82862033I86995621I89619129
896I91199244I92276181I93147603I94037098I95045712I95887560I96216234
889I96145378I96007843I96144694I96698942I97526618I98483751I99462312
882A000214683A000637215A000873195A000954525A000600726I99399398I97043294
875I93199700I87426369I79319867I68876704I56659617I43453083I30153513
868I18116543I08918385I03488584I01791814I03081318I06121128I09476810
861I12045618I13548648I14488392I15420674I16345905I16908643I16705318
854I15337975I12706047I08891686I03131636H93855845H81979823H70833580
847H60304637H47523648H31395603H15093876H01242865G88919186G77683261
840G68510844G61372085G55129396G51089666G51681567G55362501G60932097
833G68240497G77159134G87282660G97646479H07625281H17797618H28782502
826H40506886H54520215H72204551H87884734H98229384I06562212I16312223
819I27576764I37445004I44908123I51354137I57558217I62808175I66342468
812I68216685I68694739I68061830I66399837I63534531I59665676I55104147
805I49637172I43032605I34779805I21157106H94343072H58604855H30053111
798H08474179G87970131G66631218G45208922G25308823G09181052F98085880
791F90873666F85904460F82869237F82986029F86934502F93602053G02019634
784G12307874G24598829G38058389G51663083G65184873G78802711G93021214
777H08761504H25007846H38713177H49337758H58692962H68350483H78175457
770H86303044H91620640H94651687H96144037H96704447H97392055H98887965
763I01038279I03870314I07535502I12013716I17039948I21934122I25947495
756I28916723I31055468I32465119I33180658I33345783I33091387I32371740
749I30988720I28567511I24607262I18913412I11617677I02239334H89831107
742H74781164H58785588H42002453H23351605H05177715G91821323G83156192
735G76897277G72077929G68598335G66269135G64810468G64059398G63974919
728G64466048G65244570G66011384G66544206G66473144G65266340G62575948
721G58541215G53603501G47763627G40269769G30258176G17997479G04980990
714F92067806F79025507F65780225F52959735F41396300F31476852F23143475
707F16555407F12223902F10004854F08724387F06848595F03045735E96235652
700E85412675E70603058E54321595E39712565E27644685E17528622E09010986
693E01976527D95774331D89183455D81072093D70848719D58654805D45512453
686D33055517D22810168D15880041D13123311D14822683D20171257D27948297
679D37478860D48540590D60735702D73326613D85835543D98509221E11944238
672E26559054E42527622E59941851E78876361E99011961F18933760F36102733
665F47725386F51922505F48869345F40563900F28836230F14390990E98217693
658E82799094E70977669E63675293E58697359E51946083E40786661E26940613
651E15716292E11954302E16817738E28039628E42254777E56914741E70833664
644E83851318E96259955F08312192F20027607F31287151F41874764F51412618
637F59540479F66279159F72071385F77389870F82395839F87061427F91555591
630F96304357G01541445G06844938G11136120G13054905G11270986G04491229
623F91601322F72510279F49211164F25793682F06910961E95647310E92353926
616E95187810F01592886F09495926F17745645F25979139F34162726F42174754
609F49813950F57046771F64018898F70886829F77745107F84605029F91382526
602F97956286G04223827G10155574G15891595G21673758G27587637G33518494
595G39398143G45265126G51049207G56531311G61601357G66393253G71081432
588G75663019G80012118G84001530G87475031G90205267G91852335G91838712
581G89371635G83514577G72861312G55807077G32990602G09927124F95215576
574F94362502G05719874G22909316G40131961G54787646G66716176G76577844
567G84935798G92153147G98685079H05113363H11761470H18499808H25048581
560H31304073H37272856H42723538H46840764H47833017H42206942H24840327
553G92663034G50973696G14478179F97948619G04704071G25627776G48506139
546G66026857G76330021G80249878G79692275G76974020G74098855G72273655
539G72006936G73504489G76875301G81996761G88406424G95475147H02594941
532H09267420H15304800H20970308H26690241H32603161H38456111H43850245
525H48531373H52506956H55831421H58179926H58690771H56240330H49696828
518H37907545H19987845G96401610G70108621G46263541G30036709G24104688
511G27752898G37952414G51248561G65142086G78422419G90768552H02200888
504H12706623H22163284H30569844H38219378H45449529H52346076H58931886
497H65441295H72038879H78426224H84131028H89102081H93532716H96812545
490H96647489H89252282H70909022H40827756H03960093G70471320G50226802
483G46592215G55636271G70635075G86508451H00944586H13401282H23963839
476H32739533H39880618H45835572H51160494H56085201H60563003H64645384
469H68479940H72034018H75119422H77668514H79832178H81867892H84011155
462H86341998H88759921H91192083H93714476H96276986H98514518I00121537
455I01295277I02556644I04203986I06078614I07848636I09436898I11074382
448I12903005I14694661I16120399I17209043I18352044I19853020I21621125
441I23372868I24982147I26473263I27826505I29008527I30089093I31165893
434I32279593I33459220I34723120I36027138I37299938I38483193I39540688
427I40510349I41497057I42573310I43796819I45274518I47032765I48876107
420I50536046I51878059I52852512I53290037I52718126I50262961I45097961
413I37868837I31782166I30901160I36159127I43464927I45898048I36588233
406I10528691H68394845H21109691G86704998G77862967G92564931H18242947
399H43230960H62944232H77954127H89836242H99368825I06892530I12854262
392I17650197I21419511I24360739I26932697I29461456I31823242I33709919
385I35032695I36056233I37293777I39169569I41631374I44134598I46065021
378I47070281I46732502I43923332I37248320I26919552I15691706I06894995
371I01888410I00228882I01358054I04693951I08826512I12221627I14516666
364I16185847I17354657I17715781I17198980I16096370I14715815I13165068
357I11303174I08881143I05881930I02578072H99119906H95324165H90994030
350H86169685H80943756H75272909H69036106H62129495H54578337H46699258
343H38990507H31754810H25064463H19138946H14378337H10963780H08860839
336H08258806H09529346H12697997H17300122H22767097H28775040H35243236
329H41970414H48092889H51402430H47196275H27996107G88079803G32689311
322F82017053F60622071F79241291G27681837G85601156H37412993H77291712
315I05665324I24730900I35736733I37650314I26707533H96432183H39835571
308G56380289F60161270E78741359E36887821E36005822E50667258E50444422
301E26870510D97451350D84870298D96849077E25855906E60892925E95224846
294F26537974F54663487F79985104G02538216G21525953G35282695G41992760
287G41441797G36518597G32134857G31729713G34777328G37622370G36690293
280G31965557G28163108G31430682G43902097G62083792G80493115G95739332
273H07430239H16764632H24846009H31932600H37941569H43191595H48276498
266H53511737H58795035H63853786H68641916H73528148H78778723H83947898
259H88313770H91852376H95298972H99296394I03821092I08421095I12773548
252I16865719I20747239I24408387I27909957I31325952I34514866I37179518
245I39227554I40966153I42819695I44897032I47046183I49323833I51962127
238I54704343I56833709I58226793I59540532I60705303I59967856I54541067
231I40579083I13242633H71802420H26258193G91512571G68990677G39962729
224F85356646F10843278E46158512E18966478E33904627E75735095F25275512
217F70961998G09862429G42593903G69754412G91561862H08358892H21280498
210H32681341H45024258H57441727H66792481H73281352H78819388H84531037
203H90627087H96671107I01951393I06117294I09523157I12747192I16016751
196I19296923I22588595I25873216I29002708I31837619I34354808I36555030
189I38427056I40041333I41628362I43590276I46274028I49461026I52302850
182I54052471I54657038I54666896I54931424I56066141I57720534I58857716
175I59165236I59618096I61347590I64469278I68192245I71483370I73397020
168I73496081I72450772I71744612I72404494I74298770I76631597I78699624
161I80273235I81613468I83037495I84419899I85335751I85504367I84940466
154I84102863I83829230I84497532I85487731I85912317I85459184I84111900
147I81628187I77736261I72394772I65856063I59117109I53997909I51944533
140I52681158I54291668I54856529I53771650I50911068I45174294I34586544
133I17080065H90597101H53688705H08042610G61005417G24330536G08666989
126G17672160G46101977G83773218H22175538H57256954H87645741I12907661
119I33181548I48721731I59779113I67240315I72551955I76600722I79233471
112I80189578I80208746I80714457I82162034I83113896I81832470I78196583
105I72953813I66699416I60567836I56146444I53306468I49535989I42413456
98I31754646I18898625I04491037H87886719H68175569H43978196H13101361
91G75501865G35210677F95590392F55494040F11692998E62249589E08017159
84D54042924D09151527C81178473C73261091C84797416D13036744D52847449
77D96813478E37709233E71465101E98210915F21308554F45052314F71813908
70G00090513G26712244G50763799G72644363G91924766H08204996H21626835
63H32099641H40203405H47866631H55535196H60220295H59609567H54689926
56H47357291H38928824H30608866H24277110H22348741H26270310H34835217
49H43680534H46764363H38321999H13359043G71132913G21305788F80539148
42F60813964F64588824F86783686G18486486G51270399G79385234H00182152
35H14287902H24196533H32072531H37825804H39012140H33236275H19092804
28G97051839G70497403G45223503G28839899G28471654G45021822G70761794
21G94802532H10292602H16714793H19505616H25681832H33703238H35926804
14H29313680H16161503G97760121G71970927G37418361F97225960F57247563
7F20115099E83625264E45707295E05275148D59523830D10403721C73285325
##END=


$$ === CHEMSPECTRA PEAK TABLE EDIT ===
##TITLE=X7392
##JCAMP-DX=5.00
##DATA TYPE=INFRAREDPEAKTABLE
##DATA CLASS=PEAKTABLE
##$CSTHRESHOLD=0.93
##MAXX=3997.453
##MAXY=0.934858504367955
##MINX=373.96442
##MINY=0.3249815717302195
##$CSSOLVENTNAME=- - -
##$CSSOLVENTVALUE=0
##$CSSOLVENTX=0
##NPOINTS=32
##PEAKTABLE= (XY..XY)
406.54465351837325, 0.6342473649438436
432.0422275762312, 0.5753408694880461
446.20754649726314, 0.715981903296069
487.2869713682562, 0.3249815717302195
552.4474384050036, 0.6170043368344069
685.6014362627047, 0.45184067067878875
767.7602860046909, 0.6339787270080116
774.8429454652069, 0.6370840097486186
796.0909238467552, 0.42215466687723935
803.1735833072712, 0.4666760578324203
827.2546254730255, 0.5751737969207529
848.5026038545734, 0.703714433333933
896.6646881860825, 0.7837886242188
941.9937087333851, 0.6772501492966806
1056.7327919937447, 0.6500241180301485
1097.8122168647378, 0.6304452440328431
1136.0585779515245, 0.6721515676219009
1151.6404287646596, 0.6076723362241798
1185.6371941751368, 0.6045500661371846
1246.5480655355746, 0.5157358067413625
1293.2936179749804, 0.44573548577557864
1340.0391704143858, 0.35968780610774215
1405.1996374511336, 0.6651584532262088
1490.1915509773257, 0.5945433994524647
1558.1850817982795, 0.6539398454659868
1597.8479747771694, 0.7851493985135616
1648.8431228929044, 0.8494913015249468
2487.430003017983, 0.7388760471778453
2532.759023565285, 0.7407476929952415
2576.6715122204846, 0.7594974067010899
2776.402509007047, 0.8263528379673952
3216.94392745114, 0.8534787926851479
##END=


$$ === CHEMSPECTRA PEAK TABLE AUTO ===
##TITLE=X7392
##JCAMP-DX=5.00
##DATA TYPE=INFRAREDPEAKTABLE
##DATA CLASS=PEAKTABLE
##$CSTHRESHOLD=0.93
##MAXX=3997.453
##MAXY=0.934858504367955
##MINX=373.96442
##MINY=0.3249815717302195
##NPOINTS=85
##PEAKTABLE= (XY..XY)
3214.1108636669273, 0.8531532322071853
2903.890379296325, 0.8638712195347411
2895.391187943706, 0.8639935282546047
2871.310145777951, 0.8648461135142629
2861.394422533229, 0.8633171348009291
2855.728294964816, 0.8635647925673227
2769.3198495465203, 0.8231659565854659
2757.987594409695, 0.8252645760224592
2738.15614792025, 0.8307327062691776
2646.0815749335416, 0.7926587494069508
2630.4997241204064, 0.7895941166697017
2576.6715122204846, 0.7594974067010899
2532.759023565285, 0.7407476929952415
2518.593704644253, 0.7409747867652052
2510.094513291634, 0.7424718768747354
2487.430003017983, 0.7388760471778453
2476.097747881157, 0.7414436370031247
2471.8481522048473, 0.741724493708841
2456.266301391712, 0.7460559631792784
2440.6844505785766, 0.7475862530987861
2412.3538127365127, 0.7573870447424043
2396.7719619233776, 0.7601822646610227
2382.6066430023457, 0.764760913908352
2364.1917284050037, 0.7735917002993189
2350.0264094839717, 0.7756266026038883
2324.528835426114, 0.7827540668757429
2290.532070015637, 0.7989312436955678
2267.867559741986, 0.802751722363659
2253.7022408209536, 0.8057197959976418
2240.953453792025, 0.8146161470505818
2215.455879734167, 0.8284600403197028
2191.3748375684127, 0.8341124681688711
2185.70871, 0.8346831232054076
2170.1268591868647, 0.8424613505940522
2154.5450083737296, 0.849044624253583
2137.546625668491, 0.8453010348548388
2123.381306747459, 0.8563043505713177
2116.2986472869425, 0.8598418864447199
2107.7994559343233, 0.860289397803411
2102.1333283659105, 0.8609198363538494
2095.0506689053946, 0.8607909707324611
2079.4688180922594, 0.8586009177371857
2068.136562955434, 0.8621318967090632
2058.2208397107115, 0.8557998565953128
2048.305116465989, 0.8525205282128792
2032.7232656528536, 0.8573359285335466
2022.8075424081312, 0.8634253772213593
2015.7248829476152, 0.8578802366842725
2001.559564026583, 0.8566018376549417
1993.060372673964, 0.8567460207067542
1981.7281175371381, 0.8553388152605635
1966.146266724003, 0.8675603303194626
1951.9809478029708, 0.867659690319317
1650.259654784988, 0.8488706378162847
1630.4282082955433, 0.8671790392258317
1597.8479747771694, 0.7851493985135616
1558.1850817982795, 0.6539398454659868
1490.1915509773257, 0.5945433994524647
1405.1996374511336, 0.6651584532262088
1340.0391704143858, 0.35968780610774215
1293.2936179749804, 0.44573548577557864
1246.5480655355746, 0.5157358067413625
1185.6371941751368, 0.6045500661371846
1151.6404287646596, 0.6076723362241798
1136.0585779515245, 0.6721515676219009
1097.8122168647378, 0.6304452440328431
1056.7327919937447, 0.6500241180301485
954.7424957623139, 0.8104935912066028
941.9937087333851, 0.6772501492966806
896.6646881860825, 0.7837886242188
848.5026038545734, 0.703714433333933
827.2546254730255, 0.5751737969207529
803.1735833072712, 0.4666760578324203
796.0909238467552, 0.42215466687723935
774.8429454652069, 0.6370840088779638
767.7602860046909, 0.6339787270080116
685.6014362627047, 0.45184067067878875
607.6921821970286, 0.8460541399642759
589.2772675996871, 0.8565756709946809
572.2788848944483, 0.8288151055485444
552.4474384050036, 0.6170043368344069
487.2869713682562, 0.3249815717302195
446.20754649726314, 0.715981903296069
432.0422275762312, 0.5753408694880461
406.54465351837325, 0.6342473640731888
##END=

##END=

