##TITLE=JPK- 128
##JCAMP-DX=4.24
##DATA TYPE=INFRARED SPECTRUM
##DATE=28/2/2019
##SAMPLING PROCEDURE=Diamant-ATR
##ORIGIN=Rieke
##XUNITS=1/CM
##YUNITS=TRANSMITTANCE
##RESOLUTION=4
##FIRSTX=3997.453
##LASTX=373.96442
##DELTAX=-1.4165319
##MAXY=1.0052723
##MINY=0.57925987
##XFACTOR=1
##YFACTOR=9.3623276e-010
##NPOINTS=2559
##FIRSTY=0.99749786
##XYDATA=(X++(Y..Y))
3997+1065437892+1065557963+1066323845+1067323247+1068017443+1068119625
3989+1067637686+1066817307+1065992153+1065385241+1065046992+1064902220
3980+1064794818+1064582561+1064248387+1063926818+1063826229+1064050582
3972+1064440908+1064677994+1064621587+1064514313+1064795518+1065663900
3963+1066814951+1067716884+1068119370+1068110457+1067782458+1067155428
3955+1066323526+1065427196+1064611019+1064047653+1063776443+1063594872
3946+1063408973+1063456848+1063890339+1064475414+1065015097+1065707064
3938+1066643758+1067367622+1067312043+1066437740+1065245880+1064397553
3929+1064257682+1064540797+1064500116+1063755179+1062964723+1063113124
3921+1064175491+1065164963+1065281023+1064699067+1064201403+1064178484
3912+1064382082+1064469048+1064495214+1064851925+1065723872+1066684758
3904+1066968255+1066349883+1065436045+1064770244+1064319245+1063909438
3895+1063594045+1063544641+1063822854+1064247941+1064589692+1064896490
3887+1065268290+1065475072+1065222642+1064725742+1064420790+1064456760
3878+1064739175+1065104290+1065256512+1064841675+1063932357+1063140182
3870+1062926652+1063117772+1063330665+1063493328+1063721819+1064103996
3861+1064567791+1064780048+1064357635+1063262990+1061884021+1060854886
3853+1060851767+1061805459+1062898321+1063646950+1063986981+1064111445
3844+1064266340+1064453386+1064530484+1064568810+1064699767+1064684424
3836+1064244949+1063662166+1063346518+1063207857+1062881895+1062397028
3827+1062160515+1062324387+1062655441+1063091669+1063814323+1064541434
3819+1064648772+1064301738+1064258892+1064757956+1065185781+1065049794
3810+1064490884+1063922871+1063661720+1063727167+1063874805+1063809994
3802+1063352566+1062753739+1062564465+1062789837+1062994263+1063019219
3793+1063072061+1063197798+1063280180+1063483715+1064059049+1064740703
3785+1064951814+1064664497+1064400863+1064364129+1064189879+1063572144
3776+1062701662+1061940363+1061490639+1061360891+1061414751+1061488347
3768+1061512093+1061455305+1061296017+1061131508+1061158756+1061525654
3759+1062232583+1063020302+1063436030+1063222436+1062443566+1061277236
3751+1059996054+1059200568+1059410342+1060580302+1062261805+1063547315
3742+1063715453+1063076072+1062161088+1061285003+1060890475+1061398453
3734+1062396264+1062883933+1062621699+1062158987+1061923874+1061882111
3725+1061829524+1061801703+1062042545+1062587002+1063097017+1063192705
3717+1062936774+1062844334+1063293613+1063924081+1063858825+1063064548
3708+1062559945+1062770228+1063224792+1063389682+1063159472+1062921113
3700+1063098673+1063504660+1063546997+1062948234+1062032104+1061344847
3691+1061146214+1061232734+1061183394+1060962925+1060993738+1061590337
3683+1062721907+1064060895+1065175913+1065858267+1066102675+1065759142
3674+1064887959+1064233999+1064207132+1064347449+1064014930+1063312648
3666+1062682435+1062158541+1061697739+1061603706+1062195912+1063276232
3657+1064315680+1065064309+1065671603+1066164620+1066315950+1065982858
3649+1065290827+1064485027+1063728568+1063105103+1062611577+1062274410
3640+1062200942+1062372835+1062618516+1062900549+1063310929+1063827884
3632+1064374697+1064849187+1064868796+1064217191+1063513637+1063245928
3623+1063320925+1063625813+1064133345+1064507755+1064330705+1063948846
3615+1064088653+1064789661+1065296493+1064970532+1064026389+1063203719
3606+1062995473+1063354158+1063989719+1064595358+1064941628+1065049921
3598+1065042345+1064827860+1064328413+1063839726+1063680947+1063756453
3589+1063838070+1063839726+1063696353+1063399932+1063166093+1063181118
3581+1063318569+1063307428+1063129359+1063080656+1063386372+1063907210
3572+1064343883+1064604207+1064729116+1064563080+1063909820+1063075244
3564+1062527731+1062239713+1062008739+1061906876+1062133903+1062674031
3555+1063316914+1063837625+1064088971+1064093810+1064007672+1063903263
3547+1063701956+1063317614+1062766281+1062210619+1061949213+1062223161
3538+1063005786+1064004744+1064793290+1065000008+1064619486+1064130353
3530+1064067708+1064416652+1064626999+1064311096+1063719464+1063431828
3521+1063703229+1064244631+1064609618+1064582752+1064228715+1063805665
3513+1063636318+1063831767+1064136274+1064239665+1064235781+1064527173
3504+1065281023+1066097518+1066350775+1065943259+1065394791+1065120588
3496+1065030694+1064978235+1065197368+1065891436+1066653117+1066767267
3488+1066103884+1065311645+1064926476+1064714219+1064222030+1063649560
3479+1063647332+1064389785+1065331763+1065818413+1065661035+1065146245
3471+1064704415+1064649409+1065066856+1065755959+1066325564+1066479568
3462+1066217143+1065742907+1065275038+1064998926+1065030694+1065318903
3454+1065676697+1066010425+1066398905+1066863082+1067207633+1067271043
3445+1067250161+1067464009+1067791053+1067712046+1067036121+1066288766
3437+1066145266+1066692652+1067451849+1067976571+1068172848+1068110457
3428+1067877191+1067579242+1067407157+1067356926+1067148616+1066524578
3420+1065572669+1064637185+1063887856+1063100901+1061978562+1060596346
3411+1059257612+1057895895+1055925484+1052661795+1047589720+1040411820
3403+1031357222+1021410878+1011875296+1003640886+996768702+990545703+984080780
3393+977014738+969452242+961276594+952101734+942076956+932264880+923919312
3383+917486221+912448398+908098786+904333804+901691161+900866007+902367340
3373+906312619+912192913+918968963+925657348+931803822+937388522+942451366
3363+946905578+950614726+953580148+956063121+958483512+961070385+963594868
3353+965587880+966882303+967788820+968710489+969837538+971299081+973260452
3343+975629275+977951750+979816288+981174821+982195042+983062469+983960009
3333+984921850+985661057+985808249+985324336+984404959+983006890+980809643
3323+977729052+974153917+970561593+967196296+964204645+961728484+959705676
3313+957845723+955924142+953934376+951959254+950052506+948222348+946473552
3303+944887991+943645518+942886894+942536103+942288640+941872657+941378940
3293+941189093+941475391+941988717+942471929+942979716+943578798+944049786
3284+944188320+944220725+944628623+945594793+946795248+947724110+948139648
3274+948236290+948417797+948864657+949380784+949711011+949851582+949942176
3264+950060274+950264954+950606068+950946163+950978059+950578501+950020483
3254+949759714+950051679+950726903+951278045+951287340+950853022+950464415
3244+950441050+950703602+951066616+951403782+951515640+951205531+950541194
3234+949818667+949310435+949174002+949440565+949924923+950292776+950357650
3224+950275905+950310029+950434047+950388973+950185947+950184992+950521331
3214+950911911+951181021+951463245+951764823+951881774+951840711+951931178
3204+952252746+952611431+952864943+953111005+953523232+954150007+954904239
3194+955673177+956366736+956886747+957216337+957576231+958307862+959477312
3184+960711000+961579827+962094808+962634555+963377135+964069040+964533407
3174+965085886+966107636+967447006+968623905+969480509+970296049+971325120
3165+972479991+973460358+974085987+974493121+974982190+975670211+976384079
3155+976937704+977393859+977945829+978666382+979489435+980342219+981142098
3145+981773075+982240244+982742110+983423446+984199069+984954955+985753561
3135+986684907+987623892+988262891+988415367+988295105+988410274+989060478
3125+990046066+991023122+991927347+992831444+993645711+994248613+994712853
3115+995153983+995501654+995634904+995661897+995876192+996421095+997112108
3105+997641095+997868313+997870032+997827695+997959798+998434034+999215323
3095+1000072627+1000785986+1001265187+1001504502+1001590003+1001733248
3087+1002125738+1002759199+1003473322+1004133139+1004646273+1004871072
3078+1004731202+1004476672+1004558162+1005067986+1005545150+1005546424
3070+1005187038+1004922831+1005059328+1005600156+1006296262+1006762285
3061+1006760503+1006383928+1005851949+1005296159+1004859676+1004747945
3053+1005001902+1005376885+1005596400+1005645103+1005718508+1005921088
3044+1006149070+1006318736+1006551429+1007006629+1007617043+1008136098
3036+1008425198+1008570225+1008732569+1008991238+1009326367+1009606426
3027+1009622915+1009316562+1008913631+1008588306+1008105157+1007100279
3019+1005539866+1003616694+1001488267+999505632+998369224+998557034+999727821
3009+1001056114+1002060673+1002827765+1003555003+1004192856+1004521746
3000+1004366978+1003750898+1002981514+1002479457+1002369955+1002346144
2992+1002022793+1001255192+1000109170+998729628+997209450+995464156+993439312
2982+991510473+990301933+990040463+990482930+991445217+992897401+994613473
2972+996248755+997740793+999242189+1000747469+1002084675+1003167414+1004035287
2962+1004740369+1005332575+1005891484+1006425310+1006722177+1006475032
2953+1005684894+1004698987+1003617903+1001954227+999224618+995619624+991714135
2944+987742499+983512130+978841714+973755379+968320481+962573564+956599939
2934+950458685+944015981+937115275+930003522+923371162+917872663+913721430
2924+910719401+908503627+906766355+905384393+904383780+903801124+903639990
2914+903902478+904572545+905635230+907157572+909205909+911635595+914117613
2904+916421180+918500776+920298339+921672788+922599996+923304633+924075926
2894+925015803+926037806+927084703+928256063+929689275+931370459+933102257
2884+934631538+935810665+936696491+937472241+938166883+938518756+938292301
2874+937614022+936733671+935595162+933975095+931920519+929705573+927464461
2864+925178465+922885657+920695158+918797834+917628956+917694021+919048989
2854+921269729+924076053+927576064+931736657+936092380+940220949+944096962
2844+947749576+950940942+953436776+955367206+957120713+958988498+960995198
2834+963005017+964925834+966750263+968427182+969861604+971132153+972507048
2825+974123931+975827271+977424800+978906652+980296126+981493079+982407554
2815+983121741+983810270+984560937+985338597+986095693+986875581+987763890
2805+988723630+989552985+990075288+990327016+990535644+990938321+991610935
2795+992410941+993092978+993539647+993893429+994406182+995123615+995782796
2785+996133077+996281097+996551989+997076774+997708706+998264369+998655841
2775+998860267+998923804+998967732+999115497+999428535+999894749+1000410939
2765+1000814380+1000959726+1000748997+1000133490+999170057+998040461+996963388
2755+996112832+995629492+995614913+996056807+996796396+997583224+998187971
2745+998543409+998808380+999208256+999764364+1000273233+1000564816+1000662477
2735+1000676038+1000637839+1000459579+999954721+998887133+997103386+994756590
2725+992394962+990679972+989923193+989976290+990584666+991663840+993175105
2715+994926320+996613998+998000671+999037126+999834777+1000512102+1001103353
2706+1001646664+1002247719+1002936822+1003562006+1003962709+1004190691
2697+1004422684+1004697651+1004923022+1005144001+1005552217+1006148370
2689+1006669908+1006970595+1007227608+1007660398+1008247829+1008792477
2680+1009123277+1009220111+1009227178+1009309814+1009504372+1009767051
2672+1010078306+1010366833+1010455327+1010252492+1009921819+1009718221
2663+1009691991+1009669072+1009530284+1009405565+1009512967+1009868851
2655+1010278276+1010572405+1010727492+1010770911+1010749901+1010797395
2646+1011070324+1011560603+1012075329+1012433632+1012595849+1012603934
2638+1012522890+1012473677+1012580442+1012817592+1013003810+1013022273
2629+1012991396+1013136741+1013525285+1014018620+1014448036+1014743438
2621+1014936214+1015121223+1015349077+1015551657+1015696685+1015945103
2612+1016442894+1017070625+1017614318+1018020242+1018329396+1018595195
2604+1018974125+1019628913+1020469155+1021235101+1021832654+1022378385
2595+1022967344+1023611882+1024361529+1025237296+1026017184+1026331495
2587+1026037111+1025310892+1024418763+1023636838+1023277771+1023456413
2578+1023909958+1024281821+1024459381+1024498599+1024459891+1024452506
2570+1024617333+1024940811+1025274922+1025598973+1026036156+1026526499
2561+1026772243+1026628489+1026333150+1026275025+1026657520+1027282004
2553+1027554169+1027000098+1025920160+1025211066+1025449044+1026412540
2544+1027439000+1028013762+1028140517+1028271475+1028746029+1029286794
2536+1029239746+1028363343+1027260358+1026895943+1027593895+1028628568
2527+1029032519+1028677462+1028260525+1028344689+1028774614+1029032519
2519+1028892075+1028553572+1028225191+1027838430+1027303459+1026814071
2510+1026638739+1026742257+1026820055+1026623141+1026123631+1025476992
2502+1024917765+1024616059+1024564746+1024620325+1024655404+1024699460
2493+1024989705+1025785446+1027001499+1028139180+1028742655+1028827392
2485+1028717444+1028591898+1028410263+1028230093+1028332147+1028927345
2476+1029881546+1030822760+1031420122+1031523195+1031159290+1030492915
2468+1029801393+1029390376+1029347402+1029412913+1029366947+1029407629
2459+1029751607+1030091066+1029984237+1029567363+1029348485+1029473521
2451+1029641532+1029648917+1029659167+1029845640+1029985128+1029691126
2442+1029024115+1028505314+1028458521+1028662947+1028705984+1028416184
2434+1027959520+1027701297+1027928451+1028562867+1029207786+1029535849
2425+1029525790+1029266039+1028770603+1028153123+1027736631+1027744971
2417+1028054125+1028403769+1028672051+1028869092+1029081986+1029457924
2408+1030026064+1030547412+1030729428+1030571477+1030339357+1030172620
2400+1029903956+1029430675+1029103823+1029424436+1030388633+1031421332
2391+1031949300+1031826365+1031281652+1030697277+1030385195+1030379847
2383+1030451533+1030405249+1030345405+1030596369+1031380905+1032571237
2374+1033720952+1034398277+1034510517+1034219762+1033668556+1033075586
2366+1032952396+1033715477+1035003406+1035868987+1035899164+1035711609
2357+1035949459+1036271600+1035961873+1035029127+1034003749+1033191519
2349+1032671381+1032511902+1032638340+1032751726+1032680231+1032540997
2340+1032440280+1032476187+1032760384+1033079916+1033038534+1032701877
2332+1032545199+1032684242+1032702259+1032282392+1031525742+1030692757
2323+1029976915+1029430357+1028936003+1028460813+1028305026+1028673515
2315+1029114900+1029042132+1028768502+1029183721+1030336173+1031296550
2306+1031543122+1031574126+1031918869+1032314415+1032214144+1031644094
2298+1031167311+1031132805+1031256250+1031057299+1030560845+1030288871
2289+1030536843+1030959129+1031058127+1030844469+1030759732+1031061629
2281+1031533827+1031803636+1031810194+1031973175+1032874152+1034561958
2272+1036182788+1036656260+1035824867+1034572844+1033804352+1033731775
2264+1034120318+1034685148+1035144678+1035231579+1034775997+1033775958
2255+1032483444+1031346781+1030687919+1030490496+1030616615+1031160881
2247+1032500315+1034843545+1037642166+1039715332+1040299898+1039822734
2238+1039353846+1039469524+1039890409+1040054981+1039739715+1039047366
2230+1038129135+1037238280+1036779196+1036845407+1036932754+1036533643
2221+1035774254+1035148879+1035007290+1035560087+1036861832+1038440963
2213+1039424131+1039448324+1039032277+1038705743+1038342028+1037812086
2204+1037585250+1037976149+1038374561+1038007408+1037056645+1036297193
2196+1035949650+1035604270+1035129334+1034989782+1035546591+1036386705
2187+1036630922+1036095186+1035914061+1037347082+1040106613+1042821261
2179+1044760222+1045769429+1045458874+1044325713+1044313043+1046191396
2170+1047925040+1047411587+1045232166+1043123921+1041504809+1040145575
2162+1039772311+1041362901+1044370851+1047007382+1048437347+1049252187
2153+1049789705+1049500096+1048252720+1046971539+1046232141+1045403996
2145+1043976323+1042572269+1041909205+1041785187+1041702296+1041663461
2136+1041796901+1041837328+1041520662+1041032165+1040658710+1040366236
2128+1039975655+1039472198+1038989877+1038716566+1038750753+1038780166
2119+1038142632+1036612459+1034912048+1034035072+1034240198+1035024161
2111+1035855745+1036520910+1036904742+1036947524+1036879213+1037006096
2102+1037172196+1036975027+1036601254+1036740170+1037498985+1038194454
2094+1038421800+1038485782+1038577332+1038380545+1037746958+1037111078
2085+1036986678+1037452510+1038270915+1039183289+1039951845+1040282136
2077+1039875448+1038745342+1037562076+1037310157+1038223867+1039430752
2068+1039986224+1039760534+1039094604+1038339163+1037948010+1038193117
2060+1038682951+1038929141+1039217477+1039972536+1040628279+1040385144
2051+1039826808+1040417741+1042260696+1043647051+1043433648+1042448951
2043+1041979809+1042262415+1042887853+1043714981+1044898119+1046352531
2034+1047325640+1046835552+1044974962+1043051216+1041951669+1041648627
2026+1042582901+1045493189+1049315724+1051702946+1052196981+1052343282
2017+1052579286+1051857077+1050350906+1049446936+1049288476+1049072272
2009+1049212970+1050631984+1052531537+1053366241+1053079560+1052385046
2000+1051322806+1050127126+1049985282+1051497501+1053540172+1054557528
1992+1054036753+1052342582+1049983117+1047525928+1045658908+1044832417
1983+1044792372+1044695921+1044026299+1043495084+1044609465+1047962602
1975+1052145668+1054707967+1054451399+1052776263+1052140447+1053105408
1966+1053872627+1053082298+1051469998+1050300038+1049942308+1050293035
1958+1051110677+1051605094+1050906505+1049229777+1047675667+1046895460
1949+1046726240+1046932640+1047520517+1048493244+1049775126+1051125447
1941+1051994656+1051952510+1051231193+1050444238+1049817081+1049037256
1932+1047936118+1046874769+1046267666+1046154662+1046376214+1046744703
1924+1046980770+1046881136+1046490300+1045864353+1045052441+1044459153
1915+1044590493+1045387570+1046344445+1047032975+1047223905+1046795826
1907+1045893193+1045038881+1044788361+1045210902+1045810174+1046083358
1898+1046077883+1046187449+1046527162+1046887566+1047283622+1047996853
1890+1048936030+1049473102+1049226148+1048478347+1047714629+1047287123
1881+1047442019+1048204845+1049223092+1050027046+1050453788+1050682343
1873+1050964567+1051458411+1052210669+1053120624+1053940748+1054432109
1864+1054476165+1054091186+1053505856+1053154175+1053332817+1053806734
1856+1054027904+1053859385+1053767135+1054175860+1054961987+1055723986
1847+1056237821+1056461601+1056357319+1056026583+1055773453+1055754226
1839+1055863156+1055936243+1055947257+1056032503+1056378583+1057058391
1830+1057865272+1058443217+1058730726+1058918535+1059065536+1059103544
1822+1059073749+1059159632+1059513542+1060001339+1060203473+1059920039
1813+1059487376+1059371316+1059623427+1059933600+1060084102+1060082702
1805+1060039346+1060111542+1060410955+1060854886+1061233371+1061464664
1796+1061626435+1061803421+1062018862+1062212338+1062276384+1062234047
1788+1062229336+1062306815+1062364559+1062366469+1062391171+1062388624
1779+1062214629+1061917126+1061637003+1061328549+1060853358+1060264527
1771+1059767754+1059415881+1059144098+1058952850+1058887785+1058938335
1762+1059000280+1058974433+1058912806+1058943555+1059111184+1059348397
1754+1059536334+1059582300+1059471588+1059259458+1058970804+1058579777
1745+1058088161+1057535809+1056941566+1056210763+1055218618+1054120408
1737+1053351216+1053295382+1053893318+1054440576+1054578346+1054690204
1728+1055111344+1055800256+1056570976+1057347172+1058140175+1058991813
1720+1059993890+1061167988+1062231564+1062885524+1063306218+1063760272
1711+1064279264+1064806341+1065375946+1066070715+1066792223+1067301793
1703+1067604517+1067902784+1068110457+1068063091+1067871907+1067970778
1694+1068245171+1068299540+1068055769+1067693774+1067414924+1067277282
1686+1067178347+1067036949+1066903254+1066713980+1066279789+1065523966
1677+1064462808+1063150814+1061767642+1060505369+1059236857+1057563185
1669+1055292342+1052776645+1050300548+1047639187+1044406184+1040580085
1660+1036470488+1032292197+1028205073+1023992085+1017950912+1007982285
1652+997585516+990312055+983705479+974903565+964370554+955346770+948538823
1642+942573092+936827449+931357917+925726806+918962215+911598988+905570611
1632+901027014+896929386+892690996+888641625+885734011+884967301+887063577
1622+891721261+897748746+904936132+914324968+925600878+935706956+943098959
1612+948952323+954385693+959418487+963448058+966048173+967158861+966716076
1602+964465923+960072256+953075735+942795726+928711582+911399209+893117865
1592+876927195+865088492+858404309+856501572+858334341+862665745+868472443
1582+875024650+881686359+888161787+895098972+903509096+912375184+919403727
1572+924831622+930501059+937277492+944062265+949788809+954719039+959023704
1562+962496467+965741502+970602466+977257809+982489872+986029100+989264840
1553+992517961+995706972+998768908+1001465030+1003693918+1005714561+1007812492
1543+1010345951+1014187330+1019588932+1024554050+1027826525+1029957370
1534+1031428526+1032050972+1031380778+1029139538+1024430669+1015514859
1526+1001359538+980533148+947486706+899286558+847881102+807239312+779231266
1516+762516256+756406835+757849342+762884746+769369341+777791370+789983537
1506+803787686+814376722+822224498+829553665+837356749+845822197+854677207
1496+862874691+869353239+874338221+878878443+883722663+888524419+892321934
1486+894790582+896078448+896301083+895661893+894577370+893508828+892751222
1476+892287555+891599662+889670186+885798630+880507232+874401694+866844354
1466+856388823+842902932+829276216+818443027+810713285+805553862+803628844
1456+805791967+810469577+816085473+822563256+830062661+838593047+847926622
1446+857300178+865971453+873871752+881014891+887113617+892249675+897131011
1436+902146297+906709821+910516312+914151419+918166793+922424537+926324933
1426+929581746+932368334+934934007+937475997+940337901+943951361+948168233
1417+952240077+955848954+959068778+961854284+964146646+966046709+967697653
1407+969202678+970593744+971730916+972450005+972845551+973211494+973738698
1397+974397752+975163761+976095171+977104441+977884266+977782785+975236020
1387+967813394+954332597+936933513+920634614+911303967+912220161+921717799
1377+935391245+949694458+962513401+972414225+979078673+983294271+986056603
1367+988339097+991176681+995244641+1000325311+1005460413+1009972687+1013926816
1357+1017577775+1021017369+1024281567+1027488977+1030745153+1033965932
1349+1036859413+1039064810+1040265455+1040198035+1038559951+1034979087
1340+1029437933+1022950918+1017245511+1013479510+1011795270+1011825001
1332+1013122544+1015283376+1017896797+1020551919+1023000449+1025236914
1323+1027306069+1029100066+1030388951+1030924114+1030430078+1028552235
1315+1024912862+1019278950+1011676982+1002321443+991429301+978944532+964184272
1305+945970922+923689865+898335158+872146385+847236182+825026684+806913860
1295+794617283+789374206+790986951+797807121+807584819+818430995+829275643
1285+839744098+849822100+859627428+869270794+878716672+887760129+896197628
1275+903959903+911015058+917272945+922702559+927457903+931790007+935911128
1265+939964254+943999237+947950119+951678558+955026029+957834772+959998087
1255+961482294+962252250+962172924+961006912+958519228+954581906+949126254
1245+941956184+932657625+920668228+905373888+886452208+864875344+843994712
1235+829084395+824763432+832193380+848631004+869534810+890978234+910618557
1225+927490945+941567896+953359997+963495806+972426513+980385256+987472817
1215+993650168+998332553+999335585+992426093+974057402+946443566+918613207
1205+899993233+893348012+895446834+902769189+913773380+926936238+939892377
1196+950911466+959717200+966742687+972369406+976878242+980621769+983978026
1186+987114132+989923257+992281957+994290758+996180698+998059688+999815359
1176+1001281358+1002457493+1003485036+1004416063+1005089696+1005237524
1167+1004674859+1003504135+1002262298+1001788254+1002705211+1004886161
1159+1007511296+1009745660+1011300980+1012315599+1012939828+1013219760
1150+1013226253+1013092749+1012933843+1012799830+1012700832+1012666262
1142+1012795437+1013277631+1014315996+1015934789+1017887757+1019908654
1133+1022027658+1024438945+1027083817+1029600086+1031708458+1033474698
1125+1035156965+1036926579+1038744069+1040412966+1041729990+1042612823
1116+1043058665+1043000858+1042321877+1041039232+1039407960+1037750141
1108+1036176295+1034530953+1032687234+1030813974+1029189578+1027778076
1099+1026161702+1023894679+1020802438+1016958958+1012488384+1007391798
1091+1001581854+995275200+989470795+985841481+985847593+989817256+996841343
1081+1005434120+1014242336+1022382650+1029475304+1035490439+1040498658
1072+1044541153+1047712337+1050265660+1052511292+1054594771+1056489359
1064+1058217082+1059895210+1061497132+1062791810+1063674389+1064390231
1055+1065253138+1066208930+1066884473+1067086862+1067042997+1067031283
1047+1067018996+1066860344+1066642485+1066606260+1066859198+1067320001
1038+1067817092+1068110457+1068000127+1067153009+1065396446+1062588976
1030+1058663942+1053691247+1047753592+1040826211+1033009885+1024843150
1021+1017194325+1010919185+1006770944+1005393693+1006965947+1010683436
1013+1014708869+1016895484+1015873608+1011665968+1005365744+998370879+991952813
1003+987278258+985413020+987012396+991948420+999316104+1007858840+1016461739
993+1024440218+1031560502+1037822018+1043211650+1047716603+1051481903
984+1054763100+1057699491+1060199462+1062052413+1063197034+1063901735
976+1064564226+1065333800+1066088096+1066727540+1067281420+1067762277
967+1068110457+1068447623+1068506322+1068327552+1068106255+1068031322
959+1068110457+1068414391+1068591250+1068496136+1068059144+1067397480
950+1066773188+1066407181+1066308629+1066234587+1065867371+1065112885
942+1064128825+1063029979+1061777956+1060401469+1059078397+1057913212
933+1056763052+1055332514+1053469631+1051412955+1049620613+1048249219
925+1046982553+1045466705+1043681366+1041739221+1039546812+1036902832
916+1033912773+1031035844+1028533708+1026056210+1023060994+1019489615
908+1015741122+1012105188+1008495356+1004668365+1000524325+996143200+991557266
898+986600933+981079325+974956725+968250259+960870734+952694449+943629347
888+933436431+921589897+907533765+891166808+873055893+854108812+834722382
878+813888926+789299719+758918011+722909458+684540804+649808721+625889963
868+618713527+631084464+662114402+706824534+756134924+799599782+830337819
858+847673620+855350712+858062049+859240667+860433164+861714982+862683253
849+863267628+863840352+864800156+866181800+867726997+869275632+870941346
839+872948301+875419050+878296551+881447873+884710543+887620195+889259742
829+888689310+885390096+879274881+870766333+860917522+850979263+841837000
819+833974581+827572049+822483421+818476196+815463027+813239486+811308228
809+809348767+807556615+806189424+805077080+803907120+802681709+801554023
799+800503497+799491171+798640360+797981243+797285201+796326862+795095211
789+793752785+792594730+791893722+791539367+790981858+789828578+788394985
779+787298557+786549546+785554345+784083954+782607705+781506057+780580441
769+779553026+778562536+777927802+777628325+777224757+776362742+775178012
759+773999585+772917864+771932085+771196380+770855458+770873729+771080384
749+771280417+771625924+772998272+776565895+782555946+789109490+792090891
739+786961709+772592030+753513481+737241639+728810761+728108161+731960300
730+737773427+745151743+754947202+767732467+783393132+801180058+818776437
720+831407953+833704580+823679865+804747362+783925875+767820196+759390273
710+757942355+761365269+767801861+775993298+785283963+795596441+806988347
700+819109466+831080718+841561461+848919531+851807664+849566233+841920846
690+828891428+811414802+791547197+771544051+752921658+736557757+723031757
680+712374664+704069651+697668519+692950545+689578182+687235206+686019599
670+686359758+688473032+691568647+694770072+698462795+703151674+708626108
660+714189353+719315224+724038291+728961454+734871988+742126477+750489170
650+759420259+768268139+776471672+783838718+790572496+797165830+804219394
640+812034256+820486143+829406346+838787223+848641127+858942400+869550089
630+880038089+889494536+895758853+894599335+881359825+855517958+823436795
620+794909757+776252284+767153631+763930687+764218386+767759015+774532901
611+783818792+794434121+805111459+814966954+823840809+832042431+839898357
601+847609828+855196326+862448459+869180454+875569171+881952094+888190691
591+893686261+898365017+903054278+908440027+914226415+919664051+924334021
581+928102378+930945627+933254160+935951173+939847430+944804973+949814466
571+953841299+956371129+957506519+957954843+958514262+959105513+958551314
561+955669102+950632234+945444418+943137604+945827104+953117244+962829813
551+973159289+983279373+992311689+999294139+1004336546+1008588497+1012807788
541+1016732949+1019861861+1022268691+1024567738+1027293591+1030438291
533+1033595024+1036406951+1038842876+1041199666+1043776098+1046499468
524+1049168978+1051954611+1055128470+1058539987+1061682077+1064168934
516+1066022330+1066669669+1062757941+1048920941+1024223187+997199073+980309941
506+978653522+987446141+999434647+1010158078+1017937097+1022983833+1026466591
496+1029272406+1031553117+1033225198+1034735889+1037218544+1041261293
487+1045665401+1048429898+1049166431+1049629526+1051298677+1053437736
479+1054292429+1053576588+1052936825+1053827680+1055836544+1057511171
470+1058034874+1057190749+1054703956+1050683807+1045397566+1037791141
462+1024712829+1000562015+957729599+894031003+822393081+761278685+719485271
452+698101182+695205409+706866553+729118896+758530486+791401088+823778418
442+851289054+870608700+882298237+890046315+897521719+906679962+917970452
432+930925382+944030751+955135786+963338555+969838875+976074289+981795931
422+986032283+989065507+992129991+995975635+1000990730+1007523965+1014649788
412+1020088251+1022826900+1024740332+1027923804+1032222421+1035980145
404+1037788467+1037932094+1039388925+1046521114+1059161924+1068110457
395+1068229764+1062132439+1058169142+1060407899+1066741037+1071402031
387+1070006381+1063968391+1060038073+1062311909+1067567400+1071387261
378+1073090664+1073741823+1072590135+1068110457
##END=
