##TITLE=JMB-167
##JCAMP-DX=4.24
##DATA TYPE=INFRARED SPECTRUM
##DATE=7/2/2019
##SAMPLING PROCEDURE=Diamant-ATR
##ORIGIN=Angelika Moesle
##XUNITS=1/CM
##YUNITS=TRANSMITTANCE
##RESOLUTION=4
##FIRSTX=3997.453
##LASTX=373.96442
##DELTAX=-1.4165319
##MAXY=1.0027188
##MINY=0.77722323
##XFACTOR=1
##YFACTOR=9.3385466e-010
##NPOINTS=2559
##FIRSTY=0.99955159
##XYDATA=(X++(Y..Y))
3997+1070350276+1069327329+1068588857+1068801463+1069899533+1071221316
3989+1072037784+1071989786+1071272122+1070427442+1069863599+1069571912
3980+1069362689+1069242951+1069309585+1069317755+1068801973+1067849810
3972+1067264266+1067596930+1068484245+1069229930+1069562211+1069588379
3963+1069516511+1069577529+1069814325+1069981933+1069921490+1069779157
3955+1069681630+1069533616+1069301926+1069253482+1069685523+1070428974
3946+1070830442+1070426357+1069491938+1068816909+1068882969+1069317755
3938+1069356626+1068748678+1068084692+1068107286+1068744594+1069169295
3929+1068900202+1068287979+1067879809+1067859065+1068048566+1068251853
3921+1068478373+1068784996+1069115681+1069388922+1069540829+1069468769
3912+1069141849+1068676427+1068141306+1067494807+1066862415+1066632576
3904+1067018343+1067710988+1068378038+1069030025+1069461109+1069142998
3895+1068034460+1066932688+1066884946+1067933997+1068641578+1068087436
3887+1067205546+1067330454+1068224152+1068765656+1069031238+1069438068
3878+1069265226+1068055076+1066726784+1066136580+1066013204+1066006757
3870+1066383716+1066812439+1066564345+1066095923+1066412693+1067411259
3861+1068063820+1067800026+1066525985+1064383969+1062474537+1063207392
3853+1067359368+1070744213+1070830442+1069369582+1067907446+1066855841
3844+1066271765+1066144686+1066209725+1066328379+1066896115+1068038417
3836+1068828653+1068405803+1067081084+1065824213+1065283603+1065433276
3827+1065877253+1065974014+1065233372+1064291804+1064749057+1066880733
3819+1068771273+1069634590+1070232261+1070442761+1069620229+1068164985
3810+1066855202+1066176280+1066437203+1067141400+1067101062+1066462670
3802+1066680126+1067834875+1068232961+1067687563+1067428747+1067587547
3793+1067247480+1066278403+1065409533+1065041701+1065041637+1065348962
3785+1065916826+1066291679+1066178769+1066057946+1066444862+1066987068
3776+1067105977+1066827183+1066351101+1065798683+1065483189+1065590162
3768+1065771046+1065796194+1065848468+1065845851+1065579630+1065381258
3759+1065674923+1066004268+1065444191+1063823956+1061838953+1060796922
3751+1061901503+1064073517+1064849775+1064327674+1064682677+1066846075
3742+1068593197+1068265640+1066736485+1065145674+1064016903+1063717046
3734+1064493751+1065689540+1066156111+1065667775+1064968237+1064681847
3725+1064623765+1064413457+1064493942+1065540888+1067156591+1068179729
3717+1068001973+1066935305+1065803853+1065580269+1066651596+1068008291
3708+1068409951+1067776091+1066663978+1065757259+1065660690+1066221980
3700+1066427054+1065740154+1064613106+1063572735+1062738778+1062173148
3691+1062304822+1063732109+1066077477+1067590419+1067288265+1065877892
3683+1064456348+1063564820+1063078016+1062794690+1063287813+1065397853
3674+1067803408+1068068224+1066784802+1066376440+1067516125+1068377400
3666+1067978038+1067026002+1066175004+1065451020+1064743121+1064293782
3657+1064636913+1065702241+1066255042+1065514400+1064435669+1064732589
3649+1066856096+1068871289+1069014771+1067488106+1065357195+1063777809
3640+1063405446+1063854082+1064209404+1064127514+1063931759+1063770852
3632+1063489314+1063537120+1064926303+1067066979+1067869788+1067090403
3623+1065848404+1064948131+1064783714+1065332048+1065756047+1065382343
3615+1064872625+1065149376+1065988758+1066489604+1066427757+1066143665
3606+1065662669+1064798267+1063781192+1063209115+1063454783+1064183171
3598+1064697549+1064791374+1064866178+1065167184+1065312963+1064968683
3589+1064529813+1064629127+1065009724+1064789076+1064004329+1063402701
3581+1063293175+1063352406+1063186904+1062784861+1062473771+1062530959
3572+1062801711+1062888132+1062850028+1063414828+1064944876+1066318869
3564+1066204428+1064735206+1062950299+1061702172+1061266238+1061467163
3555+1061972286+1062546980+1063036337+1063134311+1062647698+1062064388
3547+1062165936+1062895408+1063359363+1063200180+1062887366+1062715162
3538+1062524130+1062296844+1062332204+1062710056+1063036784+1062895855
3530+1062347650+1061870355+1061828740+1062119534+1062383903+1062398264
3521+1062176978+1061813805+1061384189+1061043420+1061067737+1061609241
3513+1062419965+1062964532+1062908493+1062446453+1061996413+1061664260
3504+1061295151+1060944935+1060886343+1061105395+1061314873+1061495630
3496+1061925757+1062587190+1062986872+1062770308+1062178126+1061719533
3488+1061593923+1061580711+1061406847+1061077630+1060838983+1060865471
3479+1061072461+1061295470+1061468312+1061480248+1061125564+1060456663
3471+1059939924+1059926520+1060208442+1060400942+1060512958+1060766476
3462+1061059759+1061002634+1060414537+1059578219+1059038566+1059115733
3454+1059527924+1059706319+1059586389+1059659789+1060120425+1060532425
3445+1060598038+1060600911+1060827112+1061145542+1061287428+1061118671
3437+1060611250+1059840865+1058976399+1058215588+1057799375+1057911519
3428+1058368133+1058642140+1058444916+1058093233+1058077914+1058366091
3420+1058347772+1057549686+1056202054+1054918887+1054009870+1053377222
3411+1052903758+1052595284+1052462844+1052520863+1052732767+1052836038
3403+1052540394+1051992507+1051697757+1051901554+1052327660+1052601667
3394+1052705066+1052870057+1053158298+1053406136+1053603615+1053984595
3386+1054624838+1055288634+1055794969+1056146270+1056276540+1056138675
3377+1056024106+1056271114+1056701241+1056809172+1056467509+1056057104
3369+1055957280+1056197140+1056580545+1056966568+1057383291+1057882860
3360+1058338262+1058509892+1058341645+1058047980+1057864925+1057833906
3352+1057856692+1057867989+1057949176+1058266521+1058797366+1059209111
3343+1059209366+1058908679+1058631481+1058527316+1058547868+1058611759
3335+1058686755+1058827109+1059085032+1059317616+1059308871+1059081522
3326+1058812429+1058550230+1058292435+1058147804+1058168995+1058219481
3318+1058161208+1058000429+1057805375+1057611789+1057457202+1057476031
3309+1057844756+1058485893+1059003717+1059115541+1058944678+1058748411
3301+1058655033+1058726136+1058946401+1059159581+1059289979+1059469969
3292+1059741168+1059893969+1059797208+1059583198+1059362741+1059036460
3284+1058532933+1058028193+1057802503+1057958559+1058332326+1058645970
3275+1058752113+1058762325+1058950550+1059476352+1060144232+1060480725
3267+1060183677+1059492117+1058954188+1058867320+1059131498+1059507499
3258+1059761337+1059714425+1059412334+1059096776+1058850214+1058511998
3250+1058075170+1057834225+1057948474+1058123933+1057976430+1057609619
3241+1057558558+1058092339+1058788494+1059001994+1058656820+1058315795
3233+1058454490+1058917488+1059181027+1059002377+1058640162+1058438917
3224+1058402153+1058300030+1058034257+1057721890+1057525624+1057561239
3216+1057865244+1058266138+1058409237+1058136890+1057764335+1057757505
3207+1058158016+1058512828+1058392642+1057870350+1057441756+1057470478
3199+1057775185+1057879159+1057612938+1057231192+1056985333+1056899422
3190+1056949909+1057129325+1057296295+1057242234+1056988779+1056849574
3182+1057100539+1057641213+1058077021+1058189483+1058189291+1058343688
3173+1058543975+1058476702+1058072872+1057552431+1057145601+1056977291
3165+1057101624+1057427842+1057659851+1057514582+1057045393+1056601544
3156+1056441084+1056508613+1056620437+1056736856+1056988971+1057422352
3148+1057773079+1057649383+1056986801+1056119910+1055404479+1055033902
3139+1055155811+1055770396+1056549845+1057097093+1057332804+1057417183
3131+1057444245+1057429756+1057445968+1057532006+1057521666+1057170812
3122+1056533952+1056021298+1055891347+1055898432+1055711293+1055472199
3114+1055526706+1055793310+1055905580+1055838307+1055894730+1056189417
3105+1056570844+1056881870+1056957058+1056609267+1055916814+1055271528
3097+1054992415+1055105260+1055434796+1055641083+1055337461+1054463038
3088+1053425539+1052692237+1052341766+1052126096+1051822154+1051377348
3080+1050811271+1050183729+1049643502+1049304264+1049092743+1048894945
3071+1048766462+1048781270+1048805779+1048630703+1048240532+1047828851
3063+1047583822+1047489167+1047341600+1046974726+1046434371+1045899505
3054+1045508632+1045315301+1045365596+1045731067+1046386246+1047063636
3046+1047426872+1047447871+1047420873+1047594672+1048006608+1048586152
3037+1049131039+1049281606+1048849181+1048132474+1047664243+1047652946
3029+1047867849+1048060669+1048281509+1048680105+1049169463+1049490191
3020+1049574633+1049641204+1049851257+1050006993+1049766049+1049130018
3012+1048522773+1048326443+1048551878+1049019853+1049589313+1050103371
3003+1050413121+1050565092+1050713552+1050835206+1050796910+1050629238
2995+1050430482+1050122456+1049640183+1049214205+1049101551+1049173867
2986+1049156314+1049168058+1049579484+1050360081+1050988708+1051090384
2978+1050827993+1050582070+1050530370+1050615260+1050710744+1050742019
2969+1050754912+1050850524+1050981560+1050907713+1050502287+1050030673
2961+1049927657+1050312148+1050908734+1051404282+1051659652+1051626973
2952+1051359795+1051082725+1050988389+1050989219+1050898649+1050797165
2944+1050990687+1051588741+1052253813+1052478546+1052146329+1051728776
2935+1051793496+1052342149+1052806805+1052740936+1052324596+1052015868
2927+1051860003+1051485661+1050782549+1050178112+1050071331+1050324722
2918+1050523605+1050473373+1050268618+1050076054+1050010376+1050111541
2910+1050355933+1050713489+1051148275+1051586316+1052001634+1052513906
2901+1053227294+1053980574+1054438593+1054453975+1054198031+1053915216
2893+1053671207+1053418071+1053221422+1053241719+1053476473+1053727949
2884+1053894025+1054078356+1054330024+1054522716+1054570586+1054544672
2876+1054531396+1054596308+1054869996+1055398351+1055904368+1056001065
2867+1055676060+1055301271+1055140237+1055093516+1054947736+1054649475
2859+1054298685+1054022253+1053894727+1053909918+1053999339+1054094249
2850+1054214051+1054474910+1054913589+1055347737+1055538131+1055430775
2842+1055124536+1054722684+1054336981+1054095525+1054049315+1054147289
2833+1054313110+1054490930+1054663836+1054837061+1054995989+1055144386
2825+1055365736+1055706697+1055993788+1055956386+1055579172+1055185937
2816+1055064603+1055114707+1055032562+1054781086+1054624009+1054712727
2808+1054901973+1055002500+1055007733+1055032307+1055122940+1055187533
2799+1055148662+1055117132+1055249444+1055447115+1055430265+1055138386
2791+1054856209+1054901335+1055313462+1055853179+1056214309+1056256690
2782+1056107591+1056032340+1056164269+1056382428+1056483210+1056426723
2774+1056371258+1056480274+1056714964+1056829851+1056626053+1056208692
2765+1055896581+1055880624+1056047020+1056111293+1055881773+1055454136
2757+1055162640+1055237955+1055537046+1055730951+1055712952+1055651806
2748+1055660997+1055621935+1055422861+1055196915+1055160662+1055311994
2740+1055468241+1055517132+1055453817+1055276379+1055045136+1054953226
2731+1055137684+1055471433+1055687421+1055657040+1055458157+1055236934
2723+1055059560+1054896867+1054763406+1054803808+1055092495+1055420627
2714+1055512026+1055405947+1055371927+1055502644+1055642296+1055683783
2706+1055711101+1055847115+1056099230+1056356514+1056458892+1056313751
2697+1056014341+1055764779+1055608915+1055365800+1054947098+1054568671
2689+1054470187+1054592223+1054703728+1054709408+1054688856+1054716812
2680+1054742790+1054654390+1054463357+1054381532+1054619349+1055133152
2672+1055648615+1055917133+1055884326+1055633041+1055236870+1054756066
2663+1054359767+1054308387+1054695686+1055292272+1055756482+1055942217
2655+1055923005+1055794841+1055563534+1055193277+1054736471+1054414658
2646+1054490611+1054977863+1055547450+1055833137+1055765992+1055557279
2638+1055426052+1055388267+1055287421+1055020818+1054682984+1054445039
2629+1054375724+1054450720+1054651007+1054985713+1055431350+1055846158
2621+1056015681+1055891858+1055683081+1055591107+1055593979+1055590916
2612+1055572278+1055537876+1055438690+1055348056+1055553641+1056258605
2604+1057202406+1057804992+1057759867+1057283211+1056766599+1056425766
2595+1056251839+1056103825+1055897155+1055752844+1055798097+1055904240
2587+1055887837+1055834924+1055960535+1056251775+1056450850+1056367365
2578+1056158269+1056239903+1056823213+1057595386+1057988621+1057716784
2570+1057000715+1056316814+1055955556+1055846030+1055794075+1055782012
2561+1055964492+1056431638+1056977546+1057167430+1056811661+1056236138
2553+1055800075+1055416861+1054946332+1054686495+1054990947+1055704208
2544+1056349493+1056620501+1056507272+1056218841+1056075423+1056263966
2536+1056694667+1057215746+1057787376+1058263904+1058294988+1057765547
2527+1057109539+1056848233+1057010097+1057287487+1057550708+1057922433
2519+1058410769+1058654267+1058176143+1057023565+1055968449+1055773077
2510+1056423596+1057355016+1058134911+1058585335+1058570527+1058082254
2502+1057389035+1056825128+1056520165+1056468977+1056699262+1057164813
2493+1057622895+1057872265+1057990089+1058106508+1058100636+1057762484
2485+1057157983+1056671817+1056683816+1057177450+1057715380+1057916497
2476+1057831161+1057726549+1057755463+1057964877+1058302647+1058547677
2468+1058513019+1058265755+1057952112+1057591939+1057197428+1056887231
2459+1056769727+1056823277+1056879125+1056718410+1056318474+1055951791
2451+1055850690+1055869135+1055723420+1055467986+1055429435+1055742504
2442+1056272710+1056963057+1057876223+1058845236+1059400782+1059199218
2434+1058441980+1057780100+1057705614+1058022832+1058137528+1057885222
2425+1057671403+1057720167+1057737655+1057490774+1057190216+1057121347
2417+1057310911+1057669042+1058073893+1058258990+1057982174+1057409396
2408+1057059180+1057246957+1057716273+1057910370+1057558239+1056930953
2400+1056520804+1056560759+1056939952+1057468627+1057982749+1058249288
2391+1058060745+1057478839+1056807065+1056331941+1056189863+1056353451
2383+1056624522+1056792385+1056870509+1057043032+1057389482+1057827587
2374+1058203844+1058282095+1057936985+1057516369+1057553516+1058000110
2366+1058297733+1058188142+1057832118+1057345250+1056833809+1056606778
2357+1056831958+1057293997+1057751761+1058127763+1058205056+1057656787
2349+1056477721+1055178405+1054567778+1055096644+1056254328+1057072583
2340+1057105326+1056628224+1056218904+1056187949+1056343494+1056356387
2332+1056205118+1056097251+1056081358+1055971066+1055610255+1055045200
2323+1054459528+1054058698+1054025125+1054440891+1055159194+1055868497
2315+1056325750+1056471657+1056388108+1056251520+1056190757+1056119144
2306+1055875901+1055547003+1055405691+1055546939+1055825670+1056073763
2298+1056182077+1056130952+1056108293+1056347770+1056756323+1057010991
2289+1057030011+1056972887+1056908613+1056912060+1057213002+1057750676
2281+1057925177+1057350165+1056551057+1056368833+1056859403+1057255446
2272+1057017118+1056528208+1056505166+1057049861+1057715444+1058267543
2264+1058850597+1059523009+1060029728+1059995772+1059235471+1057984089
2255+1056749877+1055827393+1055184277+1054869421+1055117834+1055941642
2247+1056995673+1057961941+1058761623+1059329551+1059547391+1059491479
2238+1059373336+1059177900+1058770942+1058332390+1058283244+1058831130
2230+1059764720+1060429217+1060037578+1058656054+1057582238+1057895370
2221+1059100095+1059943307+1059899330+1059180772+1058010577+1056602182
2213+1055453434+1055127344+1055642679+1056230202+1056077976+1055358013
2204+1055028030+1055540429+1056331175+1056703858+1056784598+1057403588
2196+1059133157+1061534373+1063414254+1063737854+1062344331+1060124829
2187+1058476766+1058146783+1058808153+1060011218+1061617666+1062676292
2179+1061326235+1057077498+1052207283+1049812897+1050838333+1053635018
2170+1056059338+1057303571+1057719784+1057739059+1057695019+1058383643
2162+1060921958+1065407107+1069689927+1070830442+1068583113+1065545356
2153+1063930993+1063910632+1064510665+1064810075+1064408351+1063641221
2145+1063245624+1063531439+1064239275+1064960514+1065202799+1064735525
2136+1064219871+1064431392+1064817223+1064146982+1062301248+1060207293
2128+1058555400+1057445649+1056737112+1056219798+1055860391+1055947387
2119+1056565418+1057211023+1057532134+1058013258+1059147773+1060259375
2111+1060086278+1058493488+1056708645+1055817564+1055827265+1056227649
2102+1056689944+1057147899+1057707976+1058501722+1059441375+1060284204
2094+1060866556+1061053696+1060743307+1060083086+1059300574+1058381281
2085+1057411438+1056981950+1057573621+1058749113+1059552433+1059584027
2077+1059207132+1058842683+1058613099+1058643991+1059150709+1059979815
2068+1060460429+1060078236+1059238279+1059083692+1060234036+1061784700
2060+1062130831+1060837579+1058981378+1057664446+1057142473+1057339697
2051+1058122337+1059007228+1059379463+1059134944+1058819386+1059307212
2043+1061249834+1064294293+1066955538+1067815663+1066887052+1065495252
2034+1064511686+1063332045+1061679003+1061065950+1062431390+1064085836
2026+1064329781+1064049391+1064473007+1064676167+1063264581+1060557253
2017+1057957793+1056550291+1056705134+1057964303+1059140689+1059263810
2009+1058579590+1058219417+1058787154+1059779592+1060567274+1061076162
2000+1061114267+1059941392+1057234128+1053965064+1051677268+1051254865
1992+1052576711+1054691665+1056081933+1055641083+1053863835+1052278322
1983+1051450238+1050767486+1050211685+1050585261+1051775306+1052812869
1975+1053699482+1054861252+1055539727+1054855635+1053536661+1053122619
1966+1054094632+1055798862+1057653085+1059427142+1060761689+1061339638
1958+1061333319+1061145159+1060914107+1060512639+1059787698+1058793409
1949+1057950899+1057772058+1058268947+1058942571+1059413802+1059745827
1941+1060160636+1060696714+1061175987+1061393189+1061260174+1060702395
1932+1059649960+1058403365+1057680211+1057911838+1058729391+1059360890
1924+1059288447+1058537529+1057577706+1056902997+1056567844+1056148121
1915+1055379012+1054650050+1054554438+1055117515+1055694251+1055717930
1907+1055325270+1055051391+1055100601+1055113558+1054682282+1053945087
1898+1053398221+1053250080+1053271143+1053172339+1052877206+1052574477
1890+1052679216+1053432496+1054454677+1055090708+1055097154+1054811658
1881+1054743619+1055070666+1055583512+1056101719+1056739345+1057552941
1873+1058171675+1058192993+1057891732+1058099615+1059018589+1059847184
1864+1059921223+1059337721+1058594526+1058084935+1057849288+1057640639
1856+1057268595+1056890295+1056808980+1057011693+1057110688+1056809491
1847+1056337430+1056322048+1057038819+1057780674+1057710593+1056985077
1839+1056327537+1056126228+1056063934+1055607575+1054787596+1054210285
1830+1054240092+1054401637+1054103631+1053488344+1052934586+1052409613
1822+1051743520+1051092043+1050764550+1050839674+1051122297+1051439196
1813+1051858280+1052542947+1053412838+1054138736+1054559289+1054835402
1805+1055180512+1055672358+1056298560+1056969440+1057438947+1057428990
1796+1056981695+1056593119+1056843510+1057617023+1058008088+1057637575
1788+1057046989+1056729133+1056583098+1056252988+1055744099+1055391905
1779+1055337908+1055324376+1055057582+1054636327+1054551310+1055089750
1771+1055785204+1056133632+1056210671+1056155525+1055979810+1055903091
1762+1056222032+1056781790+1057161941+1057273828+1057150643+1056706794
1754+1056086720+1055780672+1056163950+1056951313+1057497476+1057683339
1745+1057867861+1058255352+1058705520+1059006334+1058987377+1058476447
1737+1057581089+1056963568+1057376908+1058377005+1058937721+1059015333
1728+1058913466+1058691095+1058396600+1058130890+1057805439+1057286274
1720+1056816575+1057052287+1058273925+1059553646+1059988113+1059724509
1711+1059223599+1058690265+1058199759+1057919050+1057849352+1057661638
1703+1057316592+1057292274+1057667574+1057702742+1057360377+1057282445
1694+1057301146+1056875168+1056180162+1055654168+1055318249+1055068815
1686+1055296612+1056359259+1057310273+1057140495+1056146206+1054911994
1677+1053952427+1053720545+1054102291+1054474782+1054745279+1055320292
1669+1056016894+1056142759+1055811181+1055778566+1056439872+1057356930
1660+1057874563+1057828927+1057310146+1056613161+1056703986+1058553102
1652+1060358881+1060366093+1059627429+1059467289+1060136828+1060748924
1643+1060830558+1060557700+1060023090+1059369570+1059182240+1060108809
1635+1061508268+1061986519+1061557031+1061011442+1060790603+1060733351
1626+1060504724+1060242270+1060351349+1060662056+1060583677+1060134594
1618+1060028579+1060684140+1061338936+1061277982+1060851685+1060720968
1609+1061130989+1061785721+1062283376+1062522917+1062660846+1062837454
1601+1062982723+1062851751+1062095663+1059993283+1055086878+1045746321
1592+1031992611+1016918459+1005611408+1001685634+1004659564+1011121675
1584+1017912428+1023635556+1028041625+1031368580+1034357382+1037768460
1575+1040920913+1042428749+1042682204+1043174944+1044650868+1046085942
1567+1046126025+1044606508+1041942072+1038568461+1034858292+1031276350
1558+1028578406+1026956320+1026153830+1026241463+1027106312+1028347928
1550+1029635755+1030788525+1031860107+1033177486+1034936798+1037106898
1541+1040087594+1043841867+1046366651+1046850392+1046599681+1046934196
1533+1048106879+1049252309+1049869447+1050345018+1051059811+1051851451
1524+1052505161+1053286206+1054356703+1055195894+1055481517+1055576683
1516+1055743142+1055848009+1055788267+1055606872+1055407223+1055702038
1507+1057440607+1059941838+1061035186+1060722309+1060050982+1059619132
1499+1059625387+1060042620+1060534723+1060716883+1060616612+1060344137
1490+1059147071+1055032370+1046763715+1035606912+1023697404+1012564600
1482+1003737782+999380477+1000988330+1007778700+1017116640+1026548915
1473+1035176275+1042442600+1047260732+1049686840+1050991644+1052347319
1465+1053950320+1054976203+1054817786+1053593466+1051233036+1046672316
1456+1038846553+1028342120+1015464619+999845772+982688962+967932857+960606983
1446+962576923+970348880+977982079+980643962+976641468+967362376+955356618
1436+944238685+938404627+939427446+946020656+955964054+966153311+974105132
1426+979778028+984276071+988027280+991009125+993873849+997606931+1001777608
1417+1004905488+1006883342+1008595487+1010488389+1012403885+1014028588
1408+1015266183+1016353084+1017517406+1018540608+1019116770+1019435073
1400+1019890730+1020564099+1021354462+1022294945+1023253363+1023800292
1391+1023820653+1023766911+1024200612+1025196305+1026278036+1027022699
1383+1027310812+1027125715+1026520385+1025683492+1024948786+1024761328
1374+1025378785+1026491408+1027616732+1028746078+1030084519+1031529231
1366+1032874948+1034224240+1035725949+1037132493+1038102527+1038708879
1357+1039238447+1039773313+1040184930+1040463468+1040827343+1041428588
1349+1042086703+1042439408+1042310926+1041844673+1041286511+1040745007
1340+1040158123+1039411991+1038474380+1037437839+1036458485+1035716758
1332+1035417093+1035681526+1036377553+1037172767+1037808926+1038219521
1323+1038406916+1038351004+1038042339+1037516792+1036814765+1035888451
1315+1034626410+1033087873+1031652161+1030778313+1030663170+1031222034
1306+1032275873+1033667545+1035249995+1036842721+1038246265+1039313635
1298+1039977111+1040228970+1040159208+1039990259+1039962622+1040173632
1289+1040589845+1041167666+1041876140+1042621505+1043249813+1043646750
1281+1043814167+1043828591+1043741021+1043544883+1043267812+1043045441
1272+1043022399+1043197028+1043428399+1043587902+1043687790+1043908502
1264+1044442857+1045189818+1045686580+1045544566+1044894302+1044212444
1255+1043772424+1043431335+1042929915+1042292097+1041826419+1041754550
1247+1041997729+1042368050+1042732244+1042850578+1042330903+1041028907
1238+1039370632+1038057211+1037537408+1037875560+1038946952+1040526146
1230+1042280672+1043887822+1045176415+1046130684+1046832265+1047428659
1221+1048043244+1048669510+1049213822+1049656969+1050090606+1050572943
1213+1051024068+1051319585+1051446280+1051502065+1051537424+1051466705
1204+1051179613+1050701489+1050173836+1049698201+1049262585+1048806737
1196+1048270339+1047551398+1046446625+1044673973+1042038897+1038655648
1187+1034962457+1031473830+1028520962+1026113874+1023940519+1021752995
1179+1020029233+1019966045+1022378685+1026728268+1031518189+1035488068
1170+1038205862+1039800822+1040520146+1040485935+1039657404+1038048977
1162+1036067548+1034516884+1034127032+1035069238+1036910313+1038934633
1153+1040483701+1041126817+1040674798+1039077860+1036308238+1032402249
1145+1027753768+1023375208+1020623458+1020390682+1022505636+1025953989
1136+1029612522+1032816611+1035473324+1037827371+1040094615+1042206569
1128+1043876078+1044916322+1045467144+1045866826+1046340929+1046879369
1119+1047366365+1047737260+1048022884+1048265233+1048372972+1048089582
1111+1047144695+1045328322+1042294203+1037351354+1029647180+1018828530
1102+1005744678+992462135+981351925+973981692+970725840+971149903+974539535
1092+980141201+987166006+994823012+1002454551+1009598839+1015912426+1021119006
1082+1025050334+1027709153+1029297411+1030108390+1030261893+1029695496
1074+1028604702+1027722110+1027880463+1029354025+1031750709+1034421463
1065+1036854528+1038816299+1040332433+1041565305+1042649716+1043609794
1057+1044409667+1045014870+1045395403+1045550438+1045537992+1045418828
1048+1045184585+1044788541+1044185445+1043317469+1042135786+1040692542
1040+1039141622+1037513601+1035485706+1032585559+1028724887+1024356540
1031+1020182098+1017101194+1016244004+1018230922+1022198120+1026138256
1023+1028376650+1028445838+1026806072+1024401219+1022507806+1022348815
1014+1024384113+1027981181+1031899999+1035119342+1037252295+1038281497
1006+1037984129+1035767691+1031305711+1025320128+1019483645+1015512808
997+1014426099+1016330553+1020446531+1025389954+1029832149+1033101085
989+1035263973+1036766001+1037969322+1038908145+1039442181+1039562558
980+1039450862+1039282296+1039100646+1038954355+1039112071+1039964665
972+1041574751+1043466312+1045058910+1046195532+1047067657+1047803704
963+1048389439+1048892456+1049477744+1050166560+1050756699+1051058088
955+1051123765+1051179741+1051366050+1051609548+1051785965+1051959573
946+1052333787+1052940139+1053526193+1053838815+1053894791+1053870410
938+1053844241+1053776840+1053687611+1053682824+1053778563+1053832560
929+1053711928+1053398796+1052900311+1052217687+1051457003+1050838716
921+1050555518+1050657002+1051053875+1051627930+1052320192+1053040729
912+1053544767+1053590148+1053241017+1052876376+1052885312+1053417625
904+1054349300+1055403968+1056323261+1056967206+1057329996+1057545921
895+1057797971+1058130699+1058427364+1058621397+1058776814+1058924125
887+1059008568+1059043481+1059147199+1059359039+1059560220+1059612813
878+1059441503+1058983356+1058266649+1057564047+1057225575+1057299167
870+1057488285+1057394460+1056636649+1054959417+1052522139+1049913998
861+1047644393+1045690984+1043629453+1041202898+1038788343+1037179341
853+1036768427+1037178575+1037905750+1038973631+1040731157+1043385763
844+1046871965+1050803484+1054500313+1057392865+1059406781+1060816389
836+1061897801+1062848113+1063820701+1064851690+1065820001+1066583493
827+1067166995+1067753049+1068451502+1069162529+1069739265+1070183242
819+1070567222+1070833889+1070830442+1070564158+1070190199+1069781774
810+1069195528+1068332657+1067251373+1065904443+1064195234+1062493365
802+1061571839+1061661451+1061830017+1060446770+1055959131+1047149355
793+1033104085+1013667394+990683291+969042608+955331534+953579816+961818473
783+973838210+984831808+994571855+1005122881+1017084344+1028959067+1039105050
773+1047063381+1053180062+1057798099+1060961402+1062329650+1061105778
765+1056497188+1048690764+1038997311+1028310079+1015362561+997064087+971068971
755+938499920+904777141+877760610+863797549+863973965+873745159+886936176
745+900522469+915207854+931544239+946368893+953892055+951205727+942909499
735+938770097+945390434+960892223+978419163+993052976+1004068212+1012589875
725+1019593426+1025715023+1031296903+1036294898+1040524295+1043850675
717+1045973288+1046389437+1044831560+1041454693+1036401743+1029647052
708+1021588003+1013188759+1004894127+995372686+981436687+959593801+928996605
698+894031764+863362572+844727413+839869963+844814026+854737701+867559928
688+883226262+901176690+919443315+935857568+949370397+960130710+968765793
679+975767620+981421624+986069659+990106108+993731196+997146870+1001013605
669+1005938711+1010761821+1013947592+1016253642+1018795276+1021630831
660+1024272800+1026575850+1028694314+1030621044+1032354443+1034124926
652+1036042592+1037809883+1039119283+1040146059+1041274703+1042495256
643+1043511246+1044301354+1045066314+1045702664+1045871357+1045618732
635+1045474357+1045852209+1046674039+1047628245+1048490221+1049170292
626+1049660926+1049836641+1049135698+1046903687+1043587263+1041224408
618+1041937668+1045740449+1050395505+1053675356+1055195638+1056033552
609+1057140942+1058460809+1059487139+1060227270+1061199348+1062555851
601+1063651560+1063821339+1063378383+1063241348+1063664709+1064088708
592+1064176725+1064104792+1063920525+1063664262+1063894803+1065049615
584+1066603535+1067667330+1067959017+1067646459+1066736868+1064892985
575+1061435059+1055064922+1043375998+1023832652+997732605+972795668+957628904
565+953127797+953594050+955937630+962743638+976055094+993091208+1009464166
555+1023182771+1034381317+1043424187+1050219216+1054517993+1056714006
547+1058322625+1060902172+1064402989+1067376792+1068859353+1069293182
538+1069518872+1069696118+1069741244+1070083800+1070830442+1070784807
530+1067441385+1059767145+1047816788+1030775313+1006069236+971215261+927331883
520+881829930+846894002+832274295+838559606+858766172+884702122+910211838
510+931591215+947635402+958380907+962928479+958856350+943937871+919138863
500+890328361+866117003+854192814+858337195+876207329+900660270+924721700
490+945427581+963032261+977735901+988828047+996486713+1002092719+1006308457
480+1008703035+1009163096+1008087173+1005783485+1002890614+1000579649+999218805
470+997718372+995027193+991107801+986529209+982087908+978243066+974340141
460+969385548+964299153+961963168+963463473+966656583+969883266+973361873
450+976912156+979154125+979362646+978651491+979174741+982679133+989182731
441+996573198+1002466423+1005877756+1006041471+1001074176+990248569+977260904
431+968774473+968811237+975623244+985193896+995520635+1005924796+1015072151
421+1021662680+1025865462+1029676157+1035064260+1041942328+1048488562
412+1052148691+1051360561+1046788480+1040836343+1036357129+1034633367
404+1034386167+1033940212+1033776178+1035835347+1040413492+1044774308
395+1046871263+1047805299+1049541443+1052776552+1056357472+1058255288
387+1057344931+1054659879+1053602721+1057324060+1064751993+1070830442
378+1073741823+1070377849+1066957772+1070830442
##END=
