##TITLE=SFS-958
##JCAMP-DX=4.24
##DATA TYPE=INFRARED SPECTRUM
##DATE=28/1/2021
##SAMPLING PROCEDURE=Diamant-ATR
##ORIGIN=Angelika Moesle
##XUNITS=1/CM
##YUNITS=TRANSMITTANCE
##RESOLUTION=4
##FIRSTX=3997.453
##LASTX=373.96442
##DELTAX=-1.4165319
##MAXY=0.85832876
##MINY=0.37888458
##XFACTOR=1
##YFACTOR=7.9938095e-010
##NPOINTS=2559
##FIRSTY=0.76004666
##XYDATA=(X++(Y..Y))
3997+950794061+951511586+952114208+952011534+951129970+950050067+949453186
3988+949513060+949908247+950243708+950325280+950202847+950065725+950016960
3978+950003912+950020539+950160421+950397383+950560528+950550984+950366216
3968+950041343+949739882+949708342+950028816+950572309+951140483+951524038
3958+951574070+951299825+950813522+950299854+950099726+950493123+951228095
3948+951631186+951420842+950977637+950718081+950640982+950568730+950551208
3938+950724792+950943486+950920297+950640535+950267568+949739659+948942426
3928+948104034+947547641+947369061+947564865+948121407+948822229+949282957
3918+949321283+949176853+949245079+949663977+950244976+950677891+950805022
3908+950715770+950512137+950163030+949771199+949631542+949611931+949116084
3898+948055045+947144849+947092803+948016571+949417843+950501549+951047577
3888+951443211+951519639+950659399+949325608+948796430+949070153+949159033
3878+949020345+949452142+950499759+951495853+952082444+952334841+952068724
3869+951200432+950306341+949708640+949111909+948484233+948344501+948898955
3859+949912199+951297216+952987645+954026836+952826588+950414235+949212271
3849+949327472+949942248+950563213+950930512+950859453+950487381+950230734
3839+950134622+949696114+948758105+947867220+947474047+947620415+948230344
3829+949202056+950269581+951115132+951646471+951746908+950907696+949182893
3819+948047738+948272920+948938474+949051288+948779728+948633882+948590561
3809+948380888+947895703+947488512+947753883+948584223+949067543+948827822
3799+948914390+949829284+950529957+950135740+949182520+948627917+948754078
3789+949405614+950299258+950932078+950871234+950389107+950197553+950446222
3779+950594902+950325952+950029711+950114937+950533462+950936999+950930885
3769+950465311+949987210+949752185+949558842+949476748+949924502+950849611
3759+951535297+951502414+951162032+951005449+950852966+950048948+948294469
3750+946777251+946789628+947618625+947684763+946704253+946451557+947644499
3740+949090733+949761431+949579571+948990594+948154886+947254308+946924215
3730+947369136+948032304+948206409+947662767+946944124+946895956+947736436
3720+948768245+949145760+948773838+948205589+947874825+947701465+947467783
3710+947489705+948253683+949548254+950690418+951087543+950559335+949609844
3700+949192288+949746519+950944903+952247080+953280307+953836625+953625312
3690+952257743+950136635+948827598+949134352+950416024+951801041+952803473
3680+953319229+953462540+953173905+952052246+950438692+949689999+950048874
3670+950397682+949909813+949330230+949644441+950775197+952035096+952841202
3660+953173606+953334663+953316470+952919419+952528781+952778420+953548437
3650+953980011+953303347+951920790+950808452+950256980+950089212+949977815
3640+949685004+949384886+949476375+949972446+950493943+950944530+951706197
3631+952887357+953698608+953277100+952191008+951376551+951078894+951286777
3621+951802607+952137770+952077597+951983796+951930558+951487800+950627710
3611+950089511+950436305+951318988+951989090+952194513+952151117+952037706
3601+951877469+951654971+951336585+950839545+950176004+949669047+949771870
3591+950505575+951328309+951645502+951565346+951700231+952056869+952204803
3581+952064847+951843095+951536415+951039301+950612424+950697427+951343371
3571+952199881+952886910+953054827+952417756+951229736+950218729+949742343
3561+949627142+949585312+949588966+949842855+950386497+950921788+951138619
3551+951066964+950971895+950994861+951008282+950774153+950265928+949742939
3541+949416948+949305923+949437900+949850311+950306267+950393431+950050961
3531+949661516+949612379+950000034+950639640+951136308+951103649+950561423
3521+949957384+949604997+949417917+949363560+949702973+950460986+951071959
3512+950951838+950182864+949352823+948877555+948730740+948691967+948623816
3502+948626575+948910438+949390701+949586431+949153291+948422793+948080173
3492+948355238+948905591+949392938+949781414+950142674+950528615+951006493
3482+951523591+951837205+951808199+951564526+951214599+950681172+949951419
3472+949220473+948652970+948232879+947951850+947911212+948141017+948508988
3462+948888143+949238294+949494196+949575619+949535280+949507542+949536846
3452+949618195+949794985+950034856+950125599+949873873+949344919+948783456
3442+948366795+948091880+947874825+947736361+947776252+947943051+948024922
3432+947926200+947796907+947874229+948288653+948912377+949321283+949116382
3422+948365304+947573962+947224930+947413277+947838960+948088077+948051765
3412+948061607+948442254+949047560+949483160+949614168+949556009+949336643
3403+948931912+948557976+948556261+948935491+949275128+949171336+948642904
3393+948058401+947810701+948071300+948728652+949496283+950087274+950323715
3383+950152815+949636836+948941009+948304535+947994425+948170619+948660128
3373+948951821+948655580+947979736+947573142+947819201+948389388+948589144
3363+948172930+947689535+947856185+948677502+949475256+949762102+949693802
3353+949581360+949408149+949070526+948746100+948707029+948936684+949181924
3343+949315914+949448488+949683140+949895422+949821753+949359683+948720376
3333+948211778+947949836+947902488+948099112+948583253+949231210+949787976
3323+950068335+950078773+950006000+950016960+949995188+949655849+949021463
3313+948535309+948553726+948912526+949150383+949068662+948906188+948966361
3303+949246272+949519920+949595751+949407031+949064784+948850713+948903727
3293+948994918+948910363+948836769+949029516+949392193+949738540+950142078
3284+950679681+951101859+951100741+950712862+950193676+949635270+949003344
3274+948469395+948381335+948815369+949367736+949526556+949189902+948718511
3264+948452543+948327650+948148324+948063769+948412727+949116382+949617151
3254+949516863+948990519+948463430+948185755+948249432+948683765+949306668
3244+949779476+950015991+950233493+950473065+950484474+950219773+950013829
3234+950133652+950488276+950811807+950853936+950493794+949967748+949801546
3224+950193974+950688032+950810092+950755959+951013502+951570938+952004600
3214+952107646+951930856+951427254+950565748+949681275+949250224+949289966
3204+949324415+949055837+948819843+949166713+950148639+951248899+951920567
3194+952017126+951776361+951546631+951501967+951541187+951464909+951232793
3184+951019616+950966005+950917613+950614960+950168026+950015469+950282257
3174+950559037+950468741+950070124+949588295+949095728+948592574+948196120
3165+948094340+948334435+948738793+949103035+949394355+949610515+949580167
3155+949133234+948408476+947803617+947655012+947984881+948470215+948715380
3145+948639474+948455675+948273367+948007250+947672535+947422076+947339236
3135+947474121+947902414+948446578+948637908+948270385+947722641+947536233
3125+947878404+948467456+948828642+948646856+948035584+947467261+947344903
3115+947631301+947901445+947788183+947395308+947185038+947425804+947899431
3105+948212076+948185532+947877211+947452423+947083632+946763904+946251503
3095+945447709+944718179+944514621+944736448+944757325+944068806+942728825
3085+941217572+940038127+939495752+939668888+940406992+941428736+942546443
3075+943691962+944697600+945289485+945336311+944871855+943936829+942664626
3065+941406069+940510039+940063702+939914724+939770518+939266469+938165837
3055+936577112+934907785+933610081+932963392+933002836+933563032+934406420
3046+935419141+936676729+938154354+939458321+940167047+940371500+940469924
3036+940516526+940210443+939443632+938488175+937719649+937397311+937628532
3026+938352171+939343418+940322735+941161649+941995419+943012763+944108474
3016+944891092+945084137+944808178+944466229+944427307+944772014+945260927
3006+945570291+945574169+945397378+945265103+945348241+945660140+946041234
2996+946325769+946530893+946757566+946951282+946977379+946896627+946902219
2986+947029797+947169082+947247970+947180192+946840033+946311080+945908437
2976+945793162+945811430+945776161+945633596+945295226+944516336+943016193
2966+940723067+937906356+935001809+932320655+930047661+928403685+927562310
2956+927461053+927866678+928559746+929366225+930086434+930435018+930131992
2946+929246923+928421878+928400255+929212773+930042665+929914714+928248742
2936+924727480+919002271+910853225+900791328+890540859+882662405+879196022
2927+880420504+884941886+890858798+896713748+901714872+905630649+908552494
2917+910594714+911834258+912372382+912145858+910776872+907896633+903501637
2907+897868737+891443973+884992067+879464227+875423482+872698186+870545314
2897+867946403+864109365+859369214+855543808+854682077+857190841+861485624
2887+865504523+868367239+870715766+873819099+878435027+884296464+890408435
2877+895728392+899742294+902660113+905113103+907575861+910031759+912150630
2867+913709828+914761173+915404134+915532160+914945867+913710872+912276717
2857+911168778+910600306+910431271+910448122+910569362+910833988+911391649
2847+912497202+914257571+916322980+918050319+919067588+919536146+919837829
2837+920161361+920422407+920386617+919757823+918337090+916341547+914487823
2827+913515366+913607601+914390816+915366704+916096829+916047767+914753046
2817+912474161+910415389+909834837+911068938+913660541+917015675+920518743
2808+923517166+925731776+927376200+928609778+929306723+929495071+929542791
2798+929747990+930101123+930509880+930973218+931489123+931998913+932503857
2788+933106554+933849729+934579631+935074658+935273444+935279409+935164880
2778+934898688+934506931+934161628+934019808+934057313+934168860+934358923
2768+934743074+935370153+936074853+936538265+936579797+936393015+936379221
2758+936745626+937352051+937928278+938334872+938601362+938808127+938998860
2748+939168418+939261175+939249468+939256552+939437816+939705126+939839862
2738+939902943+940177486+940669605+941036159+941055620+940884497+940822236
2728+941008943+941344852+941611640+941678598+941603960+941532230+941553630
2718+941688813+941910118+942115018+942147677+941932636+941546173+941104534
2708+940683548+940418550+940514438+940976210+941471013+941651308+941541178
2698+941432091+941462886+941474294+941268872+940895756+940617112+940627029
2689+940866751+941135701+941303842+941338589+941212800+940937213+940644328
2679+940496767+940511605+940558878+940514438+940321244+939937839+939375033
2669+938838027+938697698+939135535+939857981+940341525+940379627+940249141
2659+940340854+940765046+941313386+941719384+941926298+942113303+942449212
2649+942879518+943227133+943451495+943688010+944031524+944387565+944607378
2639+944701328+944816007+945004876+945142297+945119257+945014495+944982283
2629+945076308+945295972+945688624+946267684+946923470+947520872+947963183
2619+948138184+948011575+947790718+947741506+947821960+947777371+947601848
2609+947569935+947747024+947832175+947639801+947428637+947552562+948013364
2599+948517115+948812089+948831997+948627544+948309978+948055045+947999794
2589+948040431+947877510+947338490+946462965+945337429+944224793+943691738
2580+944065674+944926957+945645153+946165755+946780010+947433260+947736063
2570+947536755+947177657+947161700+947662469+948438451+949126448+949458107
2560+949354165+949077162+949110492+949647274+950405436+951078894+951674731
2550+952329025+953047519+953688840+954057780+954037872+953702112+953293206
2540+953052515+953006808+952953868+952789008+952740914+953061537+953619198
2530+954036082+954071873+953723810+953153772+952637047+952444599+952694909
2520+953246604+953646190+953415341+952680070+952235821+952622880+953426824
2510+953879424+953817611+953627922+953542397+953496988+953524129+953797777
2500+954253360+954548632+954541772+954527754+954780673+955078107+954970885
2490+954419861+953846318+953573938+953534270+953521221+953419740+953172562
2480+952841202+952728462+953100832+953737381+954049206+953729925+953089573
2470+952723466+952986452+953731267+954392496+954407483+953749087+952993908
2461+952717352+952927770+953223564+953383055+953623821+954283484+955313057
2451+956165914+956280444+955594609+954498302+953473874+952930977+953084801
2441+953774663+954606717+955289197+955669545+955694897+955602662+955785417
2431+956212889+956345239+955781614+954658091+953399385+952405528+951936374
2421+952021302+952473231+953056318+953590193+953919614+953953168+953792111
2411+953741184+954049802+954627147+955132091+955368010+955399625+955291732
2401+954996908+954510157+953928785+953389840+953050502+952995400+953120070
2391+953261666+953415789+953644997+953860187+953867196+953592131+953221401
2381+953155562+953736039+954887001+956083522+956805073+957001398+957025408
2371+957156863+957340588+957428051+957427156+957385997+957300622+957250142
2361+957324929+957455490+957519988+957391515+956859131+955952588+955149315
2351+954845096+954969021+955300232+955659032+955763122+955345119+954577488
2342+953915364+953557012+953537178+953993581+954942775+956070175+956961805
2332+957326719+956956511+955774680+954030490+952285257+951215792+951392881
2322+952825469+954636915+955781614+956160471+956408097+956753549+956843473
2312+956613594+956546859+956930190+957417314+957494189+957078422+956548425
2302+956288124+956315936+956353069+956141905+955684607+955274209+955236704
2292+955552331+955864752+955914859+955720323+955306943+954591357+953636646
2282+952855071+952814732+953682726+954842934+955348475+954872163+953960400
2272+953374406+953488264+954272374+955512514+956931532+958183901+958961524
2262+959295568+959529996+959792161+959826088+959555422+959435151+960010781
2252+961271725+962451021+962598284+961570799+960153943+958966445+957933218
2242+957056575+956745124+957048224+957332460+956926537+955791382+954732729
2232+954930919+956748032+959146143+960710784+960923439+960252964+959619025
2223+959791416+960744337+961655205+961761831+961034389+960170347+960214041
2213+961674666+963688104+964665184+964045040+962897209+962736972+964220413
2203+966790915+969107529+969874265+968692807+966305432+963969358+962590082
2193+962413516+963243408+964650272+966164656+967621255+969012610+969727226
2183+968720917+966228185+964390791+964944872+967086261+968814569+969625223
2173+970568824+972034967+973070877+972910939+972030269+971438011+971714493
2163+973046271+975421790+978101528+979655357+979494598+978537650+977610527
2153+976582296+975383464+974670115+974826251+974998791+974135495+972702385
2143+972080599+972406740+972489953+971906270+971550527+971999698+972833616
2133+973663359+974475430+974950772+974463202+972808265+970528709+968587374
2123+967720424+967912052+968553895+969128183+969527098+969795825+969923179
2113+969874191+969535896+968708316+967420082+966197390+965675818+965895333
2104+966318481+966582809+966747743+966827302+966704571+966501087+966381114
2094+966104484+965347515+964269401+963392684+963139019+963530626+964143016
2084+964525900+964820798+965582688+966913945+968249154+969027970+969112972
2074+968636288+967884091+967321957+967343655+967804233+967957089+967248661
2064+966188666+965910768+966805306+968166836+969141903+969407274+968938941
2054+967782461+966318556+965432517+966032455+968165344+970684920+972191252
2044+972149944+970949322+969321750+967946501+967238371+967309579+968088097
2034+969462899+971585274+974935860+979440837+983577024+985273493+984125886
2024+981890845+980253803+979075327+977607321+976248028+975704013+975473910
2014+974869349+974485198+975196534+976900012+979093148+981263542+982372078
2004+981535848+979293947+977140330+976290679+977228315+979490944+981576858
1994+981913587+980299884+978215013+977425386+978280778+979720451+980656670
1985+980796477+980331499+979566999+979025519+979271951+980273712+981264363
1975+981518922+980972297+980062101+979373358+979437855+980301822+981027101
1965+980285717+977886636+975104299+973317310+972730197+972689709+972770610
1955+973018012+973422146+973735835+973873032+974087402+974489672+974678616
1945+974201111+973311046+972900873+973395452+974063840+973899427+972893118
1935+972102074+972321589+973102343+973512592+973441905+973466437+973703549
1925+973593568+972822283+971765047+970699758+969196110+966708970+963288444
1915+959356859+955234318+951342178+948379844+946955979+947284879+949285641
1905+952577322+956301098+959349403+961165323+962177299+963125373+964171574
1895+965042252+965795418+966797179+967934645+968498792+968151923+967533941
1885+967427762+967924504+968658209+969432999+970330445+971330863+972177383
1875+972680687+972953067+973279581+973813381+974366866+974521659+974181575
1866+973761335+973618173+973796082+974214681+974690024+974886200+974638277
1856+974255542+974167483+974428306+974840717+975324112+975894224+976471793
1846+976854677+976819036+976391488+975939112+975731751+975720193+975696482
1836+975543851+975385701+975439685+975717956+975998091+976213058+976576033
1826+977029677+977087688+976477535+975513876+974654904+974210133+974373800
1816+975077679+975902948+976386045+976352044+975969161+975552351+975277584
1806+975093934+974833857+974352624+973619963+972721473+971797109+970981832
1796+970301962+969537760+968344893+966796433+965595364+965177883+965348037
1786+965821888+966437559+967042567+967509260+967871042+968340196+969066668
1776+969888358+970399043+970259535+969628877+969203045+969339645+969685993
1766+969800000+969609341+969258073+968833061+968399623+968026209+967698279
1756+967502027+967745105+968591624+969820132+971015683+971869361+972306825
1747+972348804+972068968+971658645+971321767+971132450+971093006+971279116
1737+971733059+972177457+971993808+971075782+970087815+969357242+968928502
1727+968887343+969127363+969342478+969432178+969578397+969809321+969732818
1717+968955792+967913693+967291609+967054796+966826408+966428984+965880644
1707+965077073+963876004+962532072+961389610+960380318+959419791+958849604
1697+958713898+958538749+958103969+957502316+956586378+955134850+953385739
1687+951654971+949399351+945768705+942035981+940341600+940659091+942228802
1677+944632804+947552338+950401857+952727717+954714387+956730733+958786672
1667+960653966+962313079+963899268+965473602+966923191+968091377+968993521
1657+969746016+970341331+970454295+969733639+969017083+969087770+969527098
1647+969879336+970124724+970600067+971408484+972381463+973350938+974241748
1638+975101689+976049317+977145102+978361904+979677577+980999364+982126913
1628+982932124+983510439+983984812+984334217+984515182+984547766+984394315
1618+983954390+983374211+983136056+983412612+983958118+984498704+984923045
1608+985345969+985969096+986817629+987668249+988138819+987450002+983701843
1598+973956617+956779348+935917076+919813000+914928196+920570565+931140613
1588+941478693+949486292+955272643+959455656+962344321+963917312+963984270
1578+962261108+959259479+957641153+959461770+963737391+968964516+973940288
1568+977600387+979974861+981829554+983512229+984922299+986079599+987453655
1558+989442786+991367270+992841316+994134247+995458719+996837845+998115640
1548+999161318+1000069204+1000973361+1001847618+1002653948+1003531560
1540+1004638977+1005847726+1006905708+1007692054+1008245166+1008817441
1531+1009576871+1010248390+1010286641+1009226944+1007254889+1005224599
1523+1003944344+1004073189+1005916623+1009183250+1013521802+1018372754
1514+1022968178+1027135234+1031133403+1035057010+1039345008+1045228366
1506+1052131157+1057689643+1062262175+1066981374+1071618851+1073741823
1497+1067556557+1046759528+1010199029+957282428+883488643+793197981+716548712
1487+684071609+690314513+714289736+742884020+770296696+793742593+812814893
1477+828824349+842991340+856123763+869144564+881692036+891941535+899500485
1468+905197136+909314906+911511696+911885259+911195248+909858548+907399220
1458+903032632+898270932+896326018+897763230+901852963+907996772+915341352
1448+922699502+929085941+934318882+938848391+943006425+946583087+948567073
1438+946269846+936396818+921121813+907516658+899723728+897837569+898135898
1428+893346088+876435830+845954494+811678173+791250233+795494313+818029940
1418+836723681+838706250+835189164+840374832+856468395+872368690+870774671
1408+841112862+789030105+737505904+712930295+721532910+750516638+785944891
1398+818771697+845046683+865419296+881259045+892812586+900929942+907137353
1388+912330552+916557781+919792644+922373511+924641136+926671202+928436642
1378+930039534+931657934+933379158+935201043+937072811+938877098+940454787
1368+941671067+942522881+943170017+943735805+944165888+944444233+944806612
1358+945488793+946492493+947714514+949099904+950565002+951837801+952440274
1349+951889921+950153561+948050795+946922724+947573440+949644665+952086918
1339+954089694+955536598+956656244+957570989+958246236+958622185+958718745
1329+958653875+958603470+958773102+959347166+960407012+961926020+963835367
1319+965975787+967858516+968460019+966612410+962197282+957028838+953719635
1309+953317514+954579427+955626149+955848274+955973690+956732746+957887362
1299+958268680+956622839+953153027+950541067+952420888+959983640+970375108
1289+978698483+981547107+979218415+975030928+971183750+963300449+940147064
1279+893355035+829804710+771368248+739206026+738757228+759918500+788442992
1269+815329697+837984475+856769333+872297780+884907512+894992897+903020106
1259+909285901+913756728+915858674+914452182+908682085+899336296+889243454
1249+882032791+880184958+883861983+891224308+899734167+907437620+913541314
1239+918203845+921933884+925128259+927969874+930526433+932828432+934804141
1230+936122051+936212870+934579780+931234936+927128052+924176456+924292701
1220+927913579+933628350+939380104+943853317+946805137+948558647+949434097
1210+949611409+949374298+949224201+949631989+950801667+952675895+955037768
1200+957629894+960281596+962931807+965508647+967807962+969584288+970781554
1190+971466420+971460231+970286154+967372883+961835649+952114581+936340373
1180+913407249+884319579+852969652+824629779+802385696+785478720+772097181
1170+763211597+762872482+774986516+799614618+831636661+863243235+888566642
1160+906211946+917923039+925962401+931905858+936726389+941031685+945168767
1150+949299585+953420411+957392857+961075399+964444924+967558770+970422829
1140+972963208+975154778+977128176+979069437+981008983+982809020+984445689
1130+986233946+988590525+991488287+994206872+995559156+994103079+988288021
1120+977257767+962020715+945329675+930099781+918489199+912530084+914323262
1111+924384265+940045285+956221613+967071871+966069364+947319178+912172179
1101+874705137+854208450+858540291+877823606+895992495+904698679+903696844
1091+891354049+860190232+804689559+733100393+668052013+632168476+632760957
1081+660428267+699575747+738420798+771783492+798881957+820509176+837603456
1071+850883738+860825663+867962285+873337419+878327357+883778099+889611873
1061+895408290+900974680+906171234+910667190+914293735+917390282+920464088
1051+923700294+927019190+930365078+933681439+936804233+939647787+942403579
1041+945384255+948737749+952402396+956211845+959969249+963557245+966970539
1031+970124873+972757263+974753030+976529729+978847014+982137949+985935095
1021+987756309+980569804+952704304+896764079+822981553+759260775+731353520
1011+742899678+776613343+811553726+835947028+847241609+847482524+841719883
1001+837534261+841281226+853398392+868872631+882566144+892773142+900216816
992+905929797+910588227+914605932+918223604+921608116+924852225+927913579
982+930629107+932827910+934550104+936076120+937512064+938539326+938773604
972+938064431+936417696+934122780+932052674+931369896+932696977+935661323
962+939292044+942758203+945693246+948017615+949728176+950747608+950691685
952+948881656+945016955+940134015+936634303+936658461+940199706+945289858
942+950006521+953700845+956537166+958776383+960609452+962161789+963503932
932+964668092+965626755+966385141+967081862+967859187+968743286+969640658
922+970242535+969993120+968187564+964041684+956975227+946813638+933245913
912+916218666+898722787+887766351+889227050+901815010+918437005+932897553
902+943419880+950953925+956723948+961511446+965715486+969354931+972016326
892+972488536+968016665+954297949+927961672+891232138+854478519+831884137
882+831958849+851579043+879434327+904703526+922596977+933791942+940925059
873+945962570+949684556+952366755+954317038+955893161+957374067+958830068
863+959880892+959218246+953965918+939584930+910928833+864546829+802873118
853+738983007+694886896+688659949+720361442+772485507+824443072+864978328
843+892789471+910656154+921324700+926700804+927818510+924388366+915238305
833+900686566+884664957+873279483+870519664+875506322+883302085+887066498
823+879766060+856650703+819219377+777689145+747722147+741608462+760526491
813+794929122+832256731+864253869+888486709+905726239+917385958+924561204
803+928111620+929057532+928678377+928216829+928614401+930394903+933612244
793+937972419+943027452+948282091+953335856+957976987+962016092+965140378
783+967109525+967970510+967889236+966777867+964178136+959512026+952247528
773+941661150+926626315+905731384+877407915+840211389+793697482+739376851
764+680922867+623380570+571566876+528804855+497212299+478570677+473972495
754+482641285+501655724+527012274+555109704+583795924+612409818+640763336
744+668155358+693483163+715981135+735532357+752402275+766963483+779789599
734+791732808+803438011+814828034+825357146+834475069+841498206+845516209
724+845960906+843177749+838534456+834388576+833696403+838781932+849923509
714+864977433+880400074+892597470+898302547+894925492+882467347+865450017
704+851554809+846852909+852110084+863845559+878032832+892268645+905544826
694+917438152+927818212+936928157+945346974+953416087+960714288+966543663
684+970460185+971205373+964426507+941604109+893740528+819837508+732493670
674+654037578+603988131+588459760+605892073+654235694+715341156+762054744
664+792802869+816840279+837247490+853163293+863475724+865003530+852489314
654+825367958+793539184+772810306+772426602+788254719+808917981+826536219
645+840259781+852254662+863700831+874254326+883263760+890622730+896692796
635+901872275+906380161+910304885+913653756+915940768+915757715+912010078
625+906360551+903016601+904824915+910540059+916715259+921273102+924517062
615+927514291+930612554+933436125+935539188+936909740+938054439+939557863
605+941551169+943723502+945747454+947555917+949220026+950653956+951648112
595+952372794+953507203+955400222+957362286+958389920+958388801+958132900
585+958238854+958651712+959204899+960139702+961586979+963013081+963843495
575+964329947+965190111+966565361+967914886+968894352+969822817+971056246
565+972396525+973489551+974236678+974556033+974387072+973946626+973307616
555+972087236+970308523+968989122+969057646+970164168+971312223+972356410
545+973985772+976298135+978464578+980010950+981428104+983292788+985534689
535+987686443+989434435+990979689+992842136+994982109+996506336+996787515
526+996616019+997541203+999967723+1002581174+1003180590+999061180+986745302
516+961834903+918271027+848915858+753259532+648719560+568971171+542035031
506+568123421+624751085+689337582+748730470+796207812+830243665+853742204
496+870892481+884790597+896839611+907080088+915127727+920970747+924535032
486+924325359+917302074+902230031+883805016+871117887+870844239+881949578
476+897153300+909985232+919450472+927958764+936750771+944964985+951356792
466+955203821+957012285+958667967+962001925+967465864+974117674+979926320
456+983285854+985098791+987334354+990461696+993720420+996821963+999323569
446+996719438+977522319+930397737+861626102+798430326+764468290+762885531
436+784151489+816646115+849974734+876878514+895925165+910594490+923985126
426+935398114+942291659+944339024+944556824+946362454+950795180+956076289
416+960341620+963489989+965692297+966702334+966174051+964538203+963998139
407+966912901+972058976+975002370+973372561+969177246+965691998+964594200
397+965889443+968504086+971138117+973933801+978443476+985664206+994771616
387+1003097004+1006471375+1002366505+994453603+988759039+986933426+987319217
377+989681165+996107421+1005046541
##END=
