##TITLE=JMB-222
##JCAMP-DX=4.24
##DATA TYPE=INFRARED SPECTRUM
##DATE=30/4/2019
##SAMPLING PROCEDURE=Diamant-ATR
##ORIGIN=Angelika Moesle
##XUNITS=1/CM
##YUNITS=TRANSMITTANCE
##RESOLUTION=4
##FIRSTX=3997.453
##LASTX=373.96442
##DELTAX=-1.4165319
##MAXY=0.95503378
##MINY=0.6987353
##XFACTOR=1
##YFACTOR=8.8944452e-010
##NPOINTS=2559
##FIRSTY=0.91925365
##XYDATA=(X++(Y..Y))
3997+1033514320+1033798524+1033541528+1033207265+1033240772+1033464060
3989+1033379355+1032809675+1032149996+1032034733+1032671427+1033539249
3980+1033994471+1034031127+1034075088+1034193299+1033972758+1033223616
3972+1032433596+1032284156+1032871394+1033642852+1034051968+1034028983
3963+1033825664+1033653239+1033506681+1033271598+1032998787+1032912205
3955+1033019293+1033002204+1032745744+1032613929+1032894648+1033301419
3946+1033454745+1033519346+1033922901+1034650397+1035143146+1035026610
3938+1034612535+1034498679+1034891846+1035401550+1035433984+1034827045
3929+1034108326+1033929401+1034377519+1034929039+1035024734+1034661857
3921+1034256627+1034151215+1034411361+1034787239+1034905584+1034670434
3912+1034281288+1033917808+1033627037+1033405424+1033242246+1033166052
3904+1033303831+1033689091+1034085810+1034363044+1034706890+1035109171
3895+1035133496+1034423557+1033255180+1032545374+1032824083+1033518341
3887+1033837727+1033600834+1033249551+1033188367+1033373458+1033631192
3878+1033903065+1034197789+1034551620+1035060720+1035808388+1036698258
3870+1037359277+1037299368+1036353407+1034842391+1033515594+1033173356
3861+1033765419+1034557651+1035152997+1035652582+1036265687+1036998880
3853+1037408867+1037054032+1036283043+1035644875+1035382853+1035441289
3844+1035589120+1035657407+1035628658+1035456702+1035074592+1034722571
3836+1034763315+1035069700+1035220346+1035036662+1034680218+1034439640
3827+1034573131+1035126929+1035710682+1035722745+1034871943+1033633269
3819+1032835609+1032732007+1033262015+1034245637+1035231738+1035869102
3810+1036139099+1036220788+1036308575+1036409900+1036449705+1036546875
3802+1036758436+1036656844+1035905088+1034994176+1034628886+1034920528
3793+1035377023+1035626782+1035728039+1035897382+1036225479+1036603300
3785+1036810304+1036656576+1036089844+1035273286+1034636660+1034589214
3776+1035030095+1035530349+1035798671+1035742380+1035428288+1035151188
3768+1035251641+1035696274+1036062167+1035939868+1035303911+1034480385
3759+1033877399+1033662554+1033588705+1033322126+1032853033+1032657086
3751+1033453673+1035062663+1036286796+1036599748+1036275404+1035840688
3742+1035660087+1035536716+1035113661+1034276061+1033282119+1032782535
3734+1033310332+1034517309+1035564325+1036035027+1035987850+1035578465
3725+1035049127+1034887357+1035364894+1035935914+1035841023+1035264977
3717+1035133094+1035874932+1037039490+1037875950+1037925741+1037310693
3708+1036507605+1035866890+1035478347+1035290442+1035283003+1035444572
3700+1035574779+1035471311+1035288230+1035360873+1035755648+1036190699
3691+1036380213+1036368418+1036551499+1037128685+1037676184+1037703525
3683+1037241267+1036817475+1036882142+1037238519+1037271490+1036739404
3674+1036185941+1036109814+1036409698+1036895947+1037345272+1037424884
3666+1036971940+1036142047+1035435258+1035466151+1036319767+1037341586
3657+1037807329+1037670487+1037494644+1037556431+1037531502+1036930392
3649+1035841894+1035216660+1035346331+1035519828+1035264173+1034805533
3640+1034759361+1035478012+1036671386+1037702520+1038131137+1037971511
3632+1037475076+1036755688+1035967679+1035685150+1036074967+1036477382
3623+1036403868+1035933770+1035549113+1035743720+1036506600+1037297826
3615+1037704128+1037709623+1037492500+1037204611+1036959409+1036931129
3606+1037227931+1037706273+1038042009+1037910261+1037266866+1036554581
3598+1036259790+1036334308+1036392878+1036246856+1035963524+1035639581
3589+1035411468+1035454356+1035641257+1035549113+1035145559+1034870804
3581+1035086721+1035634890+1035971632+1035828827+1035522308+1035481698
3572+1035702373+1035873793+1035894366+1036038579+1036497687+1036917727
3564+1036982730+1036945403+1037097724+1037313507+1037310626+1037080502
3555+1036800051+1036557999+1036355485+1036182188+1035987648+1035726766
3547+1035518555+1035671077+1036341010+1037181625+1037597376+1037347215
3538+1036793082+1036544395+1036855069+1037353045+1037410945+1036811577
3530+1036045079+1035788552+1036042398+1036136485+1035740771+1035339563
3521+1035509106+1036184467+1036875910+1037213121+1037120442+1036742487
3513+1036324390+1035988989+1035640854+1035245141+1035000743+1034969917
3504+1034878846+1034603622+1034520391+1034966700+1035721740+1036327741
3496+1036557865+1036452721+1036146403+1035733735+1035271745+1034889635
3488+1034754469+1034796285+1034728736+1034497071+1034425434+1034740932
3479+1035243733+1035610497+1035739498+1035692924+1035548376+1035408586
3471+1035384729+1035449866+1035468094+1035482971+1035717920+1036122144
3462+1036274868+1035992339+1035610363+1035402220+1035213577+1034918853
3454+1034759763+1034920327+1035155812+1035161843+1035048054+1035124048
3445+1035363218+1035470373+1035382250+1035269467+1035123579+1034781207
3437+1034395747+1034435888+1035027816+1035652783+1035774412+1035508503
3428+1035331186+1035362615+1035353166+1035211634+1035138254+1035256131
3420+1035440686+1035556954+1035651778+1035841492+1036146805+1036481470
3411+1036726672+1036783097+1036598743+1036181987+1035592203+1034925353
3403+1034283499+1033732181+1033373726+1033445230+1034080717+1034912956
3394+1035303576+1035116877+1034914564+1035239780+1036013181+1036728146
3386+1036985276+1036763998+1036351397+1036091452+1036135748+1036362655
3377+1036528781+1036500032+1036349923+1036263810+1036308441+1036252753
3369+1035774948+1034960133+1034364317+1034400907+1034915368+1035498853
3360+1035894299+1035995288+1035782186+1035374745+1035015821+1034935941
3352+1035209825+1035659350+1035987648+1036078586+1036045481+1035985102
3343+1035876674+1035700697+1035511251+1035413612+1035506694+1035818976
3335+1036321375+1037012617+1037844454+1038549300+1038720787+1038176639
3326+1037179414+1036241696+1035740369+1035747272+1036142784+1036748987
3318+1037338235+1037653734+1037584509+1037344132+1037308347+1037552879
3309+1037720546+1037546044+1037284826+1037324498+1037594159+1037670822
3301+1037338704+1036808160+1036447628+1036404203+1036476444+1036398440
3292+1036225010+1036251078+1036520069+1036685391+1036481001+1036118593
3284+1036067595+1036517724+1037154217+1037517697+1037545508+1037607227
3275+1037922458+1038153184+1037805184+1036904458+1036028460+1035725961
3267+1036067394+1036714944+1037281073+1037554487+1037485464+1037165810
3258+1036855672+1036809232+1036982327+1037079229+1036970399+1036897489
3250+1037140613+1037620093+1038002538+1038132075+1038130199+1038044221
3241+1037695349+1037037345+1036421694+1036297920+1036748585+1037417512
3233+1037864558+1037947454+1037841036+1037720546+1037596304+1037511130
3224+1037662714+1038170072+1038872640+1039487822+1039902300+1040204262
3216+1040431437+1040393842+1039893052+1039091103+1038469286+1038373993
3207+1038727221+1039183649+1039447949+1039425031+1039185324+1038859907
3199+1038545682+1038277762+1038097965+1038111435+1038365818+1038671935
3190+1038721793+1038449182+1038127853+1038052798+1038254040+1038560290
3182+1038814204+1038940658+1038874650+1038578786+1038193459+1038015472
3173+1038168598+1038400196+1038388468+1038144205+1037916091+1037822273
3165+1037816442+1037938742+1038343502+1039023889+1039688058+1040025403
3156+1039995247+1039737514+1039332619+1038842283+1038462183+1038373256
3148+1038497164+1038576508+1038446770+1038110765+1037681679+1037327982
3139+1037130829+1036942455+1036538766+1035939801+1035456635+1035389085
3131+1035741106+1036239418+1036567046+1036586748+1036411173+1036259656
3122+1036223133+1036157460+1035822729+1035154941+1034426975+1034082593
3114+1034314392+1034833143+1035157688+1035087659+1034823694+1034744417
3105+1035132692+1035954410+1036863446+1037554286+1038025390+1038362601
3097+1038508623+1038437656+1038317367+1038290696+1038280242+1038109023
3088+1037697896+1037127545+1036579510+1036206246+1036013382+1035832379
3080+1035425407+1034690404+1033763141+1032845326+1032026758+1031389662
3071+1031117588+1031285457+1031635199+1031762927+1031545535+1031263275
3063+1031203365+1031184803+1030658949+1029342003+1027581496+1025978604
3054+1024779065+1023779025+1022751308+1021824447+1021458219+1022089552
3046+1023723270+1025823669+1027720950+1029145855+1030226914+1031034425
3037+1031436840+1031395694+1031100634+1030798538+1030654057+1030714972
3029+1030922244+1031207252+1031570330+1032042171+1032640265+1033293578
3020+1033764079+1033818762+1033547291+1033300146+1033342632+1033736402
3012+1034380267+1034976618+1035170086+1034845473+1034160329+1033381567
3003+1032883457+1033067341+1033980465+1035133899+1035916748+1036142181
2995+1036081668+1036030738+1035997633+1035851075+1035584228+1035276838
2986+1034966030+1034747031+1034816188+1035190659+1035566671+1035653587
2978+1035470976+1035180004+1034861690+1034620710+1034640010+1034941436
2969+1035301432+1035531221+1035639380+1035679856+1035692053+1035799341
2961+1036074364+1036285992+1036071281+1035406040+1034701529+1034371488
2952+1034420006+1034507927+1034372828+1034123270+1034095460+1034468188
2944+1035109975+1035775484+1036319432+1036706098+1036919000+1036900638
2935+1036600351+1036150424+1035935579+1036228561+1036769761+1036994256
2927+1036691356+1036114907+1035476270+1034755608+1034089228+1033879409
2918+1034315197+1035078881+1035702440+1035997097+1036031542+1035908640
2910+1035716781+1035580274+1035637169+1035962049+1036476444+1036930191
2901+1037065960+1036862910+1036557932+1036425313+1036574551+1036918397
2893+1037263850+1037442106+1037426961+1037352844+1037384273+1037549461
2884+1037736429+1037842578+1037861073+1037840232+1037862280+1038009173
2876+1038234204+1038343435+1038220600+1037992419+1037885533+1037994497
2867+1038227033+1038400129+1038380360+1038177912+1037921452+1037753651
2859+1037759347+1037916828+1038080006+1038088383+1037942092+1037811550
2850+1037854037+1038048912+1038219394+1038234070+1038199558+1038381365
2842+1038862320+1039371621+1039551820+1039349440+1039058066+1038985088
2833+1039140157+1039305680+1039363043+1039413973+1039539556+1039640411
2825+1039602683+1039469125+1039357883+1039334362+1039404591+1039546325
2816+1039722168+1039877505+1039938353+1039859612+1039705682+1039631767
2808+1039773500+1040178260+1040768112+1041313265+1041545802+1041390532
2799+1041049434+1040808990+1040765029+1040789690+1040787479+1040856905
2791+1041075033+1041263944+1041197399+1040951594+1040831238+1040987648
2782+1041271248+1041456473+1041492660+1041477716+1041447694+1041292022
2774+1040918222+1040463134+1040279786+1040613311+1041249402+1041632718
2765+1041472623+1041061161+1040823130+1040794917+1040790494+1040827553
2757+1041059553+1041445751+1041784570+1041987151+1042097321+1042122585
2748+1042035468+1041864651+1041653224+1041393413+1041106261+1040912056
2740+1040944290+1041233653+1041670647+1042052690+1042220157+1042186382
2731+1042101208+1042090017+1042184640+1042349359+1042518232+1042619020
2723+1042578812+1042325301+1041871017+1041418342+1041255232+1041484886
2714+1041898895+1042174186+1042211914+1042198310+1042252122+1042191609
2706+1041886900+1041636002+1041805411+1042258220+1042504494+1042341987
2697+1042055706+1042010338+1042226322+1042427764+1042440899+1042356663
2689+1042281876+1042224848+1042255808+1042418918+1042490288+1042221497
2680+1041774786+1041535348+1041608526+1041802597+1041969661+1042096651
2672+1042164469+1042126204+1042032050+1042038819+1042204878+1042356395
2663+1042290052+1042030442+1041774384+1041670647+1041737192+1041891523
2655+1042027292+1042148185+1042382262+1042763367+1043088047+1043126311
2646+1042939746+1042849747+1043059767+1043414334+1043611354+1043546686
2638+1043331104+1043078799+1042835272+1042671894+1042722891+1043085500
2629+1043672135+1044209314+1044482862+1044540025+1044506250+1044308761
2621+1043828276+1043208268+1042738773+1042504829+1042376432+1042266463
2612+1042236508+1042421599+1042908652+1043586291+1044141563+1044347964
2604+1044307689+1044278538+1044339387+1044381538+1044390585+1044525617
2595+1044844198+1045191193+1045475263+1045770657+1046041860+1046133736
2587+1046078919+1046008957+1045819242+1045338756+1044690536+1044159724
2578+1043905140+1043959689+1044262187+1044615482+1044821011+1044870735
2570+1044905783+1044995916+1045046913+1044996921+1045021649+1045311616
2561+1045736347+1045996090+1045982017+1045804030+1045685014+1045904550
2553+1046547141+1047300371+1047738504+1047745406+1047548856+1047434532
2544+1047413020+1047185644+1046581117+1045879956+1045489939+1045522172
2536+1045853151+1046316548+1046732634+1046997001+1047159040+1047283550
2527+1047337764+1047296484+1047220893+1047144230+1046961819+1046555920
2519+1046046350+1045787210+1046032479+1046692627+1047436140+1047900542
2510+1047849478+1047298025+1046539904+1046007617+1046014519+1046508742
2502+1047095377+1047413556+1047461873+1047456579+1047491091+1047471389
2493+1047296082+1046975758+1046654965+1046602092+1047017776+1047691193
2485+1048058225+1047827833+1047322887+1046996867+1046953443+1047128348
2476+1047493034+1047888748+1048043817+1047893841+1047608029+1047319135
2468+1047044045+1046810168+1046702880+1046760444+1046866661+1046868805
2459+1046832886+1046989630+1047363296+1047671960+1047644015+1047259292
2451+1046729886+1046394082+1046486360+1046870212+1047151132+1047154014
2442+1047130425+1047384473+1047872531+1048307916+1048544741+1048660608
2434+1048695924+1048536834+1048115253+1047538469+1046932468+1046355952
2425+1046015792+1046272587+1047120373+1047920244+1048069014+1047741654
2417+1047579079+1047801966+1048052327+1048025589+1047899269+1048033095
2408+1048459635+1048865936+1048980864+1048776541+1048390343+1048096958
2400+1048186890+1048597548+1048890530+1048821373+1048651427+1048695924
2391+1048863122+1048834373+1048496492+1048054338+1047808332+1047893707
2383+1048195468+1048458227+1048522895+1048516797+1048718708+1049133186
2374+1049396682+1049319416+1049223050+1049444597+1049828583+1049969713
2366+1049685644+1049164347+1048792289+1048737539+1048788067+1048777747
2357+1048815408+1048916464+1048918676+1048788871+1048586089+1048293844
2349+1047953014+1047756933+1047886939+1048205654+1048189906+1047454569
2340+1046321038+1045593005+1045717248+1046380479+1046996398+1047285628
2332+1047377034+1047585647+1047980891+1048170539+1047854370+1047424211
2323+1047495380+1047972917+1048228036+1048104129+1047977139+1048018821
2315+1048062849+1048002604+1047933111+1047998784+1048235542+1048493074
2306+1048560021+1048402874+1048201968+1048148023+1048287946+1048519343
2298+1048654308+1048511168+1048029409+1047378307+1046891724+1046725463
2289+1046681302+1046595391+1046676745+1047110522+1047634499+1047911935
2281+1048041605+1048339547+1048875988+1049458870+1049868188+1049972863
2272+1049763647+1049366459+1049012763+1049004051+1049610455+1050804163
2264+1052039353+1052568691+1052197772+1051460760+1050913395+1050652512
2255+1050597963+1050652981+1050539527+1050048856+1049429787+1049117437
2247+1049264733+1049805061+1050718721+1051977634+1053265094+1053958481
2238+1053646065+1052572109+1051296912+1050166330+1049399497+1049232231
2230+1049682695+1050524382+1051403396+1051789594+1051364998+1050603324
2221+1050264036+1050419708+1050631202+1050692586+1050630331+1050403557
2213+1050067888+1050013138+1050592468+1051276875+1050729845+1048531473
2204+1046243906+1045654992+1046783028+1048715693+1051234992+1054221441
2196+1056518323+1056865184+1055557553+1054119179+1053275146+1052164199
2187+1050158758+1048516261+1048955466+1051277143+1053805623+1055544888
2179+1056574816+1056998943+1056710451+1055754371+1054287717+1052487471
2170+1050701767+1049350041+1048696326+1048826332+1049509331+1050114730
2162+1050452477+1051689275+1055097373+1059646171+1062562189+1062283682
2153+1059707153+1057188323+1056467996+1057194153+1057921851+1058289888
2145+1059026364+1060186365+1060833915+1060323408+1058915189+1057245820
2136+1055774341+1054594035+1053638492+1053090390+1053346917+1054397954
2128+1055458038+1055563919+1054600670+1053458092+1053060435+1053480877
2119+1054090631+1054318343+1054091971+1053700614+1053372985+1053028872
2111+1052503420+1051983196+1051984134+1052708682+1053617249+1053936165
2102+1053501718+1052838219+1052534313+1052759277+1053186420+1053310797
2094+1053059698+1052885396+1053091931+1053538843+1054070460+1054579493
2085+1054721294+1054265737+1053568128+1053154723+1053120479+1053184477
2077+1053101447+1052988932+1053237082+1053813263+1054008272+1053438256
2068+1052700507+1052475811+1052671356+1052907444+1053161826+1053496223
2060+1053646936+1053311199+1052681475+1052338165+1052499802+1052734683
2051+1052632287+1052369796+1052346810+1052484389+1052256945+1051554847
2043+1051141039+1051687935+1052610508+1052725033+1051905393+1051120734
2034+1051179773+1052228532+1053897365+1055343647+1055904481+1055992001
2026+1056497884+1057364702+1057760550+1057502146+1057286028+1057665726
2017+1058650487+1060012734+1061305421+1061956590+1061833687+1061298787
2009+1060623828+1059867717+1059221641+1058921757+1058984481+1059248380
2000+1059385489+1058886575+1057449943+1055362410+1053287141+1051732231
1992+1050858712+1050750016+1051575822+1053091797+1054309229+1054387634
1983+1053705103+1053432225+1054278067+1055937318+1057302714+1057224711
1975+1055758928+1054385356+1054454112+1055693389+1056640288+1056349383
1966+1055284407+1054388103+1053895421+1053474176+1052889283+1052261971
1958+1052063545+1052690924+1053750807+1054370077+1054542636+1055197155
1949+1056516849+1057398141+1057119232+1056419479+1056280627+1056525896
1941+1056367543+1055698683+1055021178+1054684503+1054683699+1054897807
1932+1055248287+1055664841+1056078783+1056524153+1057104556+1057655138
1924+1057654668+1056891253+1055953602+1055546831+1055715101+1055986170
1915+1055898048+1055250297+1054241210+1053443014+1053232123+1053399657
1907+1053718305+1054357143+1055343513+1056216495+1056576424+1056549753
1898+1056438309+1056239079+1055737417+1054863429+1053755430+1052617477
1890+1051714204+1051283107+1051286592+1051509680+1051879928+1052468171
1881+1053235072+1053912845+1054189945+1054074481+1054040304+1054553090
1873+1055458977+1056123280+1056111485+1055575915+1054989280+1054676529
1864+1054757213+1055169479+1055643129+1055942478+1056092454+1056159199
1856+1056036363+1055700493+1055441084+1055522103+1055785801+1055899522
1847+1055865680+1055952128+1056183324+1056259250+1056068865+1055770857
1839+1055494829+1055305248+1055212702+1055124111+1054955103+1054748836
1830+1054580767+1054462421+1054391655+1054317203+1054083461+1053649549
1822+1053207797+1052876417+1052538066+1052118831+1051779207+1051670579
1813+1051719498+1051784970+1051904790+1052242068+1052771340+1053212086
1805+1053382568+1053459567+1053739347+1054201806+1054569441+1054753929
1796+1054897539+1055085377+1055230662+1055162308+1054864702+1054564818
1788+1054479107+1054644027+1054913287+1055066479+1054967903+1054623052
1779+1054173527+1053829145+1053717702+1053844826+1054171516+1054586195
1771+1054856862+1054877569+1054809282+1054802112+1054760027+1054503969
1762+1054120653+1053994132+1054314590+1054843660+1055219069+1055289902
1754+1055211965+1055221481+1055368039+1055454353+1055340966+1055186098
1745+1055204996+1055427480+1055751155+1056116511+1056524422+1056914439
1737+1057179008+1057197772+1056855400+1056339733+1056056869+1056068798
1728+1056120465+1056005336+1055813410+1055770052+1055915873+1056108001
1720+1056286323+1056553974+1056984133+1057378104+1057486197+1057278456
1711+1056873494+1056441191+1056151559+1056146131+1056436634+1056835698
1703+1057176327+1057414225+1057431313+1057156759+1056876845+1056870344
1694+1056983463+1056914439+1056661129+1056449233+1056481868+1056761783
1686+1057055703+1056906733+1056192773+1055490741+1055119286+1054978223
1677+1054850763+1054499480+1053880075+1053305771+1053128052+1053447035
1669+1054015509+1054411960+1054512011+1054492041+1054615011+1054990218
1660+1055429826+1055716844+1055794445+1055751624+1055937519+1056760778
1652+1057541818+1057556293+1057169626+1056890180+1056991370+1057307204
1643+1057572644+1057712769+1057722888+1057664586+1057695547+1057939676
1635+1058207797+1058200425+1057959043+1057692129+1057615868+1057861204
1626+1058328421+1058748594+1058866270+1058597747+1058099503+1057603671
1618+1057285224+1057154883+1056988020+1056680496+1056372904+1056156317
1609+1055828622+1054895327+1052832523+1049338783+1044461686+1038777682
1601+1033441745+1029734299+1028349200+1029054918+1030911388+1032832862
1592+1034081052+1034425568+1034128028+1033849722+1034328867+1035978803
1584+1038723401+1042040896+1045189652+1047681409+1049446004+1050222956
1575+1049318276+1046952706+1044350980+1042774424+1043203913+1045278243
1567+1047586652+1049424359+1050690106+1051369756+1051688873+1052252857
1558+1053284260+1053567123+1052368254+1049872075+1046648800+1043590714
1550+1041579710+1041095606+1042016570+1043867010+1046051041+1047985381
1541+1049534662+1050968480+1052162054+1052921852+1053436179+1053929062
1533+1054434276+1054798292+1054959191+1055055489+1055272947+1055635155
1524+1055997965+1056334372+1056759906+1057193617+1057373078+1057238717
1516+1056990767+1056874164+1056976963+1057232216+1057519235+1057790907
1507+1058124767+1058454540+1058567256+1058514584+1058434235+1058396774
1499+1058433699+1058533012+1058586757+1058479067+1058187357+1057656076
1490+1056545531+1054017453+1049156305+1041677416+1031835502+1020370257
1482+1009099418+1000863144+997891639+1000610437+1007997183+1018242182
1473+1029056057+1037655677+1042270417+1043375467+1042084120+1039371085
1465+1036734780+1035609090+1035846652+1036550628+1037428703+1038688152
1456+1039955709+1040412740+1040142475+1039742674+1039893856+1041120803
1448+1043249884+1045452344+1047135853+1048021769+1047334347+1043182669
1439+1031640962+1007337571+972565959+944435570+935474345+943723687+962916776
1429+985111325+1002796412+1014222052+1021859964+1027650586+1031934347
1421+1034939158+1037247700+1039044261+1040204664+1040990261+1041744630
1412+1042516691+1043183675+1043671465+1044023754+1044348366+1044695227
1404+1044995782+1045206673+1045403960+1045657740+1045917015+1046076104
1395+1046102843+1046037303+1045910045+1045704247+1045387743+1044935068
1387+1044349774+1043710868+1043151173+1042798616+1042777038+1043163638
1378+1043876123+1044708496+1045478479+1045951057+1045711217+1044515096
1370+1042715050+1041129850+1040416426+1040618538+1041530120+1043110161
1361+1045218132+1047383802+1049188070+1050534099+1051532933+1052305530
1353+1052874741+1053232056+1053447102+1053618455+1053759183+1053844156
1344+1053938913+1054157376+1054514155+1054878775+1055052407+1054877636
1336+1054302929+1053396909+1052337026+1051330352+1050522372+1050032773
1327+1050026138+1050556884+1051347373+1051950493+1052160446+1052085994
1319+1051855937+1051448094+1050769785+1049757348+1048476857+1047242605
1310+1046508742+1046553038+1047318598+1048535896+1049915901+1051236667
1302+1052349759+1053183606+1053715021+1053907417+1053723867+1053221267
1293+1052575393+1051964298+1051453388+1051023565+1050693591+1050557487
1285+1050674760+1050995486+1051426851+1051915646+1052447330+1053012856
1276+1053572417+1054020267+1054242483+1054255082+1054226266+1054304672
1268+1054477499+1054648785+1054833206+1055188444+1055823730+1056645917
1259+1057418044+1057917629+1058062914+1057983034+1057923258+1057991477
1251+1058096219+1058172883+1058306909+1058553853+1058767559+1058685066
1242+1058178378+1057460330+1057023336+1057258285+1058051588+1058837923
1234+1059148463+1059044257+1058925777+1059044726+1059355132+1059704137
1225+1059983248+1060034111+1059273108+1056654762+1051866995+1046601422
1217+1043281246+1042203940+1041507403+1040311952+1040072647+1042189800
1208+1045946902+1049575943+1052152740+1053829882+1054993636+1055784929
1200+1056202221+1056304417+1056165431+1055702436+1054727861+1053196941
1191+1051309913+1049398491+1047764572+1046553172+1045697948+1045015417
1183+1044412766+1044041177+1044242686+1045272346+1047051081+1049219566
1174+1051384767+1053271862+1054748970+1055798131+1056399375+1056334506
1166+1055063062+1051917858+1046760377+1040621353+1035357120+1032305065
1157+1031348047+1031363594+1031369357+1031273327+1031862375+1034078908
1149+1038053335+1042841706+1047167818+1050297609+1052226052+1053288146
1140+1053668514+1053154656+1051377864+1048472769+1045503810+1043942802
1132+1044476228+1046417001+1048360254+1049233974+1048751009+1047166210
1123+1044623925+1040745662+1035305453+1029325384+1024710644+1022643216
1115+1023050791+1025485720+1029513088+1034264937+1038563842+1041685189
1106+1043536165+1044028713+1042442172+1037405852+1027730935+1013640577
1098+997206830+981508554+969534812+963653185+965024680+972779664+984316881
1088+997065230+1009651742+1021255504+1030773475+1037332807+1041124087
1079+1043096423+1043978453+1043873845+1042651790+1040474593+1037922189
1071+1035727302+1034445404+1034279680+1035032507+1036190297+1037239458
1062+1038105806+1039273446+1041300868+1044138548+1047061267+1049338716
1054+1050833247+1051889645+1052829440+1053672937+1054251999+1054499077
1045+1054604758+1054841918+1055261756+1055678043+1055943282+1056111887
1037+1056282570+1056262265+1055354503+1052665325+1047932508+1042157432
1028+1037349494+1035521102+1037531167+1042448136+1048076117+1052403637
1020+1054623119+1054837227+1052902753+1047496988+1036531663+1019183049
1011+997817388+977621244+964176492+960888215+967354667+979383628+991371643
1001+999737320+1004440919+1007582974+1011024108+1015214050+1019632642
993+1023779628+1027552881+1030964999+1033938783+1036470279+1038735731
984+1040862065+1042680538+1043936234+1044739657+1045521502+1046468266
976+1047306871+1047714915+1047707745+1047648304+1048000258+1048917805
967+1050054351+1050960907+1051572002+1052121712+1052781191+1053554055
959+1054356406+1055081222+1055671476+1056165565+1056633854+1057069575
950+1057382460+1057550396+1057720878+1058027732+1058403207+1058710665
942+1058894147+1058881080+1058608268+1058259397+1058181125+1058485969
933+1058946149+1059288521+1059408676+1059292742+1058909158+1058296321
925+1057684087+1057328716+1057216200+1057135918+1057062070+1057239052
916+1057788762+1058431085+1058749733+1058532275+1057517693+1055050262
908+1050570689+1044356676+1037404914+1031137424+1027696624+1029230560
899+1035586708+1043555197+1049607238+1052841905+1054611392+1056123682
891+1057311426+1057560984+1056464110+1053585150+1048542664+1042430914
882+1038425527+1039261384+1044158719+1049603887+1053031686+1054581236
874+1055602385+1056791336+1057923258+1058560823+1058655915+1058624083
866+1058971749+1059872542+1061011970+1061750189+1061573943+1060553933
857+1059268417+1058211683+1057376228+1056392070+1054978357+1053365480
849+1052322886+1052528081+1053783576+1054949005+1054635450+1052171168
840+1048386188+1045399873+1044981441+1047018848+1049863028+1051829869
832+1052108042+1050749949+1048142460+1044455856+1040070972+1036645518
823+1036470748+1039944116+1044678943+1047940214+1049281687+1050274356
815+1052312298+1055321867+1058365680+1060841957+1062781390+1064362368
806+1065626240+1066534673+1067011138+1067077347+1067038479+1067282273
798+1067866630+1068542861+1069160724+1069831059+1070681793+1071617098
789+1072412680+1072990671+1073443413+1073741823+1073654371+1073169529
781+1072739974+1072706869+1072685291+1071959402+1070235752+1067535919
772+1063668244+1058218184+1050833984+1041699396+1032324230+1025299557
764+1022207830+1022087608+1022553150+1021710993+1018347393+1010955085+997457661
754+976361862+948820922+919627433+895047277+878577342+868576138+860342678
744+851250175+844424732+846709016+862292565+888995503+920711240+951556608
734+977604625+997300849+1011477588+1021965845+1029835087+1035434118+1039463027
724+1042786151+1045289167+1046013112+1044996117+1044274652+1045990193
715+1049828382+1053122557+1052945976+1047240595+1034778125+1016023638+994282368
705+974531259+960107040+950033864+938896984+919418955+887437711+846946779
696+809762084+787873384+785586152+799308272+822678704+850125289+877582797
686+902779074+925134589+944503990+960405585+972738987+982138479+989187210
676+994153300+997631694+1000603870+1003771054+1007451091+1011808634+1016313873
666+1020070909+1023133418+1025926333+1028650961+1031383162+1034069660
657+1036403198+1037797344+1037100740+1032837687+1025341240+1018472373
649+1016985749+1021532805+1027986457+1032127814+1033399459+1033989914
640+1035814754+1039021409+1042643480+1045701098+1047548923+1047949529
632+1047332738+1046705024+1047013353+1048521220+1050571962+1051850040
623+1051175752+1048380291+1044696166+1042354787+1043116661+1046554177
615+1050380170+1052818316+1053802876+1053963842+1053692371+1053434906
606+1053892540+1055282128+1056763123+1057061868+1055389551+1051242966
598+1043925177+1033571349+1022525272+1014632576+1012911941+1017745881
589+1026639221+1035764293+1042485731+1046754681+1050031298+1053227834
581+1056137420+1058252025+1059388907+1059739788+1059705143+1059667280
572+1059843793+1060225501+1060533494+1060416087+1059696364+1058266701
564+1056178432+1054116766+1053094947+1053184812+1052852359+1049701995
555+1042256880+1032132505+1024303136+1023362872+1029145788+1037486603
547+1044962209+1050832041+1054958387+1056568918+1055302701+1051832014
538+1047476549+1044037089+1043331439+1045686690+1049120386+1050647017
530+1047724498+1037737300+1017462147+985520776+945368730+904342362+871415024
520+854979199+856247694+864002813+863376975+850162950+831573786+817520955
510+814089336+820758570+831109852+838724042+844173298+853868386+871014753
500+890271705+903116822+904607466+894202976+874451733+850223195+828424695
490+816629209+819730787+837537705+865077170+894914657+920873680+940776574
480+955773489+967593703+976863390+983692183+988834787+993352625+997422211
470+1000200583+1000748820+998568943+993507224+985130356+972459006+955163936
460+935070590+917138692+909224283+916073046+933528680+953692457+970929225
450+983063799+990766781+995251112+996429006+993431834+986250618+977131980
441+970194223+968319927+970733546+973980744+975312970+974796364+973677509
431+972576949+971679506+971026126+970502283+970204878+970516155+972015176
421+975866634+982851702+990596634+996267504+1000834597+1005532097+1009605436
411+1012249849+1014069731+1015736955+1017267607+1018974102+1021346709
402+1024199198+1027004913+1029582581+1031881473+1033419898+1033624959
394+1032388831+1029904982+1025990800+1019802051+1011394558+1003653178
385+1001176700+1005358466+1012120916+1017277994+1020041155+1021906940
377+1026016600+1034270968+1041786178
##END=
