##TITLE=LSM-R452D-X-19706
##JCAMP-DX=4.24
##DATA TYPE=INFRARED SPECTRUM
##DATE=19/10/2021
##SAMPLING PROCEDURE=Diamant-ATR
##ORIGIN=Angelika Moesle
##XUNITS=1/CM
##YUNITS=TRANSMITTANCE
##RESOLUTION=4
##FIRSTX=3997.453
##LASTX=373.96442
##DELTAX=-1.4165319
##MAXY=0.91394204
##MINY=0.19074869
##XFACTOR=1
##YFACTOR=8.5117485e-010
##NPOINTS=2559
##FIRSTY=0.87879491
##XYDATA=(X++(Y..Y))
3997+1032449331+1031859010+1031313364+1030957701+1030804483+1030953849
3989+1031446204+1032050602+1032475731+1032701706+1032899391+1033084540
3980+1033069835+1032720473+1032082113+1031324989+1030704345+1030415557
3972+1030380684+1030342730+1030208349+1030061644+1029917460+1029774536
3963+1029888259+1030643072+1032002844+1033313386+1033886972+1033667299
3955+1033121934+1032568166+1031949974+1031303911+1031001607+1031270508
3946+1031832049+1032314671+1032649607+1032923200+1033137410+1033187829
3938+1032992526+1032632030+1032316912+1032141216+1031993530+1031787162
3929+1031596201+1031510979+1031646900+1032140305+1032847921+1033330613
3921+1033372348+1033131318+1032849322+1032770822+1033067384+1033590200
3912+1034062948+1034496691+1035006483+1035386305+1035420128+1035480841
3904+1036122842+1036924013+1036898244+1036073404+1035124267+1034207482
3895+1033209677+1032396251+1032374263+1033352671+1034415250+1034654320
3887+1034487728+1034880715+1035682797+1035842457+1035360466+1035026020
3878+1034874833+1034492419+1034081225+1034006017+1034171629+1034551382
3870+1035452480+1036483758+1036776958+1036363663+1035866686+1035677615
3861+1035852191+1036255962+1036530045+1036335302+1035957930+1036579904
3853+1038716197+1040028840+1039394892+1038232735+1037467138+1037033815
3844+1036478856+1035484552+1034164906+1033166261+1033345248+1034712092
3836+1035988952+1036323678+1036189997+1036233834+1036413872+1036451266
3827+1036457638+1036479836+1036022775+1034819722+1033605396+1033313526
3819+1033609598+1034094600+1035312918+1037036266+1037997657+1037876932
3810+1037338709+1037103981+1037646825+1038574534+1038692458+1037801443
3802+1037077021+1037336258+1037826583+1038010122+1038358082+1038931388
3793+1039152741+1038897355+1038637207+1038729712+1039143078+1039720935
3785+1040362586+1040980638+1041524953+1041991118+1042306657+1042344961
3776+1042066817+1041484408+1040654806+1039855455+1039538026+1039828915
3768+1040298652+1040641361+1040958510+1041207173+1041160676+1040944645
3759+1041082597+1041816753+1042593064+1042730526+1042179489+1041611365
3751+1041940769+1042816378+1042878772+1042222415+1042109673+1043078907
3742+1043787153+1043245500+1042020039+1040976577+1040804452+1041754149
3734+1043178414+1044107384+1044310040+1044015929+1043387933+1042667712
3725+1042366669+1042832624+1043720418+1044387349+1044549880+1044257170
3717+1043585337+1042676256+1041927324+1041989788+1043361113+1045546214
3708+1047325233+1048027737+1047707857+1046853326+1046208523+1046371965
3700+1047194424+1047998676+1048397126+1048361973+1047890065+1047017888
3691+1046161956+1046166858+1047367179+1048738364+1049285900+1048977084
3683+1048171711+1047387347+1047119776+1047425371+1047987682+1048531997
3674+1048705522+1048335363+1048042163+1048613367+1049615864+1049544928
3666+1048353570+1047272223+1047004653+1047148837+1047014176+1046711733
3657+1047086794+1048536619+1050074887+1050449948+1049552770+1048397126
3649+1048633605+1050467384+1052104600+1052719711+1052641912+1052189121
3640+1051502864+1050773679+1050148694+1049575459+1049032965+1048656994
3632+1048546982+1048940670+1050386504+1052429802+1053397426+1053027056
3623+1052118325+1051103503+1050071245+1049414539+1049685120+1050659677
3615+1051636964+1052197315+1052234499+1051921901+1051670016+1051772815
3606+1052094516+1052326863+1052478400+1052775242+1053183495+1053292876
3598+1052976708+1052835114+1053456668+1054427513+1054723094+1054096919
3589+1053317105+1053310873+1054155741+1055005790+1055407601+1055498355
3581+1055312856+1054844800+1054435356+1054573378+1055346678+1056362410
3572+1057134520+1057453770+1057516164+1057801381+1058477345+1058787492
3564+1058067551+1056818842+1056010528+1056080134+1056578371+1056732219
3555+1056310381+1055814804+1055887212+1056531804+1057165612+1057453980
3547+1057571695+1057744800+1057942204+1058029177+1057975537+1057911953
3538+1058100183+1058699889+1059515205+1060204965+1060736464+1061293104
3530+1061794282+1061904013+1061607802+1061322445+1061249617+1061187784
3521+1061062647+1060981767+1060748089+1059981861+1058762983+1057579888
3513+1056561845+1055231555+1053141409+1050459751+1047741890+1045287607
3504+1042921138+1040125337+1036205893+1030485163+1022316803+1010918968
3496+995426485+975034540+948970112+916666269+878440791+836341876+794601916
3486+758664057+732760550+718439677+715106704+720829395+732830647+748499246
3476+766100783+784323522+801854612+817897783+832583633+846424056+859586623
3466+871763220+882534039+891770651+899715768+906725262+913046259+918829242
3456+924205233+929256302+933900868+937901121+941189417+944174499+947423651
3446+950976996+954291272+957007663+959434706+962134080+965183937+968057537
3437+970316096+972117523+973811250+975392934+976682259+977695400+978550981
3427+979270642+979850460+980358851+980957296+981888786+983300167+984983459
3417+986443788+987299580+987584447+987601954+987478637+987073045+986440917
3407+985996950+985920902+985772796+985077084+983994828+983090298+982685055
3397+982644510+982619441+982394656+982059300+981818269+981680738+981497969
3387+981266112+981137264+981131871+981072139+980836991+980535457+980376708
3377+980426006+980519281+980422645+980058088+979565663+979168614+979020648
3367+979135981+979388776+979558520+979446408+979051740+978641035+978487748
3357+978468070+978091399+977085751+975794675+974816197+974404653+974390437
3347+974484553+974407454+973885758+972832982+971491558+970165959+968882587
3337+967461193+965767396+963768565+961528563+959232049+956990997+954594836
3327+951712973+948357592+944847592+941257063+937188603+932198668+926269399
3318+919759052+912932536+905638594+897499995+888426474+878883427+869660960
3308+861502824+855038554+850947056+849865219+851910618+856452105+862589072
3298+869740860+877689828+886334928+895509076+904844496+913824671+922143588
3288+929885278+937197497+943944183+949841660+954813178+959085484+962944005
3278+966427814+969274314+971188624+972175645+972586559+972816946+972935641
3268+972605326+971372443+969020749+965718798+961995428+958571211+956006147
3258+954474461+953994221+954664302+956366362+958424646+960013683+960936070
3248+961663503+962550177+963276910+963271308+962430082+961074792+959379455
3238+957245193+954592946+951485668+948106407+944761460+941674350+938761815
3228+935899769+933320349+931350229+929880376+928471307+926903207+925342110
3218+924061399+923232147+922944759+923257777+924136607+925295403+926161348
3208+926213308+925472850+924485198+923724642+923160580+922412419+921140461
3199+919286794+917101063+914911200+912814541+910675027+908388808+905972900
3189+903429894+900685772+897664767+894353922+890806039+887095554+883273657
3179+879450850+875876777+872713198+869711449+866360550+862437045+858241768
3169+854204400+850403511+846612987+842683740+838662828+834570700+830334808
3159+826011943+821810293+817755979+813583111+809125235+804630526+800527543
3149+797029589+794076929+791527830+789294271+787331153+785523493+783618848
3139+781400554+778977993+776755778+774981661+773399416+771511857+769190064
3129+766859658+765087362+764107133+763663867+763189578+762249335+760895516
3119+759460186+758132697+756992039+756194719+755731215+755249574+754472632
3109+753561799+752886816+752722464+753281974+754722906+756971801+759678879
3099+762431403+764998358+767350682+769448251+771132314+772363237+773423155
3089+774596026+775658535+775991090+775295659+774006684+772877160+772348391
3080+772428921+772993754+773978254+775332423+776962706+778736472+780456879
3070+781789760+782274272+781580661+779970406+778439281+778116109+779463696
3060+782177216+785614528+789026490+791690362+793427855+794981669+797418795
3050+801080961+805368953+809519904+813243903+816512312+819144531+820886156
3040+821634878+821361425+820028684+817848274+815481455+813751034+813128640
3030+813564974+814804160+816694520+819068343+821555608+823809755+825785618
3020+827610644+829362842+831108389+832917519+834730570+836367505+837728047
3010+838890624+839988006+841012702+841824167+842411968+843008872+843785604
3000+844582363+845071847+845025630+844308070+842716862+839827296+834880917
2990+826948965+815606381+801758116+787615670+775324020+765318168+756064610
2980+745409965+732341303+718018399+705457077+697788354+696210381+699335516
2970+704296881+708417370+710168378+709154047+705795024+701339879+697748649
2961+696751755+698828315+703331078+709405301+716488744+724206975+732217286
2951+740167304+747622657+753935880+758225412+759711931+758230664+754254500
2941+748323410+740664491+731447417+721147805+710519070+700451175+692016085
2931+686345773+684031683+684636781+687066694+690419134+694357765+698908285
2921+704223913+710408708+717293766+724455218+731552386+738492135+745212351
2911+751509748+757167665+762060334+766060868+769058274+771213965+773035980
2901+775033550+777422358+780261576+783651760+787626104+792008071+796514895
2891+800886919+804874287+808245214+810836889+812537478+813293272+813142855
2881+812099673+809961069+806400091+801334457+795187476+788822924+783251419
2871+779308027+777462413+777740068+779668593+782394297+785102285+787421277
2861+789438805+791409766+793528342+795929265+798787459+802241228+806183850
2851+810329338+814607316+819312595+824757421+830913925+837379036+843538621
2842+848918463+853601544+858146112+862901599+867652885+872089333+876228449
2832+880133467+883631072+886595776+889159860+891459174+893490077+895289054
2822+896939574+898417620+899664018+900736261+901745971+902759952+903851172
2812+905150020+906781284+908731657+910781117+912615317+914023056+914956086
2802+915509504+915927071+916488052+917296786+918278835+919358151+920508263
2792+921672101+922771024+923812876+924890091+926002949+926964970+927628960
2782+928130839+928693850+929283822+929692356+929880376+930041857+930375603
2772+930900030+931466122+931918563+932222267+932420511+932542287+932586754
2762+932502512+932166386+931502886+930593875+929570160+928427330+927027504
2752+925266692+923195173+920976039+918767619+916722710+915093828+914158557
2742+913897288+913856883+913553599+913006764+912674979+912878545+913521947
2732+914348398+915168826+915837018+916289458+916623553+916932439+917137336
2723+917183204+917293565+917787881+918688279+919727050+920730597+921762015
2713+922879075+924037940+925312209+926922184+928920456+931033290+932907474
2703+934418642+935706286+936966970+938254964+939482666+940539713+941358741
2693+941954245+942471809+943084190+943759734+944279749+944559014+944783308
2683+945101928+945361095+945386865+945422719+945911642+946817433+947575328
2673+947849341+947936384+948226853+948647711+948905198+948989019+949142797
2663+949519399+950130378+950981128+952018148+953053557+953945552+954743572
2653+955513442+956160695+956577492+956865160+957286998+958012191+958940880
2643+959788969+960335244+960557998+960549385+960420186+960322569+960406111
2633+960619061+960650503+960230975+959437507+958594250+957966324+957650505
2623+957642802+957908692+958450766+959313280+960468574+961784929+963135527
2614+964432694+965581196+966518849+967273242+967948576+968681401+969525499
2604+970374148+971126370+971837208+972522275+973015961+973224709+973304189
2594+973439270+973643887+973846193+974044998+974329304+974733146+975145041
2584+975489010+975840963+976155101+976145227+975715546+975201762+974940914
2574+974927819+975026416+975159957+975176273+974877681+974335187+973913348
2564+973806558+973746265+973360700+972631866+971789380+971002634+970438502
2554+970385002+971032465+972244411+973681001+975036850+976110844+976756487
2544+976866218+976453133+975727590+975008210+974549467+974477970+974803173
2534+975406940+976079752+976632960+977012013+977366346+977963741+978918339
2524+980039601+981022841+981717712+982193961+982657745+983268585+983953372
2514+984499017+984873938+985279391+985907527+986828793+988009857+989234057
2504+990156934+990632413+990849914+991066646+991386736+991800872+992211576
2495+992411852+992227682+991710188+991112373+990689834+990507486+990419743
2485+990320866+990364002+990738993+991338628+991879862+992168160+992042603
2475+991419368+990614206+990176891+990205812+990276329+990159385+990125702
2465+990427516+990878135+991109572+991062444+991081281+991475670+992091061
2455+992528936+992717516+992925705+993303217+993806286+994439884+995165777
2445+995751897+996086203+996416167+996977358+997605284+997942951+997881888
2435+997654302+997563898+997739454+998171447+998850772+999706914+1000523211
2425+1001097917+1001377742+1001402531+1001337897+1001493075+1002012951
2417+1002666576+1003151158+1003408785+1003524749+1003556191+1003544636
2408+1003554090+1003698834+1004102956+1004719958+1005270575+1005467419
2400+1005244735+1004777100+1004330542+1004070254+1004035661+1004257784
2391+1004661626+1004912250+1004732703+1004289436+1003879712+1003439177
2383+1002768395+1001991102+1001415066+1001145184+1001159960+1001616391
2374+1002739334+1004381521+1005979592+1007129704+1008015537+1009035610
2366+1010176619+1011023167+1011266089+1011023658+1010798873+1011143893
2357+1012074403+1012816121+1012532235+1011295220+1009880618+1008749413
2349+1007843202+1007137757+1006883351+1007222909+1007830948+1008314269
2340+1008651866+1009003048+1009468233+1010028514+1010548529+1010891588
2332+1011045366+1011093404+1011088362+1010954752+1010561974+1009988388
2323+1009592670+1009628803+1009919623+1010161564+1010336839+1010563515
2315+1010793971+1010868339+1010712811+1010318703+1009705902+1009134698
2306+1009104796+1009764654+1010562954+1010931223+1011007412+1011194522
2298+1011350190+1011015955+1010265343+1009838602+1010369682+1011614820
2289+1012607653+1012728729+1012382308+1012325307+1012693435+1013114293
2281+1013411065+1013741589+1014271969+1014979305+1015616054+1015851552
2272+1015640353+1015311719+1015142606+1015141135+1015431324+1016413584
2264+1018179367+1020071339+1021239448+1021534399+1021527256+1021640208
2255+1021607156+1021054718+1020317271+1020089195+1020361878+1020382185
2247+1019767564+1019051055+1018941394+1019477305+1020139124+1020483794
2238+1020356346+1019652161+1018388816+1017109435+1016643620+1017221968
2230+1018249324+1018957990+1018902039+1018083922+1017026944+1016401259
2221+1016329272+1016414704+1016533889+1017131423+1018592523+1020600668
2213+1022352236+1023386035+1023902829+1024164517+1024058007+1023556619
2204+1023175465+1023577346+1024890480+1026489881+1027446511+1027316332
2196+1026480918+1025629538+1025220024+1025621695+1027206741+1029795614
2187+1032335469+1033560159+1032988534+1031154195+1029008798+1027265493
2179+1026194160+1025796621+1025907262+1026037091+1025549078+1024319135
2170+1022983733+1022469880+1023462643+1025807265+1028151396+1029474333
2162+1031446695+1037006154+1045310856+1051225629+1051764622+1048789414
2153+1045476258+1043787013+1044046881+1045005261+1045025499+1043822376
2145+1042527030+1042117586+1042363868+1042289080+1041455137+1040541363
2136+1040425330+1041039390+1041597640+1041544140+1040796749+1039575770
2128+1038423977+1037981691+1038329792+1038702752+1038161028+1036656583
2119+1035177557+1034551452+1034463709+1034205031+1033910080+1034079754
2111+1034363571+1034103493+1033747830+1034401175+1036192238+1038108299
2102+1039217445+1039459667+1039563936+1040394868+1041965068+1043247740
2094+1043407120+1042753145+1042083693+1041680061+1041250380+1040439545
2085+1039231101+1038003679+1037179469+1036898804+1037186052+1038100035
2077+1039364361+1040228345+1040177156+1039589285+1039336420+1039834798
2068+1040742969+1041541059+1042113314+1042643273+1043285485+1044188614
2060+1045374790+1046321756+1046305160+1045372619+1044306608+1043682744
2051+1043626093+1044075732+1044550230+1044416830+1044054444+1044585173
2043+1046073443+1047141834+1046565868+1044639724+1043036471+1043378059
2034+1045604476+1048097904+1049624828+1050117673+1049733228+1048768336
2026+1048240967+1048947393+1050105768+1050233566+1049281278+1048716516
2017+1049550109+1051362181+1053367454+1055267619+1056852244+1057641931
2009+1057099927+1055017275+1052035414+1049583162+1048768966+1049680148
2000+1051787871+1054256859+1055890853+1055663477+1053590138+1050924026
1992+1049312720+1049103552+1048850897+1047533211+1046340523+1047079581
1983+1049608091+1052095426+1053181114+1053029297+1052771040+1053119561
1975+1053495813+1053116340+1052563972+1053075095+1054498730+1054924700
1966+1052674964+1048333612+1044052623+1041324958+1040140603+1039547830
1958+1038340716+1035921236+1033247912+1032214393+1033601825+1036448815
1949+1039442510+1042019829+1044317042+1046717755+1049148018+1050744338
1941+1050976546+1050551276+1050320819+1050324951+1050211438+1049660751
1932+1048190829+1045402310+1041844973+1039063948+1038302622+1039378786
1924+1041099333+1042641172+1044251008+1046331770+1048394395+1049572098
1915+1049957032+1050312766+1050742028+1050666189+1049960534+1049299485
1907+1049123509+1049122669+1048961818+1048769666+1048814693+1049172247
1898+1049867399+1051103223+1053072083+1055453048+1057446978+1058532036
1890+1058903455+1059114865+1059479562+1059988513+1060554326+1061106764
1881+1061638053+1062182998+1062667230+1062938652+1063046003+1063305590
1873+1063979663+1065011921+1065997262+1066362869+1065984377+1065432430
1864+1065204214+1065233555+1065185937+1064901560+1064394149+1063663355
1856+1062799230+1061984824+1061180571+1060102726+1058587146+1056748955
1847+1054909854+1053585166+1053239936+1053709533+1054568196+1056006186
1839+1058313063+1061004035+1063120160+1064350943+1065230614+1066300546
1830+1067483641+1068205122+1068100152+1067112151+1065102115+1061997428
1822+1058019723+1053682433+1049946739+1047968985+1048174442+1050015925
1813+1052763337+1055888892+1058814312+1061052143+1062636909+1063904805
1805+1065030619+1066048591+1067085331+1068250079+1069321551+1069981129
1796+1070337773+1070852397+1071853073+1073072301+1073741823+1073531114
1788+1072757183+1071811267+1070914580+1070198491+1069840376+1069988832
1779+1070548203+1071207921+1071717222+1072065953+1072441924+1072907459
1771+1073176571+1073148140+1073053184+1072940232+1072679944+1072295289
1762+1071953631+1071730947+1071511275+1071084464+1070333922+1069420989
1754+1068590056+1067815425+1066871470+1065684664+1064444988+1063244807
1745+1061933354+1060387173+1058712424+1057097336+1055596532+1054216594
1737+1053002057+1051917419+1050855540+1049842960+1048978625+1048250701
1728+1047617943+1047003742+1046287583+1045397549+1044364380+1043273300
1720+1042197276+1041140298+1039982553+1038655204+1037280447+1036000436
1711+1034954523+1034288153+1034155243+1034748576+1035943085+1037040327
1703+1037658590+1038162079+1038629084+1038240438+1036711484+1034629181
1694+1032486445+1030284047+1027739641+1024788662+1021866603+1019443343
1686+1017645977+1016697400+1016526466+1016250632+1015481113+1014289265
1677+1012467040+1009560528+1005624628+1001262198+996462034+990644387+984115133
1667+978113387+972766667+967044256+960060741+952037335+943617370+934655471
1657+924829518+912243197+886160282+828264620+757286009+700564898+641713026
1647+561426552+474395632+419413905+400682424+403108276+417866639+440872246
1638+473156972+519110170+569545754+606460795+630635352+651015813+672260889
1628+693888518+713767941+732763701+753111740+773113429+789631728+804418066
1618+822261123+842631570+854711671+849445621+824789984+783126913+735753615
1608+700329680+686417830+690058849+703022192+720606922+741398507+764495219
1598+788753878+813030043+836017514+856407498+873575432+887752401+899382793
1588+908490066+914730672+917835359+917613865+913835735+906713428+896761357
1578+883423233+865683885+846749748+831438493+817128123+795422414+758522674
1568+709105098+657287370+609945935+574126106+556124054+560491280+599841627
1558+671596339+726319949+755620083+777517594+797348068+814894774+830316391
1548+843311526+853754901+863081427+872822859+883235423+895081916+908706027
1538+919386372+925177969+929324437+935044117+942740570+949662042+954586993
1528+958820085+963290005+967519175+970862231+973517489+975838932+977509480
1519+977931318+976986943+975000017+972321370+969178028+965839243+962252145
1509+956717544+944894230+926811753+910307319+896982220+884429512+870358703
1499+851511258+826145623+801890186+790421485+794404372+811216291+838121385
1489+869133662+895911027+915444660+928828021+936912630+939822924+937303517
1479+928181958+910304308+882216960+844484256+799902629+754832427+714552236
1469+676993758+638561982+601096358+573971207+565819373+574251873+593491500
1459+624272270+670360865+717391943+742450583+747747024+741863482+727821033
1449+707185537+683604663+661936628+643056971+621781784+592109460+552793882
1439+504553589+445330717+380167653+329128162+301903189+291095046+290119544
1429+296299192+306822223+319698698+334936426+351931884+369041205+387102710
1419+409432143+435286947+458917504+478837332+497570214+516551549+535479313
1409+553557029+570710887+588203462+607100205+625895760+642369733+656913430
1400+670976396+684165364+694771410+701547227+703110425+698067899+686313421
1390+668564479+646332663+623010746+602121054+584777249+572384831+568976720
1380+577458238+595008830+615450704+634637076+650995715+663612428+672482942
1370+678026226+679382146+675972844+670865404+670318709+678610666+691169116
1360+696320112+685189919+655241901+610825536+564420947+531334560+519836238
1350+527908172+547749991+571614716+594641752+614378741+629810652+641283835
1340+650235089+658192531+665918465+673552944+681000314+688024864+694493546
1330+700506216+706051951+710773265+714171993+715697236+714464983+709281425
1320+699841386+688588856+680409362+678974592+684106892+693063748+703098030
1310+712782180+721812075+730174548+737740542+744496192+750683647+756452346
1300+761503905+765148635+766757700+766434108+765306264+764915937+766261773
1290+769314080+773010420+775787384+776889388+777429921+779684699+785084288
1281+793022052+801624506+809406881+815997058+821690128+826875087+831828959
1271+836672540+841414863+846052496+850542024+854724906+858315576+860788835
1261+861025944+856733051+844272007+820589665+787392216+753395977+730157182
1251+724064121+732501873+747438628+761582194+771294705+775628774+774328875
1241+766960286+753352841+734416113+712472034+691058965+674390389+666129874
1231+667636350+677156849+690997272+705616037+718919567+730349194+740334807
1221+749657972+759026093+768849876+779072599+789172705+798494469+806672913
1211+813768050+820086385+825928612+831363705+836050776+839223529+839830937
1201+836528426+827603361+811729374+789908682+766836409+749329829+742279018
1191+745607999+755001050+765341627+773455297+778429687+780583907+780669269
1181+779671814+778797745+779296823+782130718+787698441+795784380+805679380
1171+816393617+826908980+836413513+844457717+850957070+856041681+859939066
1162+863010841+865785774+868831779+872585820+877237318+882626264+888276548
1152+893496940+897088240+897106937+892223301+884104730+877127167+874144816
1142+872805842+866315453+846565019+807023325+747003624+676542578+614836923
1132+579537635+576108306+597239729+630699916+666724888+700107556+728844328
1122+752448521+770839464+783759881+790875255+792468354+790140959+786704838
1112+784848650+785518242+787668190+789606238+790429818+790361822+790210425
1102+790683943+792060801+794285187+797184347+800532585+804001619+807125494
1092+809375299+810312742+809493644+806023629+798372553+784892556+764470570
1082+736433781+699706165+652603100+594909183+531322656+472278247+429719259
1072+410932177+415742775+438448285+471570105+508483046+544387117+576514493
1062+604026680+627381649+647343843+664377465+678777328+690997132+701519777
1052+710454155+717513509+722348827+724758782+724844285+723232559+720933595
1043+718836936+717579964+717881987+720706079+726964331+736941192+749825895
1033+763831510+776898982+787549635+795408969+800902324+804384593+805591637
1023+802591499+790026606+761896332+721352352+685560778+673576473+688760281
1013+717815112+745826832+767125548+783171379+796416718+807934368+817815642
1003+825874131+832158153+837119378+841441543+845748302+850232437+854565176
993+858358362+861527053+864068868+865832411+866637994+866321965+864612062
983+861252620+856461559+851320646+847548748+846449615+847881584+850441886
973+852673135+853916872+854107624+852949038+849317963+841776058+830438097
963+818621505+811678605+812863310+820223777+827803356+828498438+815244906
953+784120866+741746958+707006690+698176020+717221149+750276024+782190311
943+806520466+823680346+835689020+844070961+849643936+852440577+852136173
933+849010548+844686002+841908058+843082680+848514341+856071652+862675484
924+866027715+864790069+856965398+838490143+805600180+761481496+720072061
914+698846312+705105405+730901351+761956345+788908426+809851548+826275592
904+839475274+849810669+857443048+862912874+866946530+870089591+872689599
894+874825472+876133633+876145888+875028478+873888239+874201187+876718003
884+880886740+885478716+889602916+892984978+895728259+898013498+899533979
874+899243930+896311508+890994549+883781208+874716090+865271430+859684590
864+861680130+870074886+879829903+887061101+891320592+893897351+895814111
854+897263026+897932407+897728281+897157076+896958201+897625482+899155627
844+901057472+902964919+905134545+907719216+909961879+910918299+910585183
834+909716367+908890827+908161152+907444783+906917275+906751102+906670222
824+906308746+905845872+905711631+905899022+906077799+906146075+906328143
815+906846898+907655842+908451341+908632709+907070002+902704701+896308497
805+891031943+889998775+893390850+898508444+902517101+904614389+905643426
795+906411264+906985970+907176512+906917765+906279335+905488808+904760324
785+903934083+902492802+899985859+896294282+891381235+884851910+876027403
775+864259970+848431920+826463543+796719932+759937836+718336108+671884777
765+615456866+541305433+448144585+349581906+269972884+227952311+224100478
755+244667594+274432090+305235741+336075194+368768173+403883432+439586213
745+473092127+502345904+526623189+546341376+562457339+575858522+587254290
735+597431391+606964214+614864584+617729991+612026907+598466170+582973021
725+572021184+567635331+567556411+568778335+569642985+569610738+568630965
715+566959647+565046668+563283440+561774057+560354204+558873007+557457180
705+556472610+556207630+556669349+557767466+559543089+561984837+564748320
696+567355015+569658111+571914989+574427184+577275644+580355717+583476930
686+586387294+588816543+590592130+591801134+592883951+594427822+596766141
676+599835815+603327187+606828433+610191167+614034282+619227154+624416734
666+626574666+624416594+616822380+602828460+585099966+570513448+565211580
656+569842700+580267169+592115202+603278099+613087036+621363447+628479312
646+635198967+642018061+648923006+655772211+662531011+669079033+675271320
636+681320964+687674593+694524498+701853873+709714958+718068257+726653555
626+735272464+744048723+753274691+762801562+771660452+777768428+774803724
616+748472496+685270589+593824055+510462515+471793734+482529575+518327101
606+555138188+584812367+608437988+627961747+644635365+659099091+671426945
596+681726557+690137839+696318712+698648068+693501343+677525888+652789510
586+628632669+616267211+620052064+634839662+651924895+665727083+675196252
577+681537346+686396822+691372333+697687587+705679481+714341737+721748071
567+726682756+729644869+732039139+734967500+738695071+742677398+746179764
557+749097761+752044819+755582269+759463828+762845049+765399609+767830363
547+770798498+773958016+776645976+778765813+780501066+781846411+782656756
537+782664529+781415259+778628632+774837127+771383848+769274165+768222930
527+767518746+767534151+769385647+773281352+778172970+782655776+785930837
517+788220977+790163438+792121023+794281756+796644934+798822823+800526983
507+801990463+803384617+804480529+805372174+806665911+808365520+809375859
497+808516216+805263984+799355933+790722038+780981446+773787852+771486997
487+772363447+772486693+769762669+766075223+765233086+768812272+774189873
477+775497335+766152392+742876693+711917215+690676831+692536240+712782741
467+737385719+756979644+770596122+780774518+788665014+793983794+796807325
458+798210863+799880500+802847796+806594414+809666049+811364817+812717586
448+815207091+818967925+822520781+824183345+823615432+821769538+819393125
438+816434023+812635165+807743406+801701535+795081456+788053755+779170565
428+767337517+754539157+744500743+738985820+737648388+741998003+754815691
418+770625183+779316500+781940527+784746201+790391723+797278042+802902766
408+806020058+805571049+800888529+793648928+786692863+780330481+771907645
398+760677734+750579938+742199958+730906113+715106634+697036762+678627472
388+660283166+641583057+620801275+595861401+568461151+543769660+525688583
378+515071717+511726035+516850701+528895088
##END=
