##TITLE=2-Me-8-NH2-qu
##JCAMP-DX=5.0
##DATA TYPE=LINK
##BLOCKS=1


$$ === CHEMSPECTRA SPECTRUM ORIG ===
##TITLE=2-Me-8-NH2-qu
##JCAMP-DX=5.00
##DATA TYPE=INFRARED SPECTRUM
##DATA CLASS=XYDATA
##$CSCATEGORY=SPECTRUM
##ORIGIN=
##OWNER=
##XUNITS=1/CM
##YUNITS=TRANSMITTANCE
##XFACTOR=0.12501352010900002
##YFACTOR=0.004060989471851746
##FIRSTX=4000.433
##LASTX=249.7859
##MAXX=4000.433
##MAXY=129.95166309925588
##MINX=249.7859
##MINY=36.11437937317758
##NPOINTS=3890
##XYDATA= (X++(Y..Y))
3890B4613B4646B4673B4729B4645B4507B4531B4586B4644B4643B4670B4629B4550B4617
3876B4709B4576B4428B4551B4688B4696B4654B4643B4672B4649B4631B4643B4650
3863B4723B4760B4693B4594B4693B4729B4704B4674B4620B4636B4637B4607B4698
3850B4835B4916B4825B4576B4497B4557B4578B4574B4588B4520B4523B4629B4686
3837B4701B4692B4649B4625B4597B4570B4619B4665B4652B4706B4618B4596B4586
3824B4578B4497B4443B4493B4509B4610B4722B4645B4513B4506B4551B4524B4575
3811B4629B4578B4571B4634B4648B4647B4552B4495B4515B4584B4642B4525B4538
3798B4556B4534B4517B4528B4664B4720B4679B4624B4595B4596B4661B4613B4533
3785B4629B4569B4470B4393B4416B4552B4572B4553B4684B4727B4688B4682B4620
3772B4536B4525B4503B4542B4574B4524B4566B4650B4622B4618B4599B4568B4500
3759B4573B4604B4569B4585B4652B4669B4602B4628B4658B4628B4657B4626B4619
3746B4709B4732B4642B4600B4657B4679B4573B4452B4533B4612B4669B4597B4514
3733B4529B4585B4616B4619B4576B4529B4537B4559B4551B4573B4541B4517B4611
3720B4646B4689B4687B4683B4649B4657B4624B4639B4676B4744B4757B4679B4612
3707B4621B4695B4788B4762B4580B4541B4567B4575B4579B4625B4605B4642B4646
3694B4653B4675B4569B4453B4423B4585B4669B4686B4715B4687B4565B4626B4611
3681B4571B4643B4686B4760B4798B4666B4613B4598B4535B4521B4550B4564B4582
3668B4655B4696B4728B4720B4674B4615B4643B4698B4626B4594B4731B4725B4702
3655B4643B4627B4657B4691B4708B4633B4586B4531B4607B4611B4597B4637B4712
3642B4730B4785B4753B4662B4664B4687B4675B4702B4614B4570B4606B4611B4765
3629B4686B4679B4686B4666B4754B4804B4764B4651B4662B4686B4525B4460B4542
3616B4611B4706B4741B4686B4708B4726B4758B4725B4434B4262B4493B4661B4699
3603B4766B4707B4574B4539B4635B4676B4587B4526B4529B4648B4743B4761B4680
3590B4597B4577B4572B4673B4640B4577B4665B4653B4559B4470B4512B4601B4691
3577B4654B4620B4655B4623B4700B4704B4626B4566B4783B4823B4621B4569B4625
3564B4709B4715B4645B4575B4639B4710B4726B4697B4669B4653B4634B4716B4612
3551B4547B4491B4500B4493B4613B4760B4701B4687B4696B4642B4727B4759B4766
3538B4743B4718B4750B4755B4742B4783B4750B4723B4710B4729B4715B4689B4700
3525B4711B4660B4658B4679B4703B4733B4742B4751B4690B4565B4564B4607B4663
3512B4595B4589B4677B4684B4661B4592B4623B4668B4582B4666B4642B4557B4640
3499B4693B4693B4734B4757B4641B4561B4659B4684B4606B4667B4748B4704B4611
3486B4563B4585B4598B4581B4630B4618B4534B4579B4602B4659B4727B4677B4690
3473B4718B4718B4734B4690B4677B4729B4715B4697B4684B4663B4697B4727B4712
3460B4618B4595B4619B4634B4582B4611B4619B4600B4617B4612B4572B4628B4657
3447B4601B4637B4636B4658B4615B4586B4586B4557B4556B4552B4551B4612B4650
3434B4643B4669B4649B4601B4638B4693B4764B4839B4763B4600B4481B4474B4528
3421B4558B4542B4552B4751B4788B4736B4682B4594B4602B4621B4616B4560B4562
3408B4588B4687B4761B4727B4678B4700B4631B4601B4598B4573B4640B4700B4666
3395B4622B4583B4484B4516B4658B4703B4668B4584B4548B4583B4638B4667B4651
3382B4601B4603B4635B4582B4497B4582B4706B4680B4672B4727B4620B4472B4477
3369B4410B4373B4404B4450B4515B4519B4422B4296B4326B4327B4263B4222B4106
3356B4018B3937B3834B3750B3682B3495B3283B3097B2892B2696B2438B2148B1828
3343B1432B1114B0927B0680B0532B0554B0596B0665B0801B1063B1338B1505B1723
3330B2013B2259B2495B2692B2805B2968B3221B3351B3354B3433B3644B3798B3911
3317B4013B4040B4073B4074B4099B4231B4309B4335B4370B4404B4400B4404B4467
3304B4502B4515B4590B4606B4538B4507B4505B4471B4468B4523B4579B4527B4491
3291B4547B4553B4540B4574B4570B4462B4345B4260B4217B4149B4082B4018B3878
3278B3739B3571B3474B3428B3317B3199B3084B3039B2949B2833B2836B2854B2764
3265B2726B2707B2693B2676B2621B2607B2571B2529B2563B2613B2595B2527B2474
3252B2571B2621B2569B2618B2732B2812B2862B2901B2915B2959B3038B3056B3074
3239B3188B3328B3398B3313B3232B3144B3097B3101B3182B3156B3024B2841B2731
3226B2741B2695B2609B2517B2471B2429B2343B2181B2032B1895B1810B1743B1623
3213B1605B1526B1508B1538B1531B1509B1497B1587B1739B1853B1856B1929B2047
3200B2052B2140B2330B2447B2474B2606B2725B2824B2923B3000B3088B3144B3220
3187B3303B3373B3385B3298B3285B3442B3532B3521B3472B3480B3490B3483B3500
3174B3553B3615B3644B3562B3545B3564B3473B3414B3442B3488B3479B3434B3415
3161B3356B3329B3375B3403B3368B3334B3355B3409B3363B3299B3306B3377B3378
3148B3357B3352B3333B3258B3255B3295B3272B3235B3196B3174B3184B3229B3174
3135B3039B3032B3070B3155B3186B3187B3206B3185B3150B3126B3141B3165B3116
3122B3138B3159B3141B3212B3302B3329B3273B3312B3338B3324B3302B3274B3196
3109B3230B3299B3331B3387B3415B3347B3377B3488B3478B3423B3502B3587B3560
3096B3599B3562B3511B3598B3639B3626B3583B3545B3582B3651B3643B3643B3653
3083B3601B3610B3707B3750B3652B3567B3593B3656B3647B3642B3686B3717B3687
3070B3667B3616B3632B3670B3655B3682B3721B3771B3745B3678B3721B3805B3779
3057B3783B3819B3786B3742B3725B3747B3724B3790B3793B3775B3854B3829B3772
3044B3784B3817B3872B3910B3914B3890B3906B4032B4047B3938B3957B4015B3991
3031B3959B3970B4059B4062B4038B4028B4052B4117B4079B4068B4083B4094B4061
3018B4025B4034B4084B4061B4063B4099B4106B4023B4051B4167B4187B4151B4158
3005B4168B4142B4127B4199B4188B4115B4050B4073B4128B4086B4112B4213B4257
2992B4206B4207B4251B4278B4348B4391B4405B4378B4337B4348B4396B4351B4316
2979B4340B4393B4469B4433B4353B4403B4447B4450B4472B4498B4453B4444B4524
2966B4552B4533B4510B4505B4605B4741B4654B4567B4589B4635B4617B4587B4672
2953B4672B4654B4681B4662B4687B4730B4701B4629B4586B4629B4721B4776B4740
2940B4633B4648B4653B4611B4600B4544B4548B4593B4592B4644B4680B4688B4628
2927B4598B4597B4534B4523B4517B4433B4341B4264B4232B4224B4146B3971B3791
2914B3650B3595B3544B3463B3419B3414B3299B3199B3181B3181B3209B3317B3328
2901B3318B3420B3480B3442B3423B3529B3603B3680B3707B3709B3732B3761B3769
2888B3806B3846B3892B3907B3957B3937B3865B3875B3939B3977B4028B4091B4053
2875B3994B4045B4145B4230B4214B4156B4211B4271B4257B4297B4372B4378B4350
2862B4408B4443B4375B4329B4348B4397B4435B4442B4448B4452B4399B4389B4410
2849B4461B4423B4328B4358B4421B4413B4433B4461B4457B4475B4559B4529B4469
2836B4514B4540B4505B4479B4497B4529B4523B4548B4589B4560B4549B4560B4594
2823B4601B4575B4550B4528B4538B4516B4525B4545B4550B4556B4502B4487B4504
2810B4484B4453B4493B4474B4436B4480B4557B4598B4582B4528B4489B4533B4549
2797B4519B4478B4459B4470B4479B4485B4492B4501B4488B4465B4455B4442B4418
2784B4366B4379B4398B4340B4279B4283B4278B4229B4188B4148B4021B3941B3880
2771B3773B3714B3661B3559B3496B3553B3647B3675B3739B3756B3806B3889B4011
2758B4097B4120B4166B4262B4329B4338B4342B4407B4488B4512B4496B4510B4534
2745B4562B4540B4530B4578B4632B4659B4700B4643B4601B4657B4683B4697B4668
2732B4640B4693B4720B4716B4704B4692B4682B4648B4646B4672B4698B4665B4660
2719B4670B4668B4703B4706B4624B4580B4572B4583B4567B4538B4570B4558B4535
2706B4525B4451B4425B4443B4419B4415B4444B4451B4416B4378B4318B4319B4326
2693B4304B4329B4342B4355B4416B4511B4494B4433B4427B4534B4600B4573B4558
2680B4558B4578B4603B4649B4666B4601B4620B4670B4646B4643B4696B4755B4703
2667B4619B4638B4637B4608B4629B4668B4658B4598B4607B4611B4613B4615B4616
2654B4632B4636B4639B4667B4669B4687B4703B4719B4722B4712B4678B4644B4681
2641B4713B4689B4649B4648B4640B4635B4655B4639B4669B4677B4669B4666B4674
2628B4705B4731B4709B4667B4651B4669B4641B4629B4606B4594B4618B4625B4598
2615B4630B4667B4640B4637B4635B4646B4641B4636B4679B4695B4711B4672B4641
2602B4664B4670B4651B4644B4651B4662B4669B4611B4563B4596B4593B4561B4543
2589B4590B4580B4579B4625B4611B4600B4586B4576B4627B4615B4559B4557B4561
2576B4557B4529B4527B4538B4527B4510B4458B4427B4434B4442B4468B4445B4385
2563B4381B4453B4482B4455B4456B4451B4451B4504B4489B4501B4545B4548B4582
2550B4591B4566B4555B4558B4582B4620B4600B4648B4689B4659B4640B4633B4609
2537B4590B4575B4583B4605B4661B4635B4602B4609B4618B4634B4647B4635B4589
2524B4613B4629B4613B4631B4587B4546B4556B4559B4573B4588B4593B4581B4603
2511B4619B4603B4592B4592B4620B4553B4509B4545B4541B4527B4497B4472B4464
2498B4458B4457B4493B4515B4497B4501B4519B4495B4478B4545B4614B4557B4532
2485B4578B4609B4589B4553B4563B4561B4557B4619B4603B4559B4548B4551B4571
2472B4624B4657B4654B4607B4618B4633B4630B4617B4556B4538B4527B4523B4566
2459B4577B4598B4549B4548B4655B4686B4625B4522B4515B4545B4529B4541B4605
2446B4623B4564B4526B4528B4514B4505B4544B4594B4581B4536B4467B4525B4582
2433B4593B4526B4441B4465B4580B4611B4545B4527B4509B4558B4618B4581B4495
2420B4505B4561B4483B4472B4540B4591B4573B4520B4515B4614B4716B4692B4650
2407B4642B4672B4679B4637B4576B4544B4580B4571B4541B4585B4637B4650B4685
2394B4705B4620B4638B4728B4706B4632B4670B4707B4689B4702B4760B4645B4598
2381B4640B4615B4613B4591B4618B4641B4634B4640B4667B4749B4683B4592B4615
2368B4670B4659B4598B4586B4621B4599B4561B4546B4569B4631B4670B4661B4631
2355B4634B4629B4625B4550B4501B4561B4589B4558B4530B4491B4513B4575B4609
2342B4553B4533B4592B4614B4579B4576B4657B4688B4712B4719B4705B4616B4519
2329B4656B4806B4787B4629B4582B4665B4670B4656B4697B4659B4598B4587B4608
2316B4657B4663B4632B4638B4527B4574B4735B4708B4680B4625B4583B4562B4596
2303B4639B4599B4627B4739B4764B4694B4622B4589B4589B4644B4643B4590B4604
2290B4606B4592B4633B4644B4611B4622B4612B4514B4475B4479B4529B4625B4689
2277B4714B4629B4618B4641B4638B4611B4638B4577B4575B4596B4575B4678B4697
2264B4697B4645B4593B4655B4613B4594B4613B4590B4594B4651B4692B4572B4514
2251B4553B4630B4653B4657B4646B4589B4614B4562B4561B4625B4618B4666B4674
2238B4682B4704B4671B4661B4588B4610B4692B4678B4633B4688B4708B4695B4657
2225B4664B4646B4655B4663B4659B4665B4662B4660B4657B4655B4616B4597B4611
2212B4661B4755B4695B4584B4590B4662B4607B4543B4729B4828B4660B4564B4689
2199B4879B4979B4891B4724B4577B4540B4630B4685B4736B4767B4753B4673B4612
2186B4683B4575B4538B4635B4497B4427B4380B4373B4374B4370B4337B4423B4581
2173B4606B4502B4475B4483B4431B4443B4519B4441B4396B4446B4423B4351B4464
2160B4461B4459B4450B4419B4435B4484B4420B4376B4272B4440B4561B4559B4542
2147B4585B4519B4574B4633B4580B4523B4478B4480B4528B4595B4530B4498B4434
2134B4369B4272B4351B4484B4543B4517B4524B4461B4486B4599B4526B4379B4422
2121B4550B4572B4584B4513B4541B4611B4642B4649B4622B4689B4725B4609B4499
2108B4499B4666B4807B4749B4474B4567B4825B4860B4618B4608B4788B4887B4791
2095B4738B4681B4643B4786B4932B4818B4736B4746B4824B4846B4627B4614B4888
2082B4811B4690B4633B4710B4881B4923B4817B4725B4796B4875B4811B4700B4815
2069B4907B4721B4530B4494B4766B4867B4755B4804B4890B4714B4729B4806B4785
2056B4943B5010B4805B4843B4836B4718B4760B4754B4632B4522B4527B4647B4853
2043B4865B5046B4854B4597B4624B4492B4571B4583B4472B4412B4199B4451B4732
2030B4826B4872B4852B4749B4505B4564B4603B4732B4953B4977B4710B4583B4552
2017B4679B4797B4932B4835B4729B4662B4701B4866B5203B5027B4798B4821B4896
2004B4720B4904B5137B4952B4862B5129B5251B4767B4442B4626B4606B4486B4536
1991B4800B4833B4749B4568B4763B4992B4863B4545B4668B5382B5154B5155B4822
1978B4273B4525B5336B5664B5409B5007B4492B4152B4490B4817B5012B4837B4642
1965B4912B5375B4973B4442B4541B4518B4487B4635B4547B4314B4718B5038B5094
1952B5026B4797B4865B4803B4809B4956B4844B4706B4848B4931B4854B4874B4941
1939B4919B4811B4723B4514B4611B4722B4734B4752B4738B4700B4702B4537B4338
1926B4343B4511B4615B4610B4573B4666B4866B4781B4597B4602B4697B4736B4591
1913B4447B4569B4613B4861B4997B4760B4509B4404B4428B4523B4605B4701B4700
1900B4603B4593B4677B4581B4536B4559B4522B4695B4759B4770B4827B4748B4678
1887B4662B4552B4551B4547B4820B4916B4558B4368B4552B4738B4826B4774B4836
1874B4768B4637B4489B4267B4180B4361B4741B4925B4881B4708B4675B4871B5291
1861B5142B4611B4307B4597B5275B5222B4881B4739B5153B5386B4756B4787B5167
1848B4960B4779B4977B5200B5120B5160B5587B5742B4898B4894B5092B4985B5175
1835B4853B4338B4401B4692B4907B5328B5354B4933B4857B4913B4713B4707B4969
1822B4964B4954B5075B4916B4964B5352B5150B4909B4608B4584B5025B5026B4870
1809B4575B4731B5111B5140B5075B4800B4329B4421B4800B4490B4412B4769B4653
1796B4619B4965B5498B5315B4737B4594B4468B4539B4829B5150B4738B4483B4571
1783B4560B4740B5049B4842B5064B5071B5207B4824B4815B5289B5189B4896B4713
1770B4650B4862B5025B4979B4882B4783B4644B4623B4447B4327B4417B4372B4195
1757B4309B4464B4501B4471B4491B4447B4375B4324B4368B4412B4207B4023B3939
1744B4015B4163B4251B4203B4158B4156B4141B4090B4142B4132B4144B4145B4166
1731B4291B4276B4276B4313B4255B4234B4254B4358B4325B4337B4373B4365B4428
1718B4294B4278B4298B4277B4245B4230B4157B4191B4318B4388B4436B4393B4348
1705B4396B4483B4543B4548B4531B4573B4567B4530B4561B4552B4540B4630B4684
1692B4600B4620B4684B4686B4602B4530B4594B4555B4507B4527B4537B4577B4585
1679B4560B4545B4547B4524B4550B4583B4600B4579B4587B4639B4627B4556B4533
1666B4528B4557B4547B4569B4592B4583B4583B4525B4462B4437B4499B4571B4508
1653B4457B4492B4569B4541B4448B4416B4448B4503B4573B4556B4489B4466B4487
1640B4449B4412B4412B4424B4427B4410B4419B4479B4461B4390B4378B4399B4418
1627B4451B4470B4494B4505B4488B4489B4514B4536B4542B4532B4523B4518B4507
1614B4475B4518B4522B4476B4439B4461B4487B4510B4517B4538B4590B4588B4564
1601B4582B4592B4613B4627B4634B4634B4650B4659B4668B4657B4668B4661B4639
1588B4634B4668B4677B4648B4624B4594B4576B4569B4555B4541B4486B4428B4424
1575B4484B4502B4465B4431B4446B4474B4502B4480B4466B4439B4444B4456B4443
1562B4440B4425B4428B4448B4418B4400B4399B4423B4419B4401B4422B4453B4465
1549B4429B4404B4404B4394B4403B4420B4436B4439B4401B4433B4508B4540B4551
1536B4562B4569B4554B4572B4608B4588B4574B4571B4570B4590B4603B4585B4552
1523B4537B4537B4541B4539B4552B4571B4563B4525B4520B4521B4523B4521B4514
1510B4516B4514B4504B4499B4461B4422B4473B4494B4534B4584B4592B4613B4619
1497B4613B4618B4631B4634B4632B4634B4641B4638B4630B4610B4653B4670B4671
1484B4687B4690B4690B4688B4659B4652B4638B4633B4638B4657B4641B4608B4607
1471B4616B4633B4657B4662B4666B4641B4649B4654B4638B4640B4650B4632B4616
1458B4599B4591B4511B4492B4530B4574B4546B4499B4462B4486B4433B4405B4402
1445B4423B4396B4330B4277B4249B4180B4068B3947B3912B3892B3853B3779B3652
1432B3487B3357B3166B3004B2758B2506B2190B1662B1120B0560A9848A9057A8391
1419A7891A7564A7671A8027A8590A9171A9650A9986B0118B0128B0048A9848A9417
1406A9084A8658A8091A7380A6536A5759A4857A4050A3490A3253A3223A3343A3526
1393A3781A4042A4291A4571A4857A5115A5431A5732A6047A6368A6685A6993A7326
1380A7644A7935A8167A8375A8642A8849A8979A8949A8969A8969A8943A8730A8419
1367A8082A7511A6944A6573A6673A7076A7608A8242A8989A9553B0410B0834B1180
1354B1566B1944B2214B2461B2655B2922B3136B3314B3477B3510B3641B3774B3831
1341B3888B3947B4012B4170B4253B4283B4347B4389B4456B4485B4531B4609B4687
1328B4586B4582B4526B4486B4423B4327B4243B4148B3993B3833B3616B3426B3147
1315B2710B2221B1624B0798A9908A8395A6855A5451A4093A3262A2863A3006A3741
1302A4606A5537A6490A7555A8513A9304B0136B0781B1331B2061B2542B2895B3260
1289B3529B3717B3802B3792B3727B3559B3379B2990B2563B2030B1203B0196A9028
1276A7930A6730A5748A5003A4649A4754A5168A5731A6566A7325A7958A8521A9078
1263A9557A9951B0338B0674B0895B1133B1353B1601B1798B1973B2152B2357B2450
1250B2517B2584B2660B2704B2769B2736B2792B2841B2910B2949B3043B3104B3102
1237B3037B2979B2892B2744B2504B1872B0706A9460A7783A6194A5241A5040A5416
1224A6144A6910A7710A8477A9120A9652B0218B0691B1111B1440B1811B2208B2532
1211B2805B3011B3210B3385B3475B3550B3631B3769B3868B3972B4110B4219B4258
1198B4317B4386B4451B4548B4603B4596B4592B4535B4455B4347B4146B3990B3757
1185B3544B3381B3252B2996B2667B2121B1471B0928B0316A9693A9147A8590A8093
1172A7743A7580A7556A7595A7483A7174A6882A6933A7359A8075A8919A9840B0667
1159B1407B2099B2604B2975B3338B3626B3860B4073B4206B4315B4254B4320B4314
1146B4198B4145B3926B3482B2779B1809B0575A9149A7743A6637A6144A6266A6798
1133A7476A8247A9006A9669B0131B0480B0766B0962B1098B1219B1304B1333B1273
1120B1058B0847B0513B0096A9630A9347A9352A9664B0160B0746B1411B1975B2433
1107B2750B2966B3170B3312B3365B3385B3405B3443B3537B3677B3809B3918B3980
1094B4101B4228B4356B4461B4615B4648B4625B4605B4529B4403B4281B4115B3897
1081B3638B3278B2789B2246B1585B0930B0535B0534B0864B1257B1511B1609B1589
1068B1449B1167B0782B0444B0264B0209B0314B0579B0947B1340B1749B2086B2391
1055B2676B2908B3112B3292B3468B3571B3594B3549B3492B3389B3234B3121B3065
1042B3134B3180B3159B3141B3105B3010B2790B2315B1690B0981B0299A9895B0047
1029B0681B1469B2168B2722B3184B3516B3657B3795B3930B4077B4144B4136B4190
1016B4271B4319B4349B4361B4380B4387B4387B4372B4302B4169B4062B4002B3961
1003B3920B3921B3976B3999B3992B3968B3957B4015B4128B4264B4385B4490B4540
990B4582B4598B4634B4630B4620B4664B4702B4714B4715B4664B4626B4631B4639
977B4636B4624B4606B4586B4516B4419B4279B4101B3832B3473B3140B2987B2995
964B3128B3294B3527B3843B4054B4198B4302B4343B4374B4430B4517B4569B4577
951B4607B4641B4691B4670B4597B4550B4557B4553B4513B4500B4515B4454B4400
938B4305B4189B4101B3981B3823B3601B3387B3107B2754B2366B1852B1243B0604
925A9961A9487A9277A9206A9228A9416A9733B0124B0531B0864B1185B1501B1795
912B2055B2245B2452B2612B2801B3020B3159B3269B3405B3558B3665B3743B3866
899B3928B3991B4112B4216B4269B4338B4411B4427B4400B4460B4501B4541B4543
886B4467B4383B4322B4219B4062B3808B3581B3415B3242B3088B3011B2981B2979
873B2941B2916B2883B2718B2493B2203B1905B1639B1493B1526B1615B1737B1827
860B1929B2093B2302B2564B2880B3130B3368B3592B3728B3834B3987B4117B4186
847B4234B4299B4333B4384B4455B4504B4585B4628B4605B4628B4657B4629B4580
834B4566B4576B4554B4425B4319B4285B4230B4125B3996B3853B3678B3545B3455
821B3315B3125B3001B2989B2940B2826B2702B2630B2615B2639B2686B2766B2820
808B2957B3139B3274B3416B3576B3678B3785B3874B4007B4102B4154B4182B4268
795B4399B4442B4451B4500B4509B4469B4454B4473B4484B4476B4444B4407B4349
782B4265B4190B4170B4168B4140B4099B4151B4193B4244B4259B4269B4359B4424
769B4435B4511B4590B4609B4589B4548B4552B4547B4579B4633B4602B4612B4616
756B4599B4480B4233B3877B3390B3156B3381B3684B3931B4078B4104B4174B4273
743B4378B4431B4507B4580B4601B4642B4635B4535B4439B4403B4265B4038B3855
730B3830B3842B3868B4025B4253B4437B4497B4521B4502B4529B4614B4671B4652
717B4591B4596B4621B4626B4553B4529B4587B4612B4574B4554B4555B4532B4545
704B4586B4578B4545B4477B4436B4455B4445B4398B4361B4314B4266B4231B4206
691B4080B3931B3714B3477B3229B3144B3372B3746B4099B4357B4478B4615B4632
678B4610B4655B4663B4648B4649B4614B4581B4578B4595B4557B4591B4517B4349
665B4299B4250B4194B4165B4046B3874B3806B3829B3819B3857B3852B3849B3858
652B3747B3645B3557B3510B3503B3497B3563B3626B3544B3380B3252B3127B3103
639B3132B3178B3449B3819B4158B4375B4460B4556B4630B4628B4639B4638B4590
626B4606B4637B4586B4524B4452B4427B4450B4343B4229B4132B4045B3999B3826
613B3518B3200B2710B1867B0557A8671A6228A3678A1558I981I069H893I388A0478
599A2052A3877A5746A7376A8609A9615B0386B1007B1534B2003B2336B2509B2737
586B2928B3019B3104B3195B3291B3361B3359B3376B3462B3508B3569B3583B3606
573B3557B3379B3093B2489B1221A9205A7213A6181A6308A7136A8197A9318B0192
560B0706B1083B1428B1671B1815B1930B2056B2188B2154B2186B2295B2370B2417
547B2372B2347B2399B2447B2452B2380B2376B2388B2267B2120B2029B1942B1627
534B1246B0810B0134A9286A8319A7330A6526A6010A5939A6107A6368A6651A6689
521A6509A6116A5522A4827A4202A3719A3413A3401A3567A3864A4446A5259A6081
508A7011A8083A9225B0343B1181B2019B2866B3495B3970B4345B4562B4392B3742
495B2837B1801B0907B0130A9431A8895A8579A8306A8280A8336A8445A8611A8694
482A8863A9060A9144A9309A9557A9670A9789A9923B0035B0254B0448B0546B0668
469B0846B1024B1116B1218B1001B0446A9563A8788A8509A8707A9016A9326A9520
456A9756A9975B0179B0272B0392B0514B0658B0797B1023B1142B1093B1177B1362
443B1560B1626B1754B1953B2185B2362B2473B2441B2391B2811B2839B2702B2489
430B2350B2319B2347B2265B2198B2218B2192B2214B2303B2322B2369B2509B2622
417B2630B2626B2637B2693B2746B2787B2862B2848B2854B2937B3031B3111B3124
404B3108B3094B3104B3164B3271B3298B3187B3248B3379B3395B3446B3508B3516
391B3532B3564B3611B3638B3609B3486B3448B3539B3541B3545B3506B3599B3685
378B3656B3607B3649B3649B3628B3693B3728B3785B3769B3651B3732B3939B3933
365B3783B3773B3762B3708B3632B3500B3592B3709B3639B3765B3870B3822B3680
352B3655B3758B3796B3783B3856B3831B3795B3714B3438B3081B2811B2585B2556
339B2647B2718B2674B2601B2555B2764B3018B3008B2805B2730B2842B2813B2751
326B2623B2413B2250B2033B1816B1389B0744B0274B0372B0834B1289B1621B2028
313B2479B2755B2877B2944B2963B3070B3213B3382B3333B3176B3258B3585B3719
300B3706B3761B3954B3988B4140B4384B4657B4544B4214B3905B3583B3499B3408
287B3131B3119B2938B2687B2770B2705B2427B2020B1519B0850B0106A9248A9034
274A9485B0149B0569B1002B1337B1396B1189B1533B1875B1761B1685B1872B2132
261B2231B2369B2443B2682B2712B2437B2063B1859B1807B2007B2260B2505B2344
248B2213B2180B2234B2307B2564B2995B2815B2495B2257B2440B2557B2634B2549
235B2257B2501B2966B2958B2905B2681B2750B2882B2755B2735B2994B3377B3539
222B3266B2919B2871B3063B3167B3344B3545B3485B3609B3696B3562B3648B3707
209B3882B4146B4157B4040B3637B3383B3783B4160B4212B4073B4180B4533B4664
196B3806B2499B1237B0295B0106B0568B1343B1934B2464B2893B3117B3189B3335
183B3497B3547B3123B2126B0991B0531B0934B1401B1581B1987B2163B2256B2529
170B2465B2470B3129B3547B3613B3821B3586B3364B3349B2975B2900B3471B3827
157B3762B3760B3866B3939B4205B4098B3801B4149B4387B4384B4864B4927B4188
144B3644B3845B4604B4860B4244B3222B3270B3361B2687B1753B0687A9956A9899
131A9555A8914A8846A9380A9554A9341A9985B0256A9933A9588A9125A9085A8748
118A8180A8115A7703A7186A7340A7883A8083A8065A7443A6758A8752A9737A9822
105A9107A8185A8653A9135A9027A9527A9888A9486A9930B0379B0647B0916B1292
92B1128B0756B0172B0754B1456B2048B2132B2042B1422A9655A9211B2171B1429
79A9774B1945B2268B2204B2370B1173B1838B2251B0319B0013A9481B0729B3065
66B3089B2707B2482B2496B2776B2151B1095B1342B2622B4036B2856B3617B2773
53B2498B3083B3393B2468B2022B3581B4234B2157B1281B0925B0269B2714B4250
40B6243B5320B3803B4524B6609B9387B7623B5066B6681C2000B9539B3891B2281
27B3512B4471B4268B3250B2074B3996B5554B4561B6713B5885B3724B2620B2645
14B0742A9560B0548B3540B5268B5625B2722B1800B0049A7852B2839B4328B4918
1B2772
$$ === CHEMSPECTRA INTEGRALS AND MULTIPLETS ===
##$OBSERVEDINTEGRALS= (X Y Z)
(7.076249327996464, 7.140811726479713, 1.0, 0)
(6.868586735314065, 6.937479538573627, 0.9868562194647121, 0)
##$OBSERVEDMULTIPLETS=
(1, 7.083021717620425, 7.137781879609847, 7.111202682395324, 0.8495751269458116, 1, dd, A, 1.27551 8.09094)
(2, 6.869168874482794, 6.936033914385664, 6.903963665348797, 0.9465345365540978, 2, dd, B, 1.30469 7.47021)
(3, 7.919987561921885, 7.976476992184657, 7.948720952176592, 0.8659021107909568, 3, d, C, 8.42383)
(4, 4.830342407846815, 5.226565473223699, 5.014066272590045, 2.0, 4, s, D)
(5, 2.693348375350497, 2.7469437658362588, 2.716741746953181, 2.703908382085738, 5, s, E)
(6, 7.221705813275128, 7.288130529440905, 7.251766129441053, 2.1374991135097696, 6, m, F)
##$OBSERVEDMULTIPLETSPEAKS=
(1, 7.122884357317957, 2896.6030114371542)
(1, 7.119733025506639, 3123.3779377287956)
(1, 7.1027076438402, 2252.71540434442)
(1, 7.099485702916501, 2396.0887232584914)
(2, 6.914924676725386, 3239.990974399485)
(2, 6.911664239937396, 3311.1703077705215)
(2, 6.8962618851956226, 2989.441615556063)
(2, 6.893003859536779, 2954.2822704034393)
(3, 7.9592430708585615, 4777.6065597958595)
(3, 7.938198833494621, 5166.324940557981)
(4, 5.014066272590045, 964.1270573263843)
(5, 2.716741746953181, 33227.654695148565)
(6, 7.282614951522712, 2425.5031441181486)
(6, 7.250849827795063, 5982.396939435399)
(6, 7.243824848509142, 3644.133527785633)
(6, 7.229774889937297, 5500.82664153829)
$$ === CHEMSPECTRA SIMULATION ===
##$CSSIMULATIONPEAKS=
##END=


$$ === CHEMSPECTRA PEAK TABLE EDIT ===
##TITLE=2-Me-8-NH2-qu
##JCAMP-DX=5.00
##DATA TYPE=INFRAREDPEAKTABLE
##DATA CLASS=PEAKTABLE
##$CSCATEGORY=EDIT_PEAK
##$CSTHRESHOLD=0.93
##MAXX=4000.433
##MAXY=129.95166309925588
##MINX=249.7859
##MINY=36.11437937317758
##$CSSOLVENTNAME=- - -
##$CSSOLVENTVALUE=0
##$CSSOLVENTX=0
##NPOINTS=40
##PEAKTABLE= (XY..XY)
403.1294044741576, 92.99665890540498
420.4890464901, 83.3761748465882
433.9909902802774, 81.65025432105121
492.8208882231934, 88.55799741267103
514.0382284649008, 77.29687360722613
556.4729089483158, 82.3325005523223
576.7258246335819, 91.59967852708799
657.7374873746462, 90.12147835933395
693.4211959629724, 75.16485413450397
718.4962344304445, 74.23488754544992
744.5356974543583, 54.42131991228525
756.108792131653, 64.72811119184499
794.6857743893029, 65.71087064403311
829.4050584211877, 36.11437937317758
866.0531915659549, 93.82103976819089
910.4167211622525, 93.98754033653681
973.1043173309331, 94.03627221019903
1032.8986398302904, 91.83927690592724
1083.048716765235, 87.28284671850957
1138.020916482386, 77.99536379638464
1180.4555969658009, 93.34996498945608
1243.1431931344819, 80.79338554249048
1274.0047789406017, 82.06853623665194
1284.6134490614554, 83.38835781500376
1324.1548558755462, 78.56796331191573
1344.4077715608123, 65.5606140335746
1373.3405082540498, 68.55762426380117
1431.2059816405244, 61.077281656650264
1475.5695112368217, 59.489434773156226
1507.3955215993828, 52.23650757642901
1564.296570429416, 67.30277851699898
1572.9763914373875, 76.95168950211874
1595.158156235536, 53.69846378629564
1616.3754964772434, 71.32721908360406
2917.384223116339, 95.41700863062863
3051.439236461815, 94.13779694699532
3271.328035330419, 93.53270951568942
3341.73102795063, 87.29909067639699
3386.0945575469273, 91.26667739039614
3469.0350694008744, 83.38023583606005
##END=


$$ === CHEMSPECTRA PEAK TABLE AUTO ===
##TITLE=2-Me-8-NH2-qu
##JCAMP-DX=5.00
##DATA TYPE=INFRAREDPEAKTABLE
##DATA CLASS=PEAKTABLE
##$CSCATEGORY=AUTO_PEAK
##$CSTHRESHOLD=0.93
##MAXX=4000.433
##MAXY=129.95166309925588
##MINX=249.7859
##MINY=36.11437937317758
##NPOINTS=100
##PEAKTABLE= (XY..XY)
632.6624489071737, 94.16216288382644
3051.439236461815, 94.13779694699532
542.006540601697, 94.11749199963607
3276.1501581126254, 94.10937002069237
973.1043173309331, 94.03627221019903
910.4167211622525, 93.98754033653681
3257.8260915402416, 93.97535736812125
3263.612638878889, 93.91444252604349
3260.7193652095652, 93.87383263132496
866.0531915659549, 93.82103976819089
3366.806066418102, 93.79667383135978
637.4845716893801, 93.78449086294422
1254.7162878117765, 93.66672216826052
3271.328035330419, 93.53270951568942
1180.4555969658009, 93.34996498945608
403.1294044741576, 92.99665890540498
460.9948778606322, 92.87889021072128
302.82925060426805, 92.81797536864352
644.2355435844688, 92.7854874528687
3401.525350449987, 92.72457261079091
1449.5300482129082, 92.3306566320213
466.78142519927997, 92.32659564254945
3361.0195190794548, 92.31035168466204
567.0815790691695, 92.30629069519019
522.7180494728718, 92.13166814790057
470.639123425045, 92.10730221106945
650.0220909231161, 91.8839477901176
264.2522683466186, 91.8595818532865
1032.8986398302904, 91.83927690592724
3383.2012838776036, 91.65247139022206
576.7258246335819, 91.59967852708799
571.9037018513754, 91.59561753761614
3390.9166803291337, 91.49003181134799
299.9359769349444, 91.36414113772058
310.5446470557981, 91.29916530617096
3386.0945575469273, 91.26667739039614
412.77365003856994, 91.23012848514948
668.3461574954999, 90.92961526423245
770.5751604782718, 90.86870042215467
775.3972832604782, 90.75093172747097
662.5596101568526, 90.63722402225912
275.82536302391327, 90.48290642232875
480.28336898945736, 90.38544267500431
475.46124620725095, 90.38544267500431
322.1177417330932, 90.17021023299617
659.666336487529, 90.14584429616507
657.7374873746462, 90.12147835933395
487.03434088454605, 90.07274648567173
781.1838305991255, 89.96716075940358
271.0032402417073, 89.64228160165544
296.07827870917936, 89.43111014911915
492.8208882231934, 88.55799741267103
503.4295583440471, 88.06255669710511
3345.588726176395, 87.34376156058735
3341.73102795063, 87.29909067639699
1083.048716765235, 87.28284671850957
507.28725656981214, 86.04830591906665
320.1888926202105, 85.98333008751702
306.6869488300331, 85.66657290871258
678.9548276163537, 85.65845092976888
1284.6134490614554, 83.38835781500376
3469.0350694008744, 83.38023583606005
420.4890464901, 83.3761748465882
556.4729089483158, 82.3325005523223
290.29173137053203, 82.31219560496304
1274.0047789406017, 82.06853623665194
335.6196855232706, 81.91827962619342
433.9909902802774, 81.65025432105121
1243.1431931344819, 80.79338554249048
325.0110154024169, 80.30200581639643
261.35899467729496, 79.43295406942015
343.3350819748007, 79.13244084850312
315.36676983800453, 79.11213590114387
1324.1548558755462, 78.56796331191573
370.3389695551555, 78.54359737508462
327.90428907174055, 78.0156687437439
1138.020916482386, 77.99536379638464
514.0382284649008, 77.29687360722613
346.22835564412435, 77.26844668092318
1572.9763914373875, 76.95168950211874
373.23224322447913, 76.53340758651801
693.4211959629724, 75.16485413450397
718.4962344304445, 74.23488754544992
349.121629313448, 73.849093545624
253.6435982257649, 72.49678405149737
1616.3754964772434, 71.32721908360406
1377.1982064798149, 71.29473116782926
359.73029943430174, 69.79216506324411
1373.3405082540498, 68.55762426380117
353.9437520956544, 68.05406156929156
1564.296570429416, 67.30277851699898
794.6857743893029, 65.71087064403311
1344.4077715608123, 65.5606140335746
756.108792131653, 64.72811119184499
1431.2059816405244, 61.077281656650264
1475.5695112368217, 59.489434773156226
744.5356974543583, 54.42131991228525
1595.158156235536, 53.69846378629564
1507.3955215993828, 52.23650757642901
829.4050584211877, 36.11437937317758
##END=

##END=

