##TITLE=S. Graessle SG-V2453 9-24
##JCAMP-DX=4.24
##DATA TYPE=INFRARED SPECTRUM
##DATE=4/7/2016
##SAMPLING PROCEDURE=ATR platinum Diamond 1 Refl
##ORIGIN=Angelika Moesle
##XUNITS=1/CM
##YUNITS=TRANSMITTANCE
##RESOLUTION=4
##FIRSTX=3997.4121
##LASTX=373.82813
##DELTAX=-1.4160156
##MAXY=1.0029023
##MINY=0.51256394
##XFACTOR=1
##YFACTOR=9.3402552e-010
##NPOINTS=2560
##FIRSTY=0.99946773
##XYDATA=(X++(Y..Y))
3997+1070064687+1070034375+1070330093+1070743676+1070825487+1070348854
3989+1069674460+1069394057+1069608347+1069951862+1070222054+1070471570
3980+1070577886+1070289187+1069704261+1069226416+1069002235+1068810918
3972+1068577228+1068599627+1069091639+1069824297+1070403990+1070634553
3963+1070479930+1069985174+1069353982+1068823426+1068387634+1067912788
3955+1067461554+1067241840+1067302272+1067459448+1067465000+1067209549
3946+1066894049+1066902090+1067356643+1067930784+1068166069+1067953885
3938+1067535643+1067118230+1066796412+1066687608+1066884732+1067328500
3929+1067897026+1068525219+1068996427+1068876647+1067997215+1066867630
3921+1066108872+1065716028+1065495548+1065611372+1066050609+1066242053
3912+1065982136+1065794967+1066008045+1066251179+1066036825+1065227590
3904+1063898008+1062543795+1062311828+1063717859+1065612903+1066540515
3895+1066312505+1065601480+1064979350+1064807114+1065170539+1065539772
3887+1065212785+1064043634+1062695355+1062302702+1063147802+1064396338
3878+1065113616+1065184706+1065171177+1065241374+1064969905+1064061183
3870+1062941680+1062267094+1062037552+1061789759+1061550071+1061832579
3861+1062820049+1063968332+1064742278+1065031359+1064851848+1064254988
3853+1063635985+1063717285+1064278217+1064577189+1064584209+1064414589
3844+1064069351+1063686399+1063553281+1063691248+1063733302+1063334779
3836+1062526948+1061739473+1061378409+1061450073+1061627095+1061551985
3827+1061078862+1060344226+1059805311+1059981567+1060988373+1062396510
3819+1063286152+1063138995+1062367092+1061534117+1061018366+1060886205
3810+1060961252+1061021748+1060873825+1060546583+1060350353+1060288006
3802+1059796887+1058377901+1056501427+1055432338+1055758623+1057239318
3794+1059033790+1060173969+1060342312+1059802056+1059022622+1058448672
3785+1058259461+1058255058+1058072228+1057582450+1057049405+1056963957
3777+1057516721+1058228256+1058490088+1058126918+1057446907+1057114305
3768+1057677662+1058771639+1059316425+1058736987+1057558902+1056710995
3760+1056556755+1056789870+1056905503+1056743987+1056429699+1056036728
3751+1055613062+1055379563+1055645862+1056389113+1057242062+1057632608
3743+1057184054+1056616485+1056742583+1057317555+1057592086+1056849920
3734+1055068019+1053473096+1053300988+1054399177+1055840817+1056866448
3726+1057317427+1057630630+1058086012+1058214025+1057657368+1056904992
3717+1056381583+1055704189+1054490559+1053201181+1052832268+1053718528
3709+1054725653+1054983210+1055028646+1055440379+1056090013+1056500534
3700+1056486878+1056317258+1056109987+1055715165+1055207901+1054858515
3692+1054616530+1054025413+1052851349+1051811232+1051778686+1052450081
3683+1053111330+1053453058+1053515086+1053463907+1053494602+1053806720
3675+1054387754+1054725781+1054482455+1053811379+1052958239+1052410389
3666+1052552440+1053100801+1053612595+1054024967+1054554502+1055218750
3658+1055689512+1055680386+1055293349+1054887934+1054580092+1054143215
3649+1053257721+1051930757+1050993190+1051061408+1051686155+1052138155
3641+1052021310+1051548315+1051257255+1051285653+1051239515+1050743738
3632+1049881791+1049117162+1048930951+1049473313+1050218797+1050626829
3624+1050758862+1050711958+1050400542+1049667437+1048495479+1047416179
3615+1047237753+1048132883+1049450850+1050355169+1050683879+1050651972
3607+1050085424+1048980854+1048061091+1047834868+1047935121+1047673034
3598+1047039161+1046851163+1047715279+1049088318+1049575608+1048560953
3590+1046916701+1045797708+1045597138+1045922594+1046441983+1047207250
3581+1048015081+1048298482+1047700665+1046572994+1045693052+1045501033
3573+1045736255+1045810790+1045446663+1044874181+1044551852+1044715473
3564+1045130014+1045514881+1045836827+1046031271+1045988068+1045845697
3556+1045909767+1046179640+1046237201+1045735361+1044874117+1044174643
3547+1043903749+1043926021+1043913321+1043694309+1043413269+1043226547
3539+1043158201+1043357750+1044088748+1045221078+1046146392+1046418626
3530+1046051053+1045278703+1044443878+1043912492+1043768526+1043766930
3522+1043650404+1043367833+1043063691+1042910089+1042859931+1042644300
3513+1042124912+1041449879+1040785886+1040157948+1039613162+1039296385
3505+1039289684+1039530713+1039879907+1040143654+1040069118+1039526565
3496+1038804564+1038476110+1038748152+1039192303+1039309595+1039023002
3488+1038590912+1038379239+1038669851+1039480108+1040533435+1041369855
3479+1041584145+1041223336+1040816198+1040798649+1041026021+1041027489
3471+1040682570+1040372302+1040425396+1040650918+1040567767+1039976140
3462+1039078585+1038145421+1037351757+1036848832+1036690699+1036686169
3454+1036566899+1036361734+1036411829+1036835495+1037203451+1037084692
3445+1036753366+1036777615+1037019026+1036819988+1036112474+1035706229
3437+1036286177+1037494447+1038273370+1038000434+1036997138+1035933409
3428+1035108858+1034473518+1033994780+1033756431+1033837029+1034195030
3420+1034629290+1034924306+1035047277+1035057998+1034869234+1034327382
3411+1033543737+1032960470+1032973998+1033532441+1034197775+1034581876
3403+1034618825+1034453672+1034307281+1034406066+1034689212+1034624185
3394+1033756431+1032393092+1031311049+1030915078+1031042069+1031418959
3386+1031878809+1032225770+1032272418+1032077975+1031911099+1031826162
3377+1031515766+1030840989+1030245150+1030251978+1030757966+1031170592
3369+1031067468+1030526190+1029990338+1029880066+1030215795+1030656181
3360+1030873662+1030792107+1030613425+1030694406+1031185270+1031817929
3352+1032258571+1032462842+1032471584+1032210965+1031723803+1031261528
3343+1030964853+1030710488+1030421151+1030290267+1030507939+1030908313
3335+1031132622+1031043537+1030757328+1030403538+1030094483+1030002909
3326+1030238577+1030671305+1030943475+1030709530+1029965195+1029103759
3318+1028535743+1028339704+1028337471+1028360955+1028424259+1028728017
3309+1029366739+1029979234+1029997740+1029336427+1028440978+1027644570
3301+1026952179+1026472101+1026447468+1026693538+1026601198+1025988193
3292+1025453616+1025622598+1026414603+1027248727+1027656631+1027534808
3284+1027053453+1026519132+1026195910+1026084745+1025926675+1025563825
3275+1025202314+1025139392+1025410924+1025916210+1026595901+1027245217
3267+1027484395+1027134945+1026409945+1025697453+1025305375+1025305694
3258+1025510412+1025733636+1026022015+1026506752+1027183316+1027869708
3250+1028172127+1027696643+1026604325+1025668162+1025433579+1025637275
3241+1025747611+1025683541+1025622853+1025461402+1024952734+1024273298
3233+1023986195+1024355491+1025056752+1025658015+1026026354+1026185253
3224+1026193868+1026250599+1026502285+1026751290+1026728062+1026532533
3216+1026393545+1026264256+1026092275+1026118184+1026487225+1026918804
3207+1027056133+1026823337+1026315371+1025700707+1025266767+1025209972
3199+1025371870+1025373593+1024974304+1024226522+1023411990+1022893686
3190+1022909895+1023375105+1023877965+1024003872+1023721492+1023385953
3182+1023340134+1023657039+1024214652+1024779477+1025033715+1024782795
3173+1024168897+1023578163+1023317735+1023347601+1023312311+1022942568
3165+1022397143+1022039653+1021965564+1021994855+1022020636+1022099064
3156+1022247306+1022328415+1022157327+1021699137+1021180067+1020926978
3148+1021034378+1021278278+1021421543+1021445537+1021369023+1021018935
3139+1020267707+1019439966+1019113106+1019405506+1019809645+1019871609
3131+1019663126+1019383490+1018961482+1018398381+1018084603+1018310891
3122+1018703096+1018642217+1018118744+1017684229+1017638219+1017778675
3114+1017933554+1018200874+1018569851+1018747767+1018548218+1018217530
3105+1018209936+1018633666+1019006025+1018757530+1017928002+1017056675
3097+1016473280+1016165692+1016150951+1016375260+1016452604+1016063653
3088+1015417911+1014874719+1014385834+1013722735+1012987843+1012528377
3080+1012539991+1013019049+1013839260+1014610526+1014767064+1014154952
3071+1013282668+1012730925+1012624929+1012867872+1013404873+1013989417
3063+1014147358+1013676979+1012901311+1012257611+1011857747+1011563625
3054+1011339061+1011317108+1011516976+1011730437+1011789019+1011766811
3046+1011872935+1012267119+1012968827+1013800972+1014463561+1014737837
3037+1014615950+1014255907+1013828859+1013399513+1012975017+1012595255
3029+1012223917+1011717929+1011137470+1010837157+1010991908+1011332041
3020+1011577983+1011827052+1012308280+1012974634+1013506849+1013639010
3012+1013427591+1013196199+1013197794+1013337102+1013264800+1012765449
3003+1011980655+1011204092+1010583876+1010132642+1009834691+1009571582
2995+1009068594+1008003206+1006143835+1003493798+1000260175+996426501+991441991
2985+984644886+975930147+966016072+956424007+948955188+944430081+941911757
2975+939648694+936709257+933606518+931879306+933226692+938282483+945805098
2965+953477168+959692601+964324406+967944938+970966569+973620051+976080367
2955+978249751+979810980+980737953+981386439+981947180+982220307+981991914
2945+981184083+979587947+976948376+973367600+969234188+964790126+960169233
2935+955800217+952409546+950608054+950605566+952151734+954604009+957198910
2925+959375186+960863538+961637867+961908506+962016033+962192354+962472756
2916+962799488+963068658+963139046+962938285+962520106+961942710+961142026
2906+959978363+958419751+956720746+955394355+954843187+954993343+955508456
2896+956365361+957914848+960274209+962959854+965280734+966940366+968141743
2886+969220149+970263266+971055590+971335290+971035169+970210619+968762980
2876+966433485+963265719+959994828+957712555+957094190+958092317+960250789
2866+963023924+965882316+968435738+970474876+971814029+972322250+972209617
2856+971988435+972035147+972425949+973161542+974195788+975289064+976216356
2846+977085833+978143818+979365999+980525833+981542786+982505495+983457229
2836+984362314+985206074+986000185+986669155+987018286+986923840+986562840
2826+986301646+986302667+986400942+986383584+986240703+986121114+986168273
2816+986400304+986682684+986823268+986724993+986493346+986433296+986850900
2807+987747689+988739499+989336358+989273309+988612826+987674175+986877638
2797+986496090+986476243+986561947+986595513+986613126+986656584+986650649
2787+986546631+986490091+986718420+987275970+987898930+988230767+988128536
2777+987716101+987219749+986871831+986893911+987361737+988086099+988762472
2767+989231766+989524102+989695827+989697295+989437760+988974975+988555010
2757+988381817+988430507+988565221+988711037+988832987+988877211+988804973
2747+988607466+988285456+987848134+987302071+986658371+986006439+985507088
2737+985239959+985148130+985175634+985353486+985681430+986004652+986107075
2727+985965087+985846838+986045174+986497494+986781661+986536740+985824056
2717+985080741+984775451+985052535+985623422+986051428+986167380+986114477
2707+986037070+985954876+985941475+986172549+986707763+987325618+987631100
2698+987391858+986824353+986405473+986339105+986435274+986527168+986656520
2688+986825438+986894294+986712996+986177973+985328662+984505196+984144834
2678+984360719+984917056+985539825+986040707+986285820+986252445+986066106
2668+985911865+985913844+986056470+986207583+986266356+986265335+986269164
2658+986230812+986039686+985712955+985430702+985297584+985153171+984787002
2648+984280312+983932139+983865070+983872983+983665010+983165979+982584562
2638+982219860+982220945+982525661+982947030+983260935+983309307+983126988
2628+982925205+982891575+983041604+983248938+983382438+983424620+983463611
2618+983584157+983805403+984116372+984503218+984913866+985214114+985217050
2608+984827461+984165127+983480203+982976576+982804978+983097378+983762519
2598+984354529+984458100+984144706+983747268+983348617+982894064+982585264
2588+982670265+983003953+983238025+983270380+983213776+983223859+983553015
2579+984396774+985553673+986522828+986957215+986876298+986578730+986431892
2569+986531188+986599214+986425957+986205222+986153340+986084931+985713146
2559+985112330+984543293+984049303+983563417+983234197+983279888+983597749
2549+983820527+983783195+983735908+983990976+984478138+984817250+984807997
2539+984585475+984266465+983834247+983466993+983479054+983788428+983966790
2529+983957856+984196715+984854965+985457249+985463694+984937860+984460972
2519+984500091+984972129+985458014+985769048+986067382+986393731+986463289
2509+986171911+985916332+986031327+986227876+985996675+985320621+984573414
2499+983977575+983581987+983507643+983761562+984064618+984252234+984528552
2489+984962684+985134601+984666775+983778473+983006633+982650483+982671861
2479+982912315+983243514+983536232+983573564+983189654+982527193+981924909
2470+981525811+981303161+981360786+981790004+982332238+982601218+982539190
2460+982358530+982193505+982032500+981826698+981573225+981416241+981580181
2450+982023821+982376207+982428790+982435108+982698408+983150854+983572670
2440+983948093+984336214+984577243+984412601+983887852+983410900+983300819
2430+983434511+983482628+983339236+983139623+982971918+982758011+982371293
2420+981799321+981211523+980855181+980824295+980977386+981103931+981154281
2410+981272019+981580883+981979023+982236261+982280165+982256235+982292290
2400+982362550+982409135+982430513+982399882+982241940+981963261+981706088
2390+981605707+981653887+981724083+981683497+981518983+981387077+981479098
2380+981798428+982131668+982255724+982136327+981949541+981936395+982167022
2370+982463697+982655843+982778048+982852776+982745567+982489159+982423174
2360+982656162+982762541+982460315+982133328+982100144+981966133+981368061
2351+980677521+980325710+980175490+979896747+979495735+979273595+979309076
2341+979394205+979497904+979750419+980039628+979989789+979317053+978095128
2331+976739446+975728237+975185364+974806560+974344924+974028849+974309251
2321+975226972+976220313+976651190+976367151+975734236+975273557+975216315
2311+975337627+975291233+975062712+974931828+975065074+975387530+975852484
2301+976518775+977247859+977686075+977768268+977870244+978204123+978480058
2291+978436728+978259004+978185936+978146562+978040183+977988621+978117463
2281+978360087+978523452+978391228+977934889+977582248+977915999+978966136
2271+980227499+981352681+982240345+982550038+981883620+980510198+979292485
2261+978796899+978870796+979097722+979342707+979728276+980307140+981066855
2251+982079915+983200502+983787662+983374908+982492413+982152536+982546465
2242+982840204+982348639+981456316+981125692+981677562+982463761+982796491
2232+982722402+982633891+982606323+982547932+982687431+983356657+984304307
2222+984704553+984075467+982926737+982312775+982939181+984629635+986318366
2212+986773429+985809123+984544506+984170423+984777494+985500770+985499111
2202+984748394+983954219+983606109+983406305+983053792+983060174+983942158
2192+984990890+984876981+983386076+981642209+980686072+980715235+981521408
2182+982641804+983305861+983263105+983336938+984280249+985570009+986043388
2172+985303710+984008589+983104908+982922972+983082764+983418175+984418918
2162+986266995+988303069+990017198+991401724+992072673+991688125+990924071
2152+990655985+990794973+990585597+989733223+988726927+987932880+986964554
2142+985490113+984057918+983354360+983210202+983052005+982794832+982721955
2133+982866751+982850095+982239962+981124224+980177404+979910850+980171406
2123+980548551+980755183+980543637+979884558+979239646+979079790+979267661
2113+979405437+979527451+979917168+980541340+981260341+982299055+983749948
2103+984826822+984501686+982833567+980935077+979757439+979440343+979594967
2093+979786794+979847035+979852715+979881559+980017421+980417093+980986384
2083+981243303+980880260+980107782+979243602+978510179+978317714+979057136
2073+980494564+981880876+982616852+982506006+981716553+980914657+980999913
2063+982130265+983254107+983100122+981434300+979256493+977996661+978346111
2053+979604028+980484417+980708981+981208013+982617746+984303860+985379458
2043+986020287+987141704+989111028+991019155+991433057+990093393+988461904
2033+988027198+988499172+988607849+988081632+987502768+987068955+986974828
2023+988103521+990706845+993102197+993161417+990621205+987184843+984965364
2014+985087761+987119624+989407193+990315405+989458117+987681322+986085442
2004+985441295+986020159+987240553+987969382+987847304+987845581+988843708
1994+990225809+990639265+989770746+988589343+987829691+987290392+986755688
1984+986505343+986602469+986538846+986181738+986366227+987545715+988500512
1974+988047108+987295753+988276076+990862936+992675148+992166162+990704101
1964+990496703+991480153+991827816+990649029+988944791+988003778+987970786
1954+988250103+988420233+988414937+988294199+988062870+987565434+986657605
1944+985658712+985329236+985968533+986842094+987105712+986704254+986082251
1934+985662796+985703638+986199096+986741202+986849815+986591876+986494686
1924+986746435+986919437+986734566+986622252+986948154+987135450+986251679
1914+984366845+982502177+981554974+981758224+982723104+983887979+985010418
1905+986030242+986552949+985943390+984077190+981672521+979736891+978805131
1895+978480505+977599031+975310824+972098324+969618609+969227424+970559877
1885+972233994+973303658+973731089+974121572+975045163+976487059+977995576
1875+979227011+980096296+980574141+980762075+981127032+982123564+983403178
1865+984270485+984619680+984701171+984758541+985085272+985837202+986663986
1855+987021413+986895060+986827735+987273609+988182906+989146063+989796910
1845+990055424+989981717+989547585+988776958+987944941+987472392+987646798
1835+988322405+989075866+989710505+990355800+991134532+991902862+992381919
1825+992372283+991898586+991425017+991548626+992380643+993438501+994014749
1815+993792354+993163332+992813180+993016175+993352670+993280623+992851532
1805+992483257+992404510+992589190+992953700+993452413+994051059+994649897
1796+995087922+995333226+995620775+996151459+996623944+996668231+996316931
1786+995654852+994597378+993032001+990958977+988669430+986986698+986782235
1776+988127260+990424592+993094156+995727155+997829533+999074942+999543088
1766+999484697+999085217+998250136+996533391+993569896+989605848+985408749
1756+982214117+981106292+982044370+984374248+987488729+990613931+993030022
1746+994629795+995714583+996700777+997959332+999507415+1000830615+1001484653
1736+1001805833+1002553870+1003905850+1004925546+1005284888+1005650355
1728+1006299479+1006976490+1007437105+1007685409+1007853178+1008092419
1719+1008619274+1009729013+1011313152+1012522570+1013009732+1013194540
1711+1013445778+1013882016+1014510911+1015328123+1016258479+1017126169
1702+1017835151+1018418099+1018897795+1019269325+1019629942+1020045887
1694+1020398145+1020651489+1020998897+1021596778+1022340603+1023140777
1685+1024342920+1026269999+1028102824+1029121499+1029750968+1030445975
1677+1031513086+1033156764+1035109560+1036863382+1038538776+1040705543
1668+1043311293+1045610667+1047563400+1049779815+1052532722+1055266292
1660+1057397578+1059043617+1060453094+1061890204+1064173497+1067823001
1651+1070400289+1070634553+1069241731+1064981456+1057642372+1051046794
1643+1048014634+1048286868+1050545018+1053115989+1054534528+1053806784
1634+1051196376+1048295738+1045757058+1043344540+1040751235+1037735986
1626+1034262100+1030314772+1025502052+1019660127+1012959765+1003382441
1617+984757966+952666337+915708829+884034932+857866272+834218808+810411551
1607+785077014+759759963+738099436+723844998+719589828+725183705+737495684
1597+752740783+768309933+782729396+795305632+806101117+815732045+824931586
1587+834143251+843318925+852096011+860200490+867624639+874463160+880892436
1577+887537279+895263527+903274326+909629449+914591879+919694957+925553729
1568+931115635+935645974+939570457+943055765+945895587+947612014+945403129
1558+934961625+921228681+909962754+903228251+904230527+914023864+928772611
1548+942489600+952374703+959640847+966108604+972302723+978191998+982885640
1538+984739715+984241705+982043923+977748039+971869101+966982930+965095416
1528+967100541+973524904+983065981+993441245+1004507177+1016518780+1027069216
1518+1034814289+1041366856+1047702580+1053149045+1057359290+1060732029
1509+1063483659+1065709902+1067965882+1070001383+1070634553+1070131565
1501+1068104616+1063266370+1052392840+1030053770+994790864+953231417+909844697
1491+864105827+821391269+799232348+805566349+826158106+845789706+856096114
1481+852489812+835555919+811738005+788625244+771448855+762463668+760290647
1471+761118516+762992693+766829111+774680755+789180050+810315063+832086755
1461+849249106+862557489+875185926+888341473+896981358+896938857+891546188
1451+885615114+884074497+891115949+906969011+926798819+945719969+962663307
1442+977955565+991055912+1001114017+1006654289+1004791982+995882161+985816845
1432+979704856+978464296+977002491+966450204+940784724+900065909+853549712
1422+816302039+797068260+795493439+805146447+816560553+824245704+826875703
1412+824992848+821714746+821452020+826477180+836485445+850060511+864849270
1402+878905945+892395754+906091430+919379201+931038610+940473946+947180817
1392+951439370+955157922+960610130+968725202+977143394+980851990+977443068
1382+970038829+965141746+966939791+972629454+976606073+979140031+987008076
1372+1003550721+1023305993+1038668001+1044544513+1039428737+1026092849
1364+1010163784+998736341+996825216+1002602369+1010754007+1017537519+1020600055
1354+1018320208+1010483942+997542366+979143286+955186064+928168285+902804075
1344+882418631+865733551+847401221+822074470+789373473+754237942+721448306
1334+693187479+671104434+657311121+653169286+657754124+667403686+676433160
1324+678685503+670091374+651536585+629842874+614990108+613922806+626251760
1314+646464011+668480880+688402518+705656506+721973119+738740775+755637081
1304+771634556+786364031+800078404+812956804+824947029+836018321+846205523
1294+855461795+863559062+869927204+873473839+872959428+868259979+861574358
1284+856935278+857892692+865165089+875806716+884362429+886161177+881558918
1274+877047978+880104451+891561376+903320400+903820899+885618687+849370098
1265+803672581+761216025+732189038+719019962+716465711+717229063+718317744
1255+722145802+732149664+748349878+767263179+785127683+800438830+813766230
1245+826056194+837560533+848058002+857430992+865727297+872988400+879399808
1235+885442622+891494243+897360035+902616076+907292616+911592839+914632210
1225+913695345+905249776+887521517+862900366+837960141+820453957+815250754
1215+822313648+837839467+856945808+875834093+892523703+906365068+917079380
1205+923890077+924811818+916409452+895166337+860581847+817010192+771318162
1195+728907809+693356205+669037536+660955776+670810439+694763640+725827596
1185+757702383+786429377+809480620+823591603+823419941+804243021+768840808
1175+731138710+708911124+710593282+730527045+756727803+780259317+797654974
1165+808782359+814572020+815597587+812170605+806047066+800912400+799671649
1155+801198162+800117267+789832301+766930002+734667030+702605266+681353281
1146+676253330+685399840+702758804+722502526+741196304+757598046+771505331
1136+782980635+792225484+799422835+804391072+806803654+806899631+805512553
1126+803174443+799455125+793260751+783666899+770616072+754969897+737714760
1116+718944086+697718201+673020536+644907951+615063304+586722644+564036869
1106+550764604+548768669+557369563+573910868+594812126+616509602+636380572
1096+653701374+670015817+688058620+709600452+734039666+758686216+779508089
1086+791347775+788675913+768072542+731606983+688542464+652611162+634793689
1076+636616686+650400809+666546271+680772119+694930963+712325152+733525447
1066+756346446+778273783+797984513+814460918+824372185+821043542+799095529
1056+762353524+725198510+703059244+701475489+714924009+734158171+752849459
1046+768897093+782494111+794189639+804255593+812910793+820434238+827006715
1037+832728987+837773866+842332667+846452295+850087504+853341931+856537074
1027+859931702+863467871+866884004+869934288+872372268+873807143+873673451
1017+871590281+868106696+864954756+864095808+866217586+869467355+869131242
1007+860295765+843510241+827174037+821265107+828412108+842965454+857912346
997+870162170+879876185+887861905+894598130+900403809+905624242+910597201
987+915452549+920088439+924439842+928584102+932590586+936508942+940487284
977+944722608+949279686+953962734+958371698+962035114+964231938+963375225
967+956408245+939093888+908649829+868399031+829151211+802614085+792474872
957+793970946+801554377+813500314+829264738+846492243+862172813+874811716
947+884617242+892456761+898917754+904185282+908807068+914016014+920671833
937+928294766+935670096+941928477+946502211+948414549+946490660+941023137
927+935275657+934265086+941055810+954569294+971248183+987635950+1000217419
918+1003374911+989514657+953837466+900875783+845465527+804575560+786781188
908+789262627+803151342+820279742+836260689+850044302+862195085+873258655
898+882375237+886239350+878903967+853527249+807890483+751912403+707618173
888+695116153+716372158+755583540+794940037+826430085+850248381+868378866
878+882058779+892254468+899935089+905922193+910855842+915125371+918858281
868+922162419+925323932+928660871+932263152+935902318+939170338+941813802
858+943985866+946124172+948656151+951752892+955074005+957934376+960119585
848+962235684+964921393+968132490+971405040+974401591+977070198+979497458
838+981747886+983959069+986478413+989610634+993306596+997131016+1000290997
828+1001617515+998316695+982587242+941740479+869375653+779738205+704216079
818+666329045+661577268+666108501+662899957+654354774+651599187+660138500
809+678495080+703296252+729975239+752060326+764694825+768823642+770755443
799+777658928+792696947+813368664+834374962+851773363+864192935+871301966
789+872795424+869430916+864412521+862526603+866997212+877263608+890140540
779+902708161+913745248+923171906+931179705+937998379+944007882+949862442
769+955975389+960775091+959924695+950088474+934661440+923050530+922086225
759+929978136+940319578+949278920+956610984+962506705+966750070+969865317
749+972978266+976780160+981108462+985327386+989077334+991484237+989038280
739+977755059+959577351+941741819+927222805+912544828+898359885+893568798
729+903174966+919297773+930593821+935693644+942076783+955019380+972323399
719+988589215+1001259642+1011334913+1018332205+1015821284+996329630+964182546
709+938565756+937095847+958993191+989825307+1018390404+1042431797+1061617268
700+1070634553+1058341208+1014683147+944898545+873976253+829634736+820917380
690+836499484+859778674+881235058+898887378+913147495+924241186+932668312
680+939123306+943144978+941905950+929567105+900306108+856646772+812336779
670+786700846+797977366+839971775+879357499+903679422+919815758+932795687
660+943690722+952785351+960231198+966038088+970585339+974444985+977979750
650+981270871+984306477+987344635+990668556+994043146+997170007+1000256090
640+1003445043+1006067257+1005964579+999305888+984006866+964971743+952177579
630+951347540+959244621+968307087+971884353+965107796+947018472+924626564
620+909931102+908962138+916121711+922521697+927192301+935374889+948885948
610+963757284+975827788+984365186+990455606+994925577+998294232+1001040438
600+1003411285+1005487436+1007326259+1008868662+1010191160+1011732351
592+1013544308+1014737262+1014710907+1014305810+1014825454+1016632498
583+1019176092+1021794859+1024126460+1026087999+1027751715+1029225581
575+1030456313+1031089739+1030939391+1030697150+1031550354+1033835881
566+1036670725+1039179285+1041516119+1044544131+1048744612+1053027159
558+1053489624+1043599097+1019126890+985719464+958326454+948984415+956795792
548+971830940+985088846+991540011+988287945+975353516+957252068+941249168
538+933084449+933527642+939147747+946687210+955615984+966209750+977429667
528+987913289+997234077+1004943925+1009606425+1009788616+1004452232+991114111
518+965591002+928152778+889819360+865995320+864331923+881459686+908186533
508+935953434+959801915+978492311+993267796+1005307159+1014445054+1020749700
498+1025391078+1029130242+1031790361+1033307877+1034189287+1035235212
490+1037365158+1040923152+1044876350+1047646806+1049168789+1051144175
481+1054458652+1057659091+1058752749+1057570006+1055919373+1055767621
473+1057461521+1059413169+1060058272+1059760385+1059813670+1060784293
464+1062346416+1063891755+1064471448+1061860530+1052246002+1034269949
456+1015162907+1005135050+1006981149+1015291685+1019424905+1008436572+978566145
446+940649948+917174145+923826964+954272364+988235107+1013314767+1029915738
436+1041498953+1049592455+1054981359+1058706803+1061704566+1064568957
428+1067475466+1069948608+1070634553+1067906152+1059270925+1037088712+990018666
418+928857293+885247221+866666396+864602945+874273693+894489326+922523356
408+951998324+975642597+990217322+997376512+999896239+998272982+989805333
398+972950634+957332092+956220183+967858597+980045627+982611492+973846083
388+959989786+950464663+952722111+966770874+985689854+1004858732+1024021676
378+1043441794+1062006666+1073741823+1070634553
##END=
