##TITLE=X9713
##JCAMP-DX=5.0
##DATA TYPE=LINK
##BLOCKS=1


$$ === CHEMSPECTRA SPECTRUM ORIG ===
##TITLE=X9713
##JCAMP-DX=5.00
##DATA TYPE=INFRARED SPECTRUM
##DATA CLASS=XYDATA
##ORIGIN=Default
##OWNER=
##XUNITS=1/CM
##YUNITS=TRANSMITTANCE
##XFACTOR=1
##YFACTOR=1.0054223e-009
##FIRSTX=3996.5625
##LASTX=399.65625
##MAXX=3996.5625
##MAXY=1.079563973286853
##MINX=399.65625
##MINY=0.6635287987828049
##NPOINTS=1765
##XYDATA= (X++(Y..Y))
1765I45497870I45829441I46232566I46527560I46459443I46247802I46453871I47302391
1757I47688443I47067511I46654248I46839567I46600774I45680996I44890573I44693338
1749I45257832I46174113I46532065I46980780I48272798I49572819I50291627I50650231
1741I50362056I49457631I48972814I48402806I47378392I47212873I47998791I49168448
1733I49996219I49491423I48928707I49366869I49507192I49665063I50680229I50833002
1725I49156176I47525355I46965781I47771262I51780881I57945206I61381023I60565464
1717I56572800I51637415I50297734I52977038I54121559I53402039I55623795I57611679
1709I57630175I57415333I54816832I53904642I57046117I60930708I62645534I60329221
1701I58482668I58725314I56952924I54804916I56593549I63679966I72616077I69662529
1693I58626963I52589029I52681926I56640917I61954825I66857664I67771396I63658624
1685I60124931I58264150I56775964I56481267I57249399I60863244I66876160I68059986
1677I66183140I62419902I55583482I52235820I55165951I59865567I61262457I63111025
1669I63904294I60329161I57256751I54153572I51562659I50997987I50851439I51162438
1661I51917113I52742928I54510931I54370963I51440239I50694516I53898358I58014093
1653I58936006I57724495I56136950I55641936I57754729I59243330I59671889I64098446
1645I72888543I76062209I72077193I71419743I69698455I63398252I61882559I67038181
1637I72944269I71405930I63609063I57004263I54745692I55538664I57233156I57877386
1629I56465676I54653626I55541213I60695294I65176037I62061950I56251189I54164361
1621I55748112I56063676I53565838I51902945I52867008I57687087I65272728I67635519
1613I61030659I54677220I53100406I55587929I61573753I69602950I71850139I69225672
1605I68612506I63878387I56505277I52870921I51824335I52289293I55253690I58081083
1597I58803627I63418646I72970117I75048348I65581771I56928144I53645100I53303747
1589I53388166I53954380I55927503I60700215I67372242I66451159I58339499I54706565
1581I57967378I63086956I63388886I61991462I62430928I62415396I61444100I59113441
1573I55367810I53402098I54239532I55601742I56027099I55507896I54514903I55169508
1565I58470870I60012352I56949130I53908732I52564427I51654311I50867919I50253390
1557I50380849I52929730I57796168I60335860I57953921I55005234I53521376I52777550
1549I52930915I54005897I54329406I53496833I53412888I53885256I53174332I51612516
1541I50667127I50793697I51219409I51429272I52126917I53443003I54265083I54107805
1533I53044798I51663144I50778817I50409127I50430884I50604168I50598003I49979916
1525I49654867I51293513I53329358I52982847I51094322I49873977I49306163I48475487
1517I47735218I47391494I46907209I46640791I47139125I47226094I46269678I45669850
1509I45388848I44293532I43313106I43182802I43121147I42988649I42105863I38611238
1501I33493142I30870987I32291768I34749530I35882966I36484987I36928306I36660169
1493I35731260I34344211I32943705I31727748I30703156I29979723I29327727I28441028
1485I27261292I26213047I25373301I23863002I21591922I19411427I17629256I16350161
1477I15445085I14604034I13869160I12929758I12002984I11849263I12296080I13277158
1469I14385813I14610852I14546530I14961334I15407203I15725672I15528437I14401879
1461I13155390I12539082I12210950I11622149I10698220I09656081I08584300I07087815
1453I05387454I04290181I03641564I03448419I04245956I05554218I06578394I07280781
1445I07839763I08399989I08916464I09388655I09848514I10066380I10351888I10933990
1437I11396517I11717417I12165361I12529122I12817476I13297729I13772410I14309397
1429I14961334I15379162I15776597I16583856I16988819I16315659I15805290I15806653
1421I15376969I15408211I16338127I16425036I15403765I14456597I13803948I13505280
1413I13943382I14406858I13740515I12183798I10749441I09746903I09080619I08848170
1405I08054605I06015974I03974676I02593259I01251799H99528437H97767548H96140047
1397H94493812H93363222H92599536H90862420H88335177H86534272H85815048H85434687
1389H85002039H84650134H84011239H83216785H83000342H82901754H82506157H82280703
1381H82337911H82672446H83109778H83134440H83113573H83540471H83795270H83344303
1373H82759771H82895114H83484626H83872812H84414898H85504345H86597468H87258120
1365H88098578H89524635H90796734H91370476H91329393H90960948H90609814H90344284
1357H90521185H91297380H91980323H92651764H93701373H94569338H94948869H95064887
1349H95647522H96644309H97064331H97570787H98616780H99206588H99727510I01034763
1341I02065046I02195765I02875862I04495242I05792655I06246882I06344640I06709825
1333I07110935I06716702I06322646I07212546I08431587I09105400I10182279I11467479
1325I11860467I11830233I11938780I11935698I11292179I10102128I09364526I09286747
1317I09679557I10389533I10748552I10441168I09803103I09177962I08377698I07127890
1309I05729637I04236115I02282852I00729099I00875232I02223925I03451324I03998034
1301I03662254I02914100I02992413I03803229I04214951I03862038I02593378I00482185
1293H98166109H96026697H94320527H93768956H94544677H95700047H96650831H97446352
1285H97798790H98085958H99581199I02473211I05238712I06509981I07093328I08286461
1277I09969571I11829166I13729548I15150388I15835346I16491315I17601274I18667126
1269I19232392I19542265I19805897I19451384I18276154I16004007I11319864I05934282
1261I04536859I06563395I07492185I07062382I06585923I05065961I02751723I01621252
1253I01845343I01732171H99977448H96469720H92290137H89027901H87169610H85992364
1245H85009923H84553739H84612607H83732430H80920628H77545517H76460398H79521367
1237H85615738H92028461H97150766I00601225I02473981I03361332I03705175I03900809
1229I04066684I03977107I03897193I04058681I04920540I06761816I08681703I09809980
1221I09953801I09503842I09248094I09040307I08445637I08099957I08339105I08784381
1213I09074394I08650282I07327141I05671183I04100653I02978600I02715798I03010969
1205I03593426I04937850I07025330I09171382I11341265I13609262I15504724I16923074
1197I18126227I19118509I20063898I21264086I22534169I23452169I23914815I24297133
1189I24770094I25122592I25347750I25836777I26763254I27490422I27643373I27754825
1181I28272901I28823879I29075477I29378651I29725813I29742057I29500478I29198904
1173I29164520I29608848I30139077I30606821I31010006I31251348I31395465I31485220
1165I31711860I32036020I32250685I32365516I32406125I32491730I32751509I32980164
1157I33074365I33116456I32996526I33011703I33495691I34122196I34363953I34096941
1149I33732824I33523080I33371315I33325607I33654570I34022896I33927747I34002977
1141I34448490I34593794I34454774I34401835I34659124I35166173I35648797I36005741
1133I36425644I36981365I37385676I37597139I37824787I38097905I38230165I38069389
1125I37901677I38076740I38229810I38108161I38089901I38112547I38000087I38006134
1117I38233782I38489529I38878842I39578147I40063083I40161434I40308456I40354638
1109I40364420I40761854I41078723I40987604I40929033I41002781I41098701I41208731
1101I41104155I40532072I39957796I39993485I40227060I40421865I40892692I41330498
1093I41770617I42490493I42592816I41815316I41382905I41679676I42020496I42129458
1085I42376017I42898895I43566186I44381686I44612653I43719315I42499859I42013797
1077I42484031I42654233I42000991I41915446I42590563I43249792I43849916I43814346
1069I43338776I43580177I44121670I44155758I43457342I42651032I42990546I44052071
1061I44481874I44091020I44093392I45316700I46515051I46298193I44954777I43929355
1053I44380500I45952157I47478047I48083447I47722709I46971650I46463712I46417174
1045I46241459I46008476I46192610I46317164I46211817I46395832I47076878I47927769
1037I48654581I48883355I48471278I47962509I47614873I47466843I47782229I48156958
1029I48230173I48784945I49597303I49403387I48414069I48183102I49154339I49492431
1021I48674145I48435234I48746233I48577691I48568561I49178348I49892414I50669143
1013I51209687I51103926I50950382I50715680I49809655I49036721I49222277I49871428
1005I50167963I50006297I49828270I49831590I50109154I50665467I51187159I51207612
997I50431832I49456031I48895923I48767279I49671229I51131611I51584712I51429153
989I51681640I51952090I51846566I51842772I51900870I51450377I50840590I50813438
981I51360859I51912430I51928911I51440654I51215319I51364001I50921689I49477254
973I47467791I45163750I42596550I40211113I38578039I37606862I37144986I37520960
965I37963035I36616121I33856963I32109828I32512538I34640331I36988953I39016438
957I41007583I42044683I41498092I40711938I40691722I40755333I40784322I40805072
949I40230677I39299338I39373264I40520690I41082813I40438820I40128057I41292439
941I42911759I43823475I44061142I44580344I45723205I46794808I47876193I48971094
933I49429116I49646211I50617566I51614532I51674112I51825462I52626555I53501575
925I54212559I54691982I54511464I53771788I52918525I51899210I51386173I51665456
917I52351244I53747600I55491653I56329384I56326182I55527223I53596132I52112926
909I51480493I50970479I51083769I52033901I54020362I56504210I57046829I55461359
901I54854536I55370656I55648160I57046532I59224419I59909140I59103244I57589092
893I55632747I54302610I54294844I55214741I56304188I57154487I57954217I58608822
885I58718141I57810989I56580092I57123660I58874945I59609523I60660377I62027032
877I59962258I56086915I55066118I57244894I60405281I61140867I59088423I57874659
869I58292547I57043746I54657716I55582475I57389248I56030656I54750494I54786479
861I53315782I51612161I53821289I59497062I63780036I63802267I61257773I59216238
853I58607992I59401735I60594631I60163168I58717903I58717014I60155699I60674842
845I59552137I58679547I59483487I60928870I61739094I61545771I60429350I59885604
837I60023971I59446257I58772681I58952368I59298049I59108995I58751280I58423859
829I58227335I59030326I60969894I62555245I63191472I63432874I63298479I63000403
821I62991273I62669721I60606962I58054880I57975204I60384235I63242515I65219551
813I65889391I65837815I65995390I65612124I64465113I63580726I63684946I65058300
805I66505937I67283495I66591660I64892900I63570114I62760128I64975007I68126561
797I65189138I58410342I55952995I58531043I60391468I59763955I60351926I63232971
789I65835147I66796246I65844751I62993644I60261638I60867690I64769591I67634392
781I66893826I65501146I65972625I66371364I65979739I67139555I68744411I68362627
773I67652414I67885575I68198116I67858008I66818833I66255346I66915643I66502617
765I63984563I61997094I61868983I61729786I60696717I61221196I64145102
758I67093255I67657335I65999302I64663118I64742024I64631461I63670006
751I63178727I63666272I64752518I66040148I67360741I67986949I66551229
744I64737341I65278537I66713902I66496392I65495158I64950642I64471812
737I63756441I63630465I64535422I65401609I66540558I68218450I68138181
730I66471789I65276285I64722757I64797513I65520887I66660251I68025661
723I70635485I74476799I74807362I70952591I68677361I68822131I69089913
716I69428064I70004001I70015027I69559555I70057889I72932887I77183492
709I77398156I73507697I71693868I71828322I71676735I72654256I75810730
702I77533144I76849550I76035591I73625255I70654456I69226146I68392209
695I67616963I68164799I69216838I68766464I67882611I68524055I70886905
688I72814261I72031664I70573712I72080454I74114164I70521128I64998543
681I62604095I62304122I62477051I61811715I59633710I58703142I60554141
674I60060371I52308205I42257806I34209223I29223270I24394713I18099964
667I12390341I05882943I00269417H98369391H96931596H91920387H85585622
660H81181178H79190033H77701373H78791294H87956891H99699232I01551476
653H98532479H96450335H97689294I02015426I09718566I22942334I36113340
646I39410316I39500486I43287259I51800444I63316382I72708856I80488886
639I90851884I96458354I94536216I88240044I82584961I82286589I85949994
632I94540307A003900767I98803005I89457781I87210414I90536320I93152961
625I95008525I97586396I93910838I88450915I88421095I88040557I83785268
618I82736489I90163962A001241323I94122597I83140267I76565820I55671992
611I23249836H90225362H57507146H28092900H02574568G93721868H07571133
604H34770915H61203809H75794885H74591732H57458119H34164685H03430736
597G70583163G57450098G65808554G88325853H14514144H37497171H56521444
590H70696411H77590869H74362010H58823292H35350704H16160735H10464094
583H16532025H28774064H45359545H64539733H84426873I01076795I06339424
576I08766003I13467101I12171645I05730704I00373282I01154219I09857644
569I04840626H82902347H64043474H47976602H31335928H14683753H04282517
562H03404355H10200521H10110648G99161812G92086363G83538201G67610526
555G53747566G45365456G43008297G49439990G61816009G73845636G86170553
548G97692656H07413499H18967379H33220778H39913435H25057838H10839772
541H05864252H04403514G97952198G88036966G89237984H05254168H22116917
534H28828367H33069428H37544005H38612999H37809001H41219918H51287094
527H62472765H67060988H70605530H77401281H81375449H79594404H76817579
520H67902217H46767936H34864345H38694869H51893027H67022632H75414109
513H74984068H67850225H60016900H60782186H70438352H80061377H89043433
506H96325899I00250684I04178373I08839811I14204762I19772877I20088737
499I17401312I16915664I17937291I19288592I21224722I22641116I22693522
492I24183250I27421950I29658646I28862413I24363234I19747207I16235033
485I10107641I00818617H91775499H83955987H77515224H73151210H68711906
478H61175353H51933281H41502640H32442804H32085623H40744882H50532715
471H56855208H58835682H58827560H62132598H70478427H80266853H87222906
464H89823304H89470924H88345670H86813377H84583559H82245252H80573999
457H80094161H81442439H84779015H89024166H93179503H97448664I02515776
450I07696831I10519659I09232562I04218093H96230098H85945175H76106477
443H71861208H76076005H85539678H94801788I01088889I04089034I04385864
436I02446059H98864406H94542364H89221698H82203398H75071215H71683595
429H74640166H82793740H92665399I01737803I09480247I15641549I19816865
422I22508796I24619396I26086596I26251581I25399385I24269922I22670995
415I19997263I15983139I10779023I04351836H96725942H89264737H84322001
408H83546636H86959807H93351424H99843112I00045268H89867114H77745835
401H73295387H71784554H66201382H57694244H50692424H50654483H59714911
394H72060992H79952948H82101312H84088307H91001498I00264615I06686586
387I11790098I20001710I30468810I39420809I45692912I50141226I52987116
380I54098142I53550187I51043338I47782229I46115304I45400053I43195073
373I41614228I46077067I55509141I62578010I64562218I65338413I67947585
366I71362475I73133560I71808818I67142816I60770465I56995608I59098561
359I65537783I72130192I76110762I76977246I74573846I67919722I56858071
352I44715806I37941693I39752439I45230147I47988060I47327823I44551710
345I38229987I27373397I16297103I10862909I11859993I15437378I17343688
338I18352866I21923256I24442614I20660524I13024493I05069340H95944293
331H84029439H68698212H52392310H46014980H59045485H84492737I08038836
324I24048855I34833890I41976685I44905394I45162920I46059341I47586950
317I45601378I36010899I18622664I01556159H95706331H97979663H97040558
310H93990794H95838354I04528618I18759727I31274646I34203947I29607899
303I27641772I34142233I43992492I50556742I55277344I60796491I64726077
296I68228410I74152046I78390201I77014060I73189761I72406393I75697321
289I79859002I82956786I85813643I89025488I91887917I93743540I94759892
282I95097212I94093963I90878087I85140008I79451015I78776075I82508190
275I84991385I85528668I86148652I87352160I90865579I96180910I99899744
268A001223181A001971336A003534633A005792850A007879974A009445168A010331215
261A010137002A008625756A004624852I96305997I85090981I75929356I71265488
254I68251293I62036162I51806432I41505799I29085970I09520678H92625324
247H92371355I02673825I10307129I16685764I26742209I37977678I47948044
240I57597510I68282713I79063540I87984000I94497267I98295778I99972900
233A001844469A004973081A008094579A010202807A011824677A013337109A013971322
226A012836879A009755931A005574924A001849569I99866427I99031601I97613429
219I95371457I92586451I88047078I80043313I68971584I60505707I63421313
212I77285755I91464576I99596332A002503344A002435997A001226621I98721550
205I92533452I83390561I76250789I73274180I70868053I65644018I59595828
198I56622065I57510127I59388041I61131737I64741965I70200584I74045455
191I73574390I70789325I69958115I74075511I80205038I80033828I69444604
184I53217727I41300086I35688161I24587858I08053834I05519952I20007342
177I35452629I43860231I45308164I40701445I31970275I20769901I03798487
170H72852719H34179031H11613832H11156344H15480104H16962006H25004601
163H46880574H75922521I00792236I18226712I30515881I39086630I44599967
156I46075585I40717570I27662225I08019687H82352969H49292333H06656809
149G60045694G20160495F85615526F59950350F63790597F96519188G34047228
142G63491234G86109965H03624355H17076956H30003835H44141038H55647254
135H60204116H59001734H61320774H74522667H84044971H88323024H95009990
128I04918998I15253007I25344252I33732942I40434077I47208309I52987768
121I56533792I57066985I51226642I34437879I05293905H72295753H52709831
114H51011605H54155570H55723196H62440456H77401815H95501863I12160974
107I24989264I32347553I36031115I39653614I43978619I48409623I53346846
100I59215052I65201766I70231648I74792423I77733343I77947949I79434949
93I84847919I88995964I87546550I81664471I73418535I68051983I70817603
86I78837137I84626022I81394377I64768820I41594368I23733468I17065117
79I26017887I45617088I59820749I63730594I61931527I49102288I29994485
72I26944542I42635203I57580555I56262275I33709229H97364422H68819565
65H65596812H83132069I03517306I12130324I07511749H95765317H86945342
58H86971249H86263229H78835935H74118000H77392567H81936860H84970322
51H90783158I00432743I13428508I26461029I28102521I11391656H84386146
44H62277783H53689842H55571372H60867317H66859544H74279191H85154812
37H99124125I11260521I17767800I19695334I20677242I20984151I20112332
30I22699984I29030362I35347757I44116453I56584835I66122552I68872522
23I70161160I72484587I74518179I80051435I90739128I99560406A003229799
16A006281224A009823040A013339481A018378196A026893991A039089374A044361665
9A039658729A039728446A048570415A059374541A065063119A067011521A068723264
2A070522626A073741823
##END=


$$ === CHEMSPECTRA PEAK TABLE EDIT ===
##TITLE=X9713
##JCAMP-DX=5.00
##DATA TYPE=INFRAREDPEAKTABLE
##DATA CLASS=PEAKTABLE
##$CSTHRESHOLD=0.93
##MAXX=3996.5625
##MAXY=1.079563973286853
##MINX=399.65625
##MINY=0.6635287987828049
##$CSSOLVENTNAME=- - -
##$CSSOLVENTVALUE=0
##$CSSOLVENTX=0
##NPOINTS=47
##PEAKTABLE= (XY..XY)
485.296875, 0.8583188044302765
509.765625, 0.8788577300314
530.15625, 0.8702903375937076
546.46875, 0.9350371940960155
560.7421875, 0.9220377191839091
577.0546875, 0.9733010512674208
630.0703125, 0.8556260452257914
670.8515625, 0.8636594991022681
695.3203125, 0.6635287987828049
738.140625, 0.8155546770440711
762.609375, 0.9104299528357296
799.3125, 0.962702034161632
831.9375, 0.9686452723854798
901.265625, 0.8972100601982165
964.4765625, 0.9847618922386344
1029.7265625, 0.8988382802823062
1066.4296875, 0.850602327026054
1092.9375, 0.9168043714400438
1111.2890625, 0.9448480586499897
1133.71875, 0.9621847252852583
1158.1875, 0.9467199428284844
1205.0859375, 0.8552669868031708
1229.5546875, 0.8883374909243827
1274.4140625, 0.8764101249571684
1300.921875, 0.8765887010281384
1329.46875, 0.8848662955691903
1364.1328125, 0.8365974408735929
1439.578125, 0.86468016963687
1453.8515625, 0.8393912299378934
1478.3203125, 0.8423518527461222
1494.6328125, 0.7923099388407417
1525.21875, 0.7470371108888231
1543.5703125, 0.8077606544341165
1588.4296875, 0.8148586734568961
1612.8984375, 0.7615572196663853
1633.2890625, 0.7980256660848564
1727.0859375, 0.9013111576514704
1739.3203125, 0.8824605331548179
2860.8046875, 0.9078748208627799
2924.015625, 0.8812128292160754
2934.2109375, 0.8893500547389797
3028.0078125, 0.8986152394101188
3060.6328125, 0.9056131223935077
3166.6640625, 0.8951719978111331
3215.6015625, 0.8870646936558768
3354.2578125, 0.9083471873623437
3456.2109375, 0.93591844875281
##END=


$$ === CHEMSPECTRA PEAK TABLE AUTO ===
##TITLE=X9713
##JCAMP-DX=5.00
##DATA TYPE=INFRAREDPEAKTABLE
##DATA CLASS=PEAKTABLE
##$CSTHRESHOLD=0.93
##MAXX=3996.5625
##MAXY=1.079563973286853
##MINX=399.65625
##MINY=0.6635287987828049
##NPOINTS=187
##PEAKTABLE= (XY..XY)
3986.3671875, 0.9513786414567845
3976.171875, 0.9517872913289304
3965.9765625, 0.9498157486866373
3937.4296875, 0.9523489453612678
3927.234375, 0.954074083127966
3910.921875, 0.9521005135543162
3894.609375, 0.9554505334030682
3888.4921875, 0.9585716708760696
3876.2578125, 0.9590769991403165
3866.0625, 0.9636798485706963
3859.9453125, 0.9599821546960268
3847.7109375, 0.9577542524919467
3827.3203125, 0.961667595374054
3811.0078125, 0.957399128286786
3788.578125, 0.9560072407576896
3774.3046875, 0.9558494668741068
3762.0703125, 0.9608237132695727
3739.640625, 0.9670981747996656
3727.40625, 0.9599226095657315
3717.2109375, 0.9598300443562597
3704.9765625, 0.9593381264146502
3696.8203125, 0.9570644483386734
3682.546875, 0.9582684023314537
3662.15625, 0.9569854120916704
3639.7265625, 0.958472845907358
3623.4140625, 0.9598832704073994
3615.2578125, 0.9672076683044025
3603.0234375, 0.9585717301959853
3592.828125, 0.9596905691585368
3574.4765625, 0.9554059489565969
3558.1640625, 0.9579437957093649
3547.96875, 0.9585825787026023
3539.8125, 0.955821929362732
3517.3828125, 0.955562530409332
3507.1875, 0.954804180585334
3484.7578125, 0.9517737613610392
3456.2109375, 0.93591844875281
3399.1171875, 0.9167935832587648
3388.921875, 0.9195054756496189
3354.2578125, 0.9083471873623437
3299.203125, 0.9207710610239669
3295.125, 0.9203404175390086
3280.8515625, 0.918458579679744
3215.6015625, 0.8870646936558768
3205.40625, 0.8879020797268778
3197.25, 0.8875463593062932
3166.6640625, 0.8951719978111331
3111.609375, 0.9112369992834057
3097.3359375, 0.9167744500723959
3085.1015625, 0.9142171725282581
3060.6328125, 0.9056131223935077
3048.3984375, 0.90780997112443
3028.0078125, 0.8986152394101188
2968.875, 0.9094415292105557
2954.6015625, 0.9065101129147195
2934.2109375, 0.8893500547389797
2924.015625, 0.8812128292160754
2899.546875, 0.9087983947496039
2877.1171875, 0.913023947396841
2858.765625, 0.9076105938714953
2789.4375, 0.9342027287767959
2752.734375, 0.9380555130629298
2734.3828125, 0.938386378438836
2728.265625, 0.9389917834225581
2718.0703125, 0.9394684420699204
2691.5625, 0.942987261263197
2683.40625, 0.9431765058701922
2679.328125, 0.94308620487174
2650.78125, 0.9460310324956358
2638.546875, 0.9450545291572507
2618.15625, 0.9464873655257814
2595.7265625, 0.947121678411473
2587.5703125, 0.9470227941228457
2577.375, 0.9484538418451047
2567.1796875, 0.9477623686908135
2559.0234375, 0.9492101647377459
2546.7890625, 0.9490476231416164
2526.3984375, 0.9511380177594148
2520.28125, 0.9513424613353191
2501.9296875, 0.9526042924627989
2485.6171875, 0.9533244352339746
2477.4609375, 0.9535779343693181
2471.34375, 0.9537119843083103
2452.9921875, 0.9541826828122782
2442.796875, 0.954978523828421
2424.4453125, 0.9539117798169217
2416.2890625, 0.9565880872963118
2408.1328125, 0.9570039490626155
2399.9765625, 0.9559690337048673
2389.78125, 0.9563730938242136
2369.390625, 0.9422264672575877
2359.1953125, 0.9371640071203643
2340.84375, 0.9457924347242005
2330.6484375, 0.9443925008004374
2320.453125, 0.945225713363471
2271.515625, 0.9565448742458579
2249.0859375, 0.9561269262282817
2234.8125, 0.9600320437505527
2214.421875, 0.9594693169326212
2198.109375, 0.9617669562328516
2181.796875, 0.9602447730116314
2171.6015625, 0.9630685427634956
2165.484375, 0.9598341565334667
2157.328125, 0.9599274376036161
2151.2109375, 0.9567720876205902
2136.9375, 0.9638058521150216
2126.7421875, 0.9639154652650122
2118.5859375, 0.963877795107698
2106.3515625, 0.9650903917105691
2100.234375, 0.9639714341081862
2088.0, 0.9634231310785705
2063.53125, 0.9631696329486491
2053.3359375, 0.9710748773842744
2045.1796875, 0.9688055497705897
2028.8671875, 0.9679805022420543
2018.671875, 0.9611364589247884
2012.5546875, 0.9649680830931965
1998.28125, 0.9654684646797274
1988.0859375, 0.9707363828639557
1981.96875, 0.9712175709387796
1973.8125, 0.9728993156844321
1963.6171875, 0.9714946723626158
1949.34375, 0.965905902808589
1937.109375, 0.9698938108247314
1928.953125, 0.968401371011412
1914.6796875, 0.9699684362841042
1898.3671875, 0.9688555584703694
1882.0546875, 0.9699537732052811
1863.703125, 0.9739298202545502
1851.46875, 0.9748167977750765
1839.234375, 0.9769626836604564
1835.15625, 0.9769454577601905
1814.765625, 0.9728636724584748
1806.609375, 0.9731307608816252
1796.4140625, 0.9758364538385775
1784.1796875, 0.9675220236407205
1776.0234375, 0.9639015180468665
1739.3203125, 0.8824605331548179
1727.0859375, 0.9013111576514704
1690.3828125, 0.9876128415715346
1678.1484375, 0.9925633650278322
1657.7578125, 0.9880651810643046
1633.2890625, 0.7980256660848564
1612.8984375, 0.7615572196663853
1588.4296875, 0.8148586734568961
1563.9609375, 0.9052553760469886
1543.5703125, 0.8077606544341165
1525.21875, 0.7470371108888231
1494.6328125, 0.7923099388407417
1478.3203125, 0.8423518527461222
1453.8515625, 0.8393912299378934
1439.578125, 0.86468016963687
1413.0703125, 0.9218874558049072
1364.1328125, 0.8365974408735929
1353.9375, 0.8634843806785879
1329.46875, 0.8848662955691903
1300.921875, 0.8765887010281384
1274.4140625, 0.8764101249571684
1229.5546875, 0.8883374909243827
1205.0859375, 0.8552669868031708
1158.1875, 0.9467199428284844
1133.71875, 0.9621847252852583
1113.328125, 0.9430274942419539
1094.9765625, 0.9158018809514706
1066.4296875, 0.850602327026054
1035.84375, 0.9005631194385812
1029.7265625, 0.8988382802823062
1015.453125, 0.9326717239803155
990.984375, 0.9776790721847638
962.4375, 0.9840832925114724
901.265625, 0.8972100601982165
833.9765625, 0.9657138570950661
801.3515625, 0.9618091568230495
783.0, 0.9752175188869644
762.609375, 0.9104299528357296
738.140625, 0.8155546770440711
695.3203125, 0.6635287987828049
670.8515625, 0.8636594991022681
630.0703125, 0.8556260452257914
577.0546875, 0.9733010512674208
560.7421875, 0.9220377191839091
544.4296875, 0.9319707133900865
530.15625, 0.8702903375937076
517.921875, 0.8917546257279265
509.765625, 0.8788577300314
485.296875, 0.8583188044302765
460.828125, 0.9251014570978036
##END=

##END=

