##TITLE=X7882
##JCAMP-DX=4.24
##DATA TYPE=INFRARED SPECTRUM
##DATE=30/10/2018
##SAMPLING PROCEDURE=Diamant-ATR
##ORIGIN=ComPlat
##XUNITS=1/CM
##YUNITS=TRANSMITTANCE
##RESOLUTION=4
##FIRSTX=3997.453
##LASTX=373.96442
##DELTAX=-1.4165319
##MAXY=0.93718249
##MINY=0.4730013
##XFACTOR=1
##YFACTOR=8.7281921e-010
##NPOINTS=2559
##FIRSTY=0.85622042
##XYDATA=(X++(Y..Y))
3997+980982565+981345184+981698720+981676526+981394353+981079605+980744165
3988+980464519+980561285+981191395+982117132+983051200+983793919+983999472
3978+983404121+982347337+981549166+981334394+981445297+981557907+981618821
3968+981690116+981709783+981562755+981365398+981446048+981882761+982301992
3958+982285808+981729109+980833557+980034293+979797601+980281365+981226496
3948+982070831+982186446+981468106+980759531+981128227+982448815+983574026
3938+983825264+983274302+982211781+981158411+980856024+981424537+981973040
3928+981778414+981180947+981083019+981863845+982812868+982924112+981979050
3918+980687348+980012167+980301374+981256680+982596390+984084219+984993020
3908+984323438+981901814+978938856+977192072+977235231+978258417+979691478
3898+981342452+982573444+982749564+982025077+981400772+981808120+982651568
3888+982626847+981676867+980671573+979836048+978807467+978332306+979638212
3878+981816042+982729486+981868147+980091998+978420264+977790905+978959753
3869+981207239+982654572+982796752+982529807+982369121+981863162+980746146
3859+979362048+978017490+976847686+976472502+978106677+981204234+983772408
3849+985217625+985575737+984847085+983312476+981594920+980185145+979228951
3839+978948963+979653236+981042524+982350341+983086847+983136835+982679088
3829+982184807+982170944+982593112+982640710+981767898+980581977+979994890
3819+979765573+979787357+981103711+983700704+985648124+985803415+984537937
3809+982773397+981799653+982239849+982563337+981131437+978764854+977861721
3799+979103571+981372978+983962254+986213768+987408840+987610977+987305517
3789+986703338+985895674+985147355+984628216+984131203+983448373+982899118
3779+983121197+984141036+985151452+985554567+985425636+985171666+985133765
3769+985175900+984855279+984406752+984596803+985341434+985613638+984854392
3759+983536535+982402925+981549917+980501395+978817642+976746617+975807564
3750+976944111+978177357+977845195+976771407+976740471+977633634+977613078
3740+975820198+972613992+969497519+968799871+971230168+974747160+977495210
3730+979069153+979577298+979401110+979297173+979893957+981104872+982343239
3720+983083432+983240704+983006197+982336547+981058435+979706092+979797396
3710+981922028+984418976+985621286+985157462+983609537+982207752+982076841
3700+983015279+983924626+984241627+984055674+983722352+983713201+984449297
3690+985956247+987444077+987920057+987391426+986348572+985054412+983637263
3680+982188973+980686597+979440172+979815014+982284169+984181123+983805187
3670+982657850+983389644+986112699+988639627+989626551+989043151+987566111
3660+985932619+984652937+984348501+985243917+985879080+984431336+981006193
3650+977739278+977386151+979846428+982613257+984774083+986365440+987287216
3640+987611592+987642186+987382548+986523872+985043554+983193652+980933260
3631+978280406+976627452+977820406+980487601+982189519+982496960+982143628
3621+982203382+983479445+985371345+986309647+985874505+985025458+984798804
3611+985331737+986391390+988012043+989671690+990134695+989024371+987346491
3601+986286907+985920532+985521173+984839641+984295645+984184264+984105594
3591+983374483+981959655+981060962+982213079+984980250+987469549+988662709
3581+988752441+988524763+988499837+988474024+988217323+988088118+988275847
3571+988136331+987064523+985667382+985447284+986652803+987863786+988332732
3561+988465761+988778733+989323003+989768662+989724683+989111509+988403071
3551+988187275+988389823+988515886+988397949+988149033+987859757+987894312
3541+988825511+990553038+992056916+992388190+991625325+990558911+989743463
3531+989221251+988806937+988308899+987667317+987142031+987312551+988589161
3521+990512338+991895479+991987807+991254921+990734006+990740426+990672750
3512+990103009+989475562+989437866+989858258+990016212+989567207+988925488
3502+988673157+988796557+988884650+988859110+989069716+989733219+990555702
3492+991018775+990959158+990784473+991009556+991598897+992006314+991856554
3482+991318294+990804413+990484544+990272572+990253315+990731002+991618018
3472+992228460+992114416+991567074+990941403+990147124+989171263+988474707
3462+988497242+989164775+990061010+990844021+991427762+991858261+992102192
3452+992090310+991943282+991870827+991805951+991441489+990739128+990125954
3442+990081429+990694057+991540167+991982890+991732745+991126604+990733392
3432+990760298+990987771+991132751+991116976+991066373+991070812+990947412
3422+990499090+989996613+989930645+990317644+990793692+991193187+991525075
3412+991678181+991559152+991252531+990909238+990760161+991122575+992023181
3403+992951103+993312219+993004710+992327207+991517700+990637923+989812436
3393+989303745+989278273+989630580+990115574+990516708+990675482+990566765
3383+990475598+990865601+991814761+992756545+993089595+992872228+992622151
3373+992679173+992961483+993121418+992919007+992585616+992531599+992683339
3363+992726634+992939016+993860860+995169087+995808348+995317549+994328849
3353+993675931+993558131+993680370+993785672+993847748+993909755+993896302
3343+993638986+993138012+992697065+992526409+992287736+991518656+990530913
3333+990332599+991473448+993341038+994768567+995154268+994846350+994564108
3323+994670162+994982110+995064331+994686347+994086148+993725851+993849387
3313+994375901+994985592+995201457+994788713+994173285+994060539+994646465
3303+995478303+995927718+995700518+995067813+994551133+994312665+994149452
3293+994017789+994078636+994318060+994589648+994875851+995136923+995120465
3284+994676513+994154984+994192270+995008128+996047021+996504904+996194049
3274+995647184+995382971+995431115+995618434+995847683+995979892+995923621
3264+995957834+996437980+997093698+997213752+996625094+995920138+995612493
3254+995536828+995218802+994558850+994001263+994065046+994780996+995628746
3244+996047021+996027217+996085468+996522386+996956231+996947285+996769527
3234+996947627+997342888+997390076+996989420+996546765+996357193+996436409
3224+996724182+997038998+997066041+996748835+996512006+996748630+997259301
3214+997533075+997420260+997222698+997231166+997440747+997704073+997974978
3204+998247728+998300652+997861481+997198660+997119239+998056448+999491148
3194+1000513583+1000657538+1000094557+999307858+998642238+998123645+997747915
3184+997697722+997999767+998294370+998308574+998268556+998484762+998773013
3174+998697211+998230860+997808010+997786089+998170082+998751911+999241071
3165+999430507+999448467+999578696+999769566+999714114+999329984+998742214
3155+998066213+997561757+997547689+997930658+998313354+998559880+998755735
3145+998848746+998766047+998555851+998261932+998058428+998344426+999204331
3135+1000072021+1000349688+1000065056+999695881+999662487+1000052764+1000537006
3125+1000628310+1000219732+999726816+999609699+999898565+1000203138+1000139560
3115+999764307+999492377+999514162+999520171+999183025+998711962+998618678
3105+999026983+999531917+999759664+999738152+999607924+999347330+998973580
3095+998661086+998412784+997877529+996738250+995159322+993710485+992843751
3085+992468567+992102056+991438757+990635737+989994769+989522819+988909235
3075+987919306+986735297+985757866+985050793+984228447+982968637+981382948
3065+979916561+979092850+979136760+979643402+979937731+979774928+979252648
3055+978280679+976871929+975636020+975160997+975161680+974947045+974515453
3046+974545228+975346267+976359414+976896718+977050985+977461543+978357232
3036+979379189+980256508+981012135+981526084+981489549+980847010+979898465
3026+979000727+978356071+978002467+977927348+978168479+978692535+979260433
3016+979678640+980120680+980938655+982232746+983784427+985274647+986456607
3006+987297118+988004054+988782694+989616922+990355544+990869903+991130975
2996+991319865+991757466+992536311+993388840+994049339+994523202+994917234
2986+995184179+995100388+994504149+993582988+992777169+992341207+992279609
2976+992681563+993608051+994630144+995072594+994808449+994334176+994039232
2966+993848021+993617133+993468125+993545019+993742991+993910711+994085943
2956+994316762+994478131+994431148+994146038+993636664+993037080+992672754
2946+992749443+993026700+993039948+992590396+991870758+991184446+990722261
2936+990593739+990816569+991110556+990947207+990077332+988899879+988147189
2927+988274413+989095461+989971278+990505918+990974455+991775699+992671729
2917+993038514+992743434+992348514+992466245+993144978+993911735+994340869
2907+994483321+994685937+995142659+995757199+996277362+996441463+996162840
2897+995673612+995376074+995498722+995967941+996584939+997214913+997800361
2887+998339099+998886715+999459667+999928749+1000149257+1000131638+999919120
2877+999431326+998666208+997949233+997761026+998314515+999313390+1000107669
2867+1000170017+999513684+998631311+998067716+998072155+998512624+998979794
2857+999075946+998793227+998574426+998794592+999188420+999099506+998346406
2847+997461302+997016599+997095884+997421694+997644797+997599589+997497291
2837+997683449+998150756+998607956+998965385+999346852+999726475+999954358
2827+1000061710+1000249028+1000579961+1000853393+1000801493+1000347639
2819+999651015+998991950+998647086+998715240+999000759+999218945+999335243
2809+999551721+1000014863+1000685059+1001390083+1001878013+1001905124
2800+1001411594+1000651255+1000104322+1000127746+1000640739+1001238343
2792+1001579314+1001567021+1001284711+1000957194+1000880572+1001211573
2783+1001815118+1002370929+1002652966+1002689364+1002625923+1002504572
2775+1002258797+1001866199+1001421154+1001124230+1001187330+1001638657
2766+1002297654+1003018589+1003762675+1004358640+1004507034+1004175965
2758+1003761924+1003690834+1003970822+1004244664+1004246850+1004086710
2749+1004022586+1004110475+1004243640+1004413682+1004668471+1004856814
2741+1004711015+1004270136+1003992402+1004255727+1004879350+1005310736
2732+1005209258+1004697767+1004129118+1003796342+1003805561+1004054750
2724+1004312271+1004416481+1004430891+1004578260+1004987452+1005515537
2715+1005861425+1005884575+1005744240+1005678887+1005743625+1005873854
2707+1006083230+1006418875+1006779308+1006972637+1006924561+1006690463
2698+1006340683+1005982981+1005774970+1005736182+1005694935+1005593593
2690+1005659287+1006038569+1006441001+1006434445+1006009546+1005593183
2681+1005490202+1005533771+1005380802+1004957200+1004443866+1004005104
2673+1003758304+1003845647+1004277239+1004816523+1005198809+1005360656
2664+1005388314+1005386401+1005423619+1005484261+1005476612+1005339418
2656+1005156879+1005161387+1005522025+1006044032+1006265359+1006032218
2647+1005746767+1005844421+1006294587+1006802663+1007199017+1007435846
2639+1007446022+1007237601+1007008830+1007027542+1007438783+1008203219
2630+1009122058+1009917498+1010423866+1010711298+1010911456+1011005559
2622+1010947581+1010877857+1010972302+1011149036+1011166177+1010998935
2614+1010890149+1010996340+1011189941+1011290532+1011311224+1011364012
2605+1011465627+1011536307+1011489187+1011264719+1010874443+1010487308
2597+1010405360+1010796660+1011453199+1012011604+1012372721+1012630105
2588+1012670464+1012263115+1011541702+1011010134+1011013139+1011398635
2580+1011756405+1011912379+1012055583+1012296714+1012383169+1012135209
2571+1011821895+1011744318+1011851601+1012126399+1012838867+1013974526
2563+1014826988+1014614265+1013314437+1011588549+1010115470+1009270520
2554+1009164329+1009615862+1010218109+1010661925+1010880998+1010867750
2546+1010665066+1010547539+1010802943+1011293127+1011566013+1011418985
2537+1011129163+1011127456+1011538424+1012060568+1012374428+1012567551
2529+1012919312+1013432100+1013929182+1014367875+1014633318+1014365622
2520+1013509336+1012723935+1012723389+1013386278+1013905690+1013762964
2512+1013329119+1013456480+1014511079+1015903235+1016717591+1016701338
2503+1016299111+1015790283+1014963089+1013774369+1012753026+1012429947
2495+1012767504+1013357869+1013836444+1014001022+1013891827+1013847370
2486+1014217091+1015027282+1016046438+1016965756+1017395367+1017066620
2478+1016264146+1015666064+1015539796+1015503808+1015275652+1015180046
2469+1015623588+1016421349+1016950937+1016857721+1016463621+1016424900
2461+1016996008+1017817876+1018467312+1018851237+1018953808+1018744158
2452+1018525221+1018798381+1019570533+1020264767+1020428321+1020141709
2444+1019734156+1019447680+1019344631+1019316632+1019211534+1019012401
2435+1018832252+1018773591+1018903547+1019236801+1019618200+1019799031
2427+1019789675+1019910275+1020284845+1020539156+1020314004+1019846970
2418+1019631721+1019684646+1019636979+1019435798+1019401311+1019628102
2410+1019844649+1019900578+1020026095+1020543731+1021431020+1022176745
2401+1022174082+1021367716+1020299595+1019426647+1018767855+1018319396
2393+1018319942+1018877460+1019639165+1019928167+1019057199+1016714108
2384+1013282136+1009529134+1005799350+1001809792+997336742+992679514+988270520
2374+984173542+980067823+975543283+970542899+965473270+960552717+955582312
2364+951048143+948406352+948253725+949371560+950594289+952436270+956027016
2354+961518335+967957106+973868749+977881457+979174934+977590133+973849286
2344+969737353+967038267+966040690+965927260+966139710+966863650+968385693
2334+970313309+971923992+973130809+974320418+975397553+975979791+976298841
2325+976983515+978225911+979865890+982079299+985171393+988669538+991402563
2315+992676646+992999452+993481510+994801005+996979518+999798521+1002905023
2305+1005707841+1007757491+1009256043+1010806699+1012681322+1014655990
2296+1016410901+1017697276+1018298090+1018289348+1018182816+1018435284
2288+1019013289+1019669690+1020312092+1020901433+1021375774+1021773630
2279+1022075676+1022018244+1021463185+1020781653+1020527683+1020863874
2271+1021428425+1021611237+1021060070+1020100530+1019522935+1019805997
2262+1020672457+1021482579+1021965047+1022330124+1022571392+1022177291
2254+1021011516+1019835156+1019388404+1019796982+1021185792+1023549233
2245+1025769061+1026325623+1025189623+1023530522+1021727466+1019220753
2237+1016199203+1014050464+1013960322+1015823814+1018547757+1020917071
2228+1022304993+1023069020+1024115424+1025693191+1027019584+1027313094
2220+1026394596+1024295231+1021589521+1019985257+1021007624+1024080869
2211+1027063290+1028659700+1029430487+1030421782+1031527872+1031641301
2203+1030204142+1027943272+1026039421+1025187301+1025272048+1025493307
2194+1025221104+1024723613+1024370691+1023715792+1022285872+1020597817
2186+1019702196+1020415551+1023034738+1026926300+1030736120+1033598282
2177+1035391503+1035545224+1032986542+1028159887+1023895599+1022855546
2169+1024666796+1026797847+1027845618+1028499902+1029896019+1032521078
2160+1035732747+1037427632+1036135930+1033261476+1031097236+1030689683
2152+1032126432+1034647896+1036652816+1037015503+1035939256+1034020654
2143+1031602717+1029007159+1026366734+1023738942+1022009298+1022607517
2135+1025678919+1029510181+1032204623+1033180211+1033019048+1032528727
2126+1031949151+1030965369+1029691559+1029153982+1030004599+1031274448
2118+1031547949+1030985241+1030839784+1031323822+1031411301+1030641129
2109+1029792013+1029684047+1030255291+1030877821+1031123733+1031185876
2101+1031528554+1032035265+1031950449+1030996577+1029953041+1029673530
2092+1030164124+1030995006+1031935630+1032818071+1033352575+1033368418
2084+1032863961+1031876559+1030799219+1030569015+1031729122+1033419089
2075+1034175740+1033759514+1033309894+1033701741+1034658549+1035571310
2067+1036422201+1037542564+1038763244+1039208698+1038087653+1035569330
2058+1032878575+1031559831+1032265265+1033821248+1033933789+1031567753
2050+1028402999+1027424406+1029945460+1034386960+1038319019+1041134060
2041+1043624248+1045166641+1043712683+1039486637+1035910096+1035262436
2033+1036084440+1036409499+1036530372+1036963398+1036932463+1036517329
2024+1037448597+1040013971+1041521127+1039701750+1035885717+1033223780
2016+1033487516+1036681702+1041340091+1044321555+1043479269+1041121973
2007+1041292493+1043710498+1044477051+1042266032+1039600750+1038587875
1999+1038540004+1037718000+1035796667+1034098436+1033920541+1035116569
1990+1036506471+1037221738+1036844369+1035068288+1032455930+1030685449
1982+1031090134+1033784098+1038471441+1044257431+1048443117+1048491262
1973+1045282119+1041674301+1038893267+1036547376+1034826474+1034481473
1965+1035254992+1036048383+1036405265+1036865880+1037822893+1038529556
1956+1037739033+1035156860+1031934264+1029883248+1030307533+1033076684
1948+1036469458+1038410322+1038172332+1036627139+1035124627+1034560348
1939+1035190663+1036621129+1037809986+1037773929+1036517943+1034822171
1931+1033382281+1032531936+1032181541+1031787851+1031142307+1031037483
1922+1032108745+1033535114+1034339567+1035017412+1036398300+1037712332
1914+1037506643+1035785331+1034152385+1033984392+1034934030+1035812988
1905+1036267183+1036617237+1036776489+1036305972+1035174820+1033798371
1897+1032581447+1031747014+1031292272+1031002791+1030681966+1030375345
1888+1030540947+1031971960+1034990642+1038554140+1040811733+1041040094
1880+1040207231+1039456522+1039117804+1039113912+1039288734+1039292421
1871+1038755117+1037617409+1036321815+1035657082+1036052480+1037181174
1863+1038273264+1038651044+1038222593+1037558270+1037406394+1038095438
1854+1039370613+1040672626+1041463832+1041466973+1040861994+1040217885
1846+1040110806+1040799031+1042005438+1043117674+1043795245+1044090121
1837+1044125222+1043795860+1042877840+1041397249+1039776869+1038790150
1829+1039045007+1040236869+1041529595+1042331112+1042498422+1042221371
1820+1041851854+1041809515+1042279622+1042878592+1043011005+1042538645
1812+1041800296+1041158713+1040801694+1040833722+1041157211+1041374441
1803+1041182136+1040804767+1040763042+1041213823+1041803027+1042080420
1795+1041821329+1041238407+1040981842+1041358051+1041829865+1041805008
1786+1041074785+1039758089+1038271216+1037076964+1036365589+1036003038
1778+1035705022+1035246456+1034552427+1033786557+1033423255+1033867138
1769+1035025880+1036491174+1037638033+1037927445+1037446753+1036865060
1761+1036715506+1036852154+1036988870+1037100592+1037106465+1036760714
1752+1035838733+1034374805+1033046227+1032660390+1033036325+1033436981
1744+1033604837+1033844808+1034407447+1035089116+1035442106+1035237100
1735+1034672548+1034424588+1035004505+1036114282+1037508555+1039009019
1727+1040117977+1040514740+1040403906+1040023395+1039197020+1037720117
1718+1036163519+1035990883+1037551100+1039495037+1041057371+1042168583
1710+1042631997+1042227585+1041288259+1040651798+1040558309+1040342855
1701+1039598564+1038837133+1038743918+1039462873+1041089126+1043031014
1693+1044167083+1044268767+1043894539+1043445124+1042678161+1041443823
1684+1040921611+1042485311+1044908915+1046719210+1047683120+1047965430
1676+1047852069+1047621796+1047184536+1046485385+1046448645+1048254706
1667+1050969976+1052757803+1053299205+1053507898+1054296304+1055445826
1659+1056139172+1055945161+1054839891+1053299683+1052930030+1054217566
1650+1054999279+1054768323+1054862358+1056787857+1059601123+1061345313
1642+1061628784+1060883742+1059525595+1057789532+1055948575+1054052373
1633+1051195333+1046330094+1039058324+1030068041+1021543425+1015680132
1625+1012928122+1012502403+1013012323+1012896913+1011135651+1007341470
1616+1002401932+998257630+995414794+993446409+992544096+992973570+994067300
1606+994474307+993097106+989387537+983392853+976158369+969856519+967019282
1596+969333555+976606623+986558154+996165572+1003464795+1007856853+1009160574
1587+1007142405+1002206555+996067303+991110488+988761592+988817385+990749303
1577+994743642+999791692+1002975225+1003209459+1001673417+1000585561+1001704216
1567+1004729727+1008516259+1011875912+1013484752+1012263184+1007810621
1558+1002562687+999298912+996387036+993280669+991312353+991577795+994034247
1548+997649168+1001294750+1004764350+1008412391+1012293573+1017348998
1540+1025524243+1034019698+1038683549+1039433508+1037498995+1034291355
1531+1030704775+1026345905+1020986795+1016001709+1013484342+1014079283
1523+1017789945+1024673898+1032317233+1037998330+1042325308+1046577713
1514+1050115807+1051735573+1051088869+1048301962+1043926089+1040429993
1506+1040711142+1041753995+1039705506+1032927471+1019503541+996812891+964763124
1496+931255644+906220332+891105068+883416320+884178503+897093742+919805425
1486+942790336+956797393+956014997+940488765+918571702+902429906+899455886
1476+909566463+928076207+948929521+965304321+972615085+971500049+963328629
1466+947162522+922750969+894644938+867680234+841072550+809241857+767439693
1456+726052526+699845634+684368981+671470542+658917375+648498332+643046280
1446+643697901+649311937+658332951+669488294+681650160+695271516+713071797
1436+735658578+756947717+772420751+784497050+796691900+809477184+820927948
1426+830278938+838586323+846474409+853421257+859498571+866133402+873981812
1417+881459408+887425000+892335309+897132394+902567784+908658004+914840894
1407+921028564+927631436+934238337+939794122+944253377+948485637+952948785
1397+957519216+962388005+967637783+972324375+975523547+977484694+979293963
1387+981763186+984457286+986341538+987017949+986839166+986382171+985866378
1377+985121883+984281509+984190820+985528890+987910360+990574072+993058045
1367+995034351+996332950+997251584+998432588+1000097903+1001595430+1002084112
1357+1001179067+998921407+995430091+990604939+984383875+977339100+970633725
1347+965135713+960755333+956673583+951768805+944415770+932103120+912892245
1337+888547001+864580219+846981871+840002722+845384914+861930575+885634987
1327+911040430+933284465+949201792+957030671+956001202+946676572+931429305
1317+913544822+894789234+874287887+850722922+825808825+805164546+795283901
1307+799277488+814572490+834271911+851111218+860947544+864020379+863884551
1298+864933004+870054944+879558425+891631241+903685961+913480493+919684074
1288+922275672+922651403+922947644+924962056+929482158+936196683+944060390
1278+951896576+958815629+964352293+968534360+971791851+974540857+976840448
1268+978606285+980061677+981734231+984025968+987004359+990621806+994867997
1258+999597885+1004440997+1008991829+1012939936+1016013454+1018055319
1249+1019286175+1020269206+1021439079+1022799889+1024102039+1025041707
1241+1025198090+1024032520+1021029408+1015599618+1006702209+992660735+971506127
1231+941741883+903306747+858646587+813537490+776287182+754117788+748716475
1221+755464121+767560907+780813020+794692648+809989220+826530033+843023589
1211+858225171+871800568+884174952+895759701+906454839+915888596+923939348
1201+930849046+936934691+942340580+947036527+951018847+954504495+957834988
1191+961060383+963544561+964134995+962199798+958678777+955459869+953340905
1181+951442448+949183217+947861605+949381667+954056104+960457657+966990396
1171+972910780+978053821+982302470+985524656+987620060+988266423+986773403
1162+982700736+976793532+970642807+964612272+956525804+943831551+927600979
1152+913450036+907622048+912225053+924337341+938999570+952505447+963513967
1142+972280055+979398720+985041984+989040624+991501720+993128110+994704785
1132+996291430+997184046+996774853+994862603+990438243+981018964+965241153
1122+946496287+932121285+927843271+933655279+945141554+957517031+968182667
1112+976751466+983671271+989076067+992957522+995867555+998650023+1001532672
1102+1004058643+1005843260+1006911722+1007259044+1006293495+1002620460
1094+994349200+980350611+962271571+945368276+936068162+937507301+947408980
1084+960445092+972136100+980553910+985814205+989263727+992654725+996913960
1074+1001474830+1005084356+1007100885+1007688382+1006970725+1004726859
1065+1001319539+998403360+997868992+1000124878+1003973144+1007997052+1011462896
1055+1014131661+1015981768+1017215833+1018149150+1018972383+1019629672
1047+1019910753+1019759764+1019511736+1019660881+1020427160+1021685400
1038+1023158001+1024445673+1024805014+1022617624+1015199372+1000736344
1030+981904546+966281343+960721256+965332798+974050605+980018177+979375228
1020+972168743+962119353+954324141+951476730+952918396+957061196+962666013
1010+967963321+971094544+971990165+972385768+973953770+977327081+982430036
1000+988702795+995172297+1000921956+1005538414+1009099318+1011938329+1014398674
990+1016627038+1018559161+1020020017+1020722446+1020345896+1018923078
982+1017124939+1015871275+1015601121+1016072115+1016772086+1017304746
973+1017476358+1017308434+1016991774+1016718069+1016540993+1016181925
965+1014764161+1011349125+1006598682+1003419041+1004631116+1009960520
956+1016340153+1021104254+1023936436+1025912811+1027863578+1029957001
948+1032035948+1033805268+1034828795+1034651378+1033104137+1030478940
939+1027364789+1024446630+1022304515+1020775507+1018527543+1014131319
931+1007690499+1000762090+994911088+990983128+989208276+989324846+991063710
921+994480316+998951932+1002439833+1003306909+1002602363+1003169920+1006659391
911+1012259701+1018018579+1022619604+1025957610+1028588679+1030964003
902+1033117521+1034835351+1035993000+1036802848+1037703113+1038906994
894+1040102338+1040734087+1040668461+1040452801+1040706430+1041418556
885+1042189138+1042886103+1043591059+1044225744+1044687588+1045005136
877+1045125599+1045032110+1045076840+1045609637+1046357274+1046696469
868+1046405418+1045707018+1044692710+1043013396+1040172130+1036170280
860+1031946829+1028995618+1028292233+1029648673+1032171981+1035050396
851+1037723122+1039678532+1040445699+1039731934+1037735209+1035542833
843+1034660393+1035542014+1037180491+1038798003+1041044328+1044336920
834+1046567401+1044005851+1034849419+1020663170+1003752705+984974308+966236203
824+953679144+954434293+969340862+991354078+1011740221+1025938147+1033632358
815+1036313416+1036316489+1036551952+1039296314+1044865210+1051682102
806+1057710930+1061811937+1064010732+1065100774+1066064138+1067314387
798+1068507478+1069438746+1070616882+1072374320+1073741823+1072576594
789+1067181974+1058639330+1051414201+1050107203+1055098777+1062416917
781+1067681718+1068960718+1066625207+1062371367+1058029912+1053991185
772+1049343791+1044277713+1041192721+1042480462+1047584168+1052249454
764+1050798023+1040750272+1025834005+1012344107+1001371986+986228724+958574430
754+916442904+865557788+812685916+759209612+703223452+646665708+596904300
744+561286528+542995721+541923571+556588736+584390468+620778617+659348283
734+694764327+725241175+750308788+768340299+777647447+775279771+754800618
724+714148932+667431678+639752185+645867127+678823713+721318063+761255915
714+794798975+821879635+842797618+857337813+865537506+869189234+871754472
704+875572759+879727920+882245150+883804889+887447330+895030093+905449135
694+916082744+925047145+931848194+935946401+935645653+930105712+922322724
684+917952040+920542409+928961994+939585291+949713624+958391140+965374932
674+970262501+972147641+970247887+965908003+964890143+972292347+982316675
664+987988688+989203017+988465078+987898614+988432640+990003852+992170892
654+994602555+996987713+998865067+1000211128+1001812250+1004374552+1007595713
645+1010347518+1011134217+1008516191+1002501636+996027080+993609007+997434260
635+1005402996+1013442822+1018998060+1021830994+1022527208+1021412036
626+1018564215+1012860241+999977713+974845020+940069807+909476662+898193686
616+909205961+932467583+955357844+970304431+975998981+976557591+978151407
606+984009169+992798748+1000928444+1005176957+1003977924+997498998+986978341
596+974555266+963831993+959277883+963503041+974748117+988104440+999514981
586+1007646862+1012712189+1014686993+1011884927+1001377108+983008518+962610152
577+948346053+943814069+946663119+953452968+962721874+973688191+985184983
567+996063001+1004201300+1004809967+992836717+969683336+945758484+933067986
557+935081579+944545589+950635809+948383749+942599603+942810345+953463348
547+970170652+985572117+996136549+1003114195+1009259594+1015604945+1020971976
537+1023683628+1022176062+1014006144+996951997+972615221+947594114+930227609
527+926704538+938160152+959187126+981197405+997464853+1005057791+1005469715
517+1003227761+1001091315+997336605+988456678+973035204+953470724+935711280
507+927218556+932485884+949137053+969110384+984397055+993113633+998346065
497+1001160014+998109304+985389647+964611111+944629517+936104834+942315381
487+956683485+969359847+975840139+979820341+987021705+998098651+1008975030
477+1015771504+1018266608+1019144200+1020986317+1024322479+1028124172
469+1031678451+1034992281+1037951756+1039952101+1040103499+1037926147
460+1034289784+1030880621+1027769474+1022853702+1015671186+1008468866
452+1001637087+990742543+971138318+945112736+921374861+906557478+899914247
442+898460426+902790477+914225671+930248506+945208614+953880189+953592006
432+944194306+928286950+909875338+891088132+873193201+860015115+854547492
422+854078205+856931626+871125250+902354788+937214884+963068445+978960709
412+987430488+990525723+988452444+980469572+968757531+959134406+956109919
402+958833794+962529160+963205161+962854424+967269838+974225153+976062968
392+970408642+958989222+941653994+917400668+891578726+878242276+888438420
382+915294270+942672810+960820071+966166343+959375264+950429642+953704275
##END=
