##TITLE=LSH-R444A
##JCAMP-DX=4.24
##DATA TYPE=INFRARED SPECTRUM
##DATE=15/9/2021
##SAMPLING PROCEDURE=Diamant-ATR
##ORIGIN=Angelika Moesle
##XUNITS=1/CM
##YUNITS=TRANSMITTANCE
##RESOLUTION=4
##FIRSTX=3997.453
##LASTX=373.96442
##DELTAX=-1.4165319
##MAXY=0.96652728
##MINY=0.21455202
##XFACTOR=1
##YFACTOR=9.0014868e-010
##NPOINTS=2559
##FIRSTY=0.78266066
##XYDATA=(X++(Y..Y))
3997+869479322+869524151+869585865+869560636+869326230+868943698+868631619
3988+868540307+868616323+868745512+868959921+869335831+869724522+869891917
3978+869897744+869973959+870044149+869763060+869092486+868439062+868162542
3968+868234255+868406748+868513026+868537923+868542426+868582487+868613145
3958+868501239+868238823+868050504+868165985+868546862+868836559+868440982
3948+866899066+864493357+862122344+860533216+859943294+860160616+860893102
3938+861872311+862848937+863776431+864888470+866328082+867741803+868581626
3928+868770078+868671416+868627448+868726177+868919727+869173138+869357550
3918+869162609+868364502+867210217+866298152+866103012+866602549+867275507
3908+867722733+868162079+868921846+869648836+869758557+869743195+870395162
3898+871205188+871163935+870246970+869258358+869110960+870062689+871152546
3888+871507267+871443699+871672477+872242866+872681285+872991906+873294979
3878+873185324+872553686+871927543+871638243+871508327+871483164+871664995
3869+871534416+870784912+870224655+870767629+872257831+873625730+874188172
3859+873798091+872494687+870656055+869401253+870339010+872469127+873230881
3849+872576398+871514882+870860597+870792659+870774516+870455022+870614471
3839+872147977+874011772+874330405+873429199+872823120+873101097+873787629
3829+874281008+874319016+873809679+872964691+872538125+873378941+875032829
3819+875857820+875901126+876202079+876546471+876007668+874671619+873300342
3809+872638641+873131292+874154865+874365765+873638112+872941052+872988132
3799+873622419+874408938+874912646+874838285+874572162+874552760+874489060
3789+873968135+873308619+873180888+873607322+873888411+873674465+873564149
3779+874354177+875815375+876902782+877240949+877160430+876899272+876380731
3769+875592424+875031637+875293788+876172282+876733268+876576666+876335572
3759+876691617+877301670+877194664+876117057+874569844+873422843+873567327
3750+874398476+874285047+873391721+872890264+873217241+873506474+873119836
3740+872328748+871696249+872008393+873806170+876009125+876857887+876498994
3730+876144007+876512965+877587261+878824383+879719497+880272934+880557135
3720+880426159+879942646+879422715+879089580+879067662+879486084+880226450
3710+880855440+881275252+881623286+881865307+881993767+882131894+882334914
3700+882520585+882601700+882478405+882080577+881541575+881105804+880878682
3690+880775715+880656393+880560644+880763200+881444700+882482378+883431392
3680+883722744+883256845+882889741+883708905+884877824+884789557+884355641
3670+885040981+886312138+886533301+885804656+884963707+884278035+883705396
3660+883318162+883364182+883963375+884563163+884279625+883253733+882451654
3650+882575015+883345575+883596602+883231485+883070910+883432981+883995490
3640+884129380+883549390+882622359+881926425+881794985+882155335+882732544
3631+883673612+885487545+887289890+887326707+886036943+884757641+884324519
3621+885048795+886455100+887191493+886721422+886093094+886346505+887359484
3611+888174343+888110643+887099518+885629579+884523698+884335114+885062369
3601+886135870+886799624+886948942+887145207+887696790+888181296+888089255
3591+887574489+887169708+887089453+886881600+886266118+885861734+886171164
3581+886905703+887308299+886958411+886209834+885699107+885593889+885536347
3571+885357297+885563562+886828494+888587137+888953579+887746320+886582964
3561+886396366+886852067+887081441+886675071+885930798+885384976+885386896
3551+885891598+886509993+886834652+886702815+886287837+885953709+885874117
3541+885930467+885946624+885899875+885980394+886388354+887015887+887528601
3531+887786977+887967748+888237845+888451459+888334587+887910934+887564887
3521+887606670+887842003+887779892+887247909+886641631+886464834+886791877
3512+887340347+887842996+888112762+887958809+887337169+886540386+886060913
3502+886148518+886568595+886952253+887164212+887304193+887489798+887627131
3492+887493771+887091241+886768966+886881269+887378091+887877959+888088659
3482+888051181+888024694+888168252+888425304+888711160+888993176+889175271
3472+889127595+888858094+888462782+887996486+887605213+887591308+888059524
3462+888694341+889127132+889320815+889438217+889612962+889959936+890506288
3452+891056216+891354454+891348826+891134682+890798567+890437555+890151235
3442+889932721+889769431+889795190+890084887+890408354+890487416+890394780
3432+890402858+890550189+890639052+890614552+890709308+891181696+892001654
3422+892792411+893056151+892556680+891589854+890829490+890797442+891425571
3412+892171499+892566679+892523837+892184345+891704210+891193747+890730563
3403+890430801+890457155+890832338+891309229+891565552+891496356+891269433
3393+891188119+891475962+892048932+892531121+892599853+892304263+891990662
3383+891941596+892153157+892463183+892762680+892982717+893000993+892759634
3373+892402065+892128922+892007680+892034431+892239305+892640047+893223414
3363+893957423+894697458+895192161+895336711+895293538+895245399+895149054
3353+894853066+894399484+894085883+894167064+894565488+894987552+895263145
3343+895411602+895459940+895401008+895282944+895223879+895350087+895702425
3333+896117271+896284070+896055292+895653027+895445306+895552180+895793936
3323+896039135+896398889+896947029+897428952+897528807+897315457+897119258
3313+897058538+897021324+897025231+897208319+897510995+897751691+897965438
3303+898308903+898665346+898690376+898285793+897762220+897471265+897463650
3293+897583369+897743083+897934714+898066352+898066087+898116345+898452659
3284+898940674+899244938+899396177+899715208+900173955+900326120+899939152
3274+899349627+899116677+899523246+900428491+901474380+902358767+902902801
3264+902970673+902540994+901837113+901199052+900838106+900766526+900862474
3254+900989742+901161971+901484047+901877506+902104231+902139127+902231234
3244+902505171+902807582+903007688+903143961+903228056+903204351+903149921
3234+903237856+903456900+903596551+903535830+903375321+903323275+903527487
3224+903929884+904291161+904477958+904584169+904637208+904489215+904169522
3214+903995107+904170647+904552716+904904723+905143036+905267192+905229183
3204+905028216+904863404+904947962+905160980+905182236+905015437+905055895
3194+905602710+906518484+907339038+907693892+907705082+907801825+908102580
3184+908350031+908417042+908293084+907494183+904856650+899082774+889931397
3174+879450790+871615001+869657776+873468664+880060313+886353656+890985827
3165+894046219+896167463+897958618+899672498+901117142+901994311+902319434
3155+902383929+902395384+902364792+902303211+902293279+902329035+902263614
3145+902007224+901662236+901383001+901191238+900994311+900643297+899897237
3135+898538872+896673886+894685075+892713944+890415571+887357233+883548198
3125+879592957+876439333+874904899+875258694+877179434+880046010+883226253
3115+886232877+888757578+890634947+891928220+892984703+894108264+895221031
3105+896134421+896963848+897900480+898812744+899503182+900105156+900795992
3095+901363997+901443523+901050396+900603965+900464711+900623763+900870287
3085+901147734+901547085+901991464+902262356+902411409+902791756+903527023
3075+904280434+904714682+904905650+905137010+905503518+905894327+906233157
3065+906582316+907069736+907765803+908550269+909126352+909276465+909063182
3055+908671379+908198196+907729318+907442402+907465644+907756996+908214221
3046+908782689+909411215+910039742+910652376+911224221+911638008+911810701
3036+911895391+912200318+912883010+913837851+914866656+915827390+916658406
3026+917410559+918195489+918961944+919428770+919426121+919184564+919075903
3016+919157879+919213567+919221910+919546370+920517898+921950491+923226879
3006+923849711+923827926+923547499+923378051+923454730+923693771+923886991
2996+923873416+923747473+923811570+924198407+924638614+924710061+924201453
2986+923124906+921507966+919345602+916656685+913363609+909103441+903259244
2976+895241558+884857098+872548984+859207894+845497249+831237273+815624495
2966+798436560+781217901+766982822+758297476+755615578+757634914+762929647
2956+770717827+780307226+790541375+799965167+807237388+811462460+812416110
2946+810438754+806112105+800233807+793947615+788409073+784133278+780846956
2936+778023686+775425617+773140024+771384494+770483950+770851849+772607313
2927+775175319+777567852+779188499+780209822+781199360+782610896+784618844
2917+787207046+790336898+794066540+798429011+803132034+807531786+811065625
2907+813688591+815833143+818058611+820794145+824158669+827822094+831239127
2897+834223502+837098157+840154708+843229336+845963545+848260793+850335619
2887+852415610+854436271+855955143+856336881+854993548+851434017+845322107
2877+836861433+827167809+817924126+810427895+805084029+801839423+800722153
2867+801671366+804106939+807048671+809649189+811570923+813059733+814744677
2857+817184554+820504779+824471144+828770313+833133712+837369644+841406265
2847+845228013+848744570+851802710+854348600+856553144+858745041+861161080
2837+863739482+866212004+868405093+870384832+872288158+874065142+875450589
2827+876248762+876632354+877066204+877918145+879171953+880497672+881574550
2817+882402720+883283464+884442186+885749630+886892989+887729700+888381998
2808+889046546+889805983+890624087+891433318+892153554+892698450+893083697
2798+893465832+893954244+894514634+895122766+895801352+896446168+896890613
2788+897209776+897716795+898595885+899682828+900635020+901228055+901465904
2778+901454647+901287186+901120850+901216996+901704945+902370752+902852874
2768+903019872+903048411+903147206+903303543+903362078+903326652+903452265
2758+903952795+904735606+905528813+906138467+906467828+906449619+906146215
2748+905830627+905796923+906093507+906520205+906839302+906896182+906623966
2738+906119530+905684024+905621913+905963722+906450678+906763418+906787918
2728+906740905+906939554+907365789+907687469+907832549+908180980+908965976
2718+909862083+910420023+910636551+910867381+911370096+912086492+912767330
2708+913190386+913318118+913344936+913540539+913916516+914123376+913897379
2698+913512265+913475448+913848578+914228064+914361623+914429031+914673900
2689+915057293+915366987+915494851+915486110+915383607+915141255+914743294
2679+914331494+914118344+914198797+914508623+914895195+915183965+915302757
2669+915396851+915675953+916130132+916551732+916790310+916821299+916698600
2659+916611724+916821961+917369240+917993264+918446581+918734491+919014056
2649+919382882+919764885+919982737+920018891+920131128+920555575+921211515
2639+921868912+922395267+922674038+922601200+922361165+922382553+922821767
2629+923354147+923619675+923664636+923844347+924390103+925141461+925730854
2619+926002209+926126232+926308857+926577431+926877325+927230723+927734166
2609+928410104+929081869+929525321+929760654+929992743+930250855+930382625
2599+930417323+930602067+931020091+931486122+931894744+932376204+932977846
2589+933454406+933562339+933383223+933214570+933285223+933632197+934104585
2580+934505526+934814095+935138754+935433351+935496058+935269266+934895673
2570+934548368+934432622+934794230+935645243+936605581+937246887+937495132
2560+937563137+937631935+937730134+937804032+937807210+937757018+937730797
2550+937790126+937968183+938308403+938800788+939306947+939614125+939548107
2540+939101013+938554198+938291319+938334823+938319328+938036584+937667096
2530+937413752+937304561+937401767+937849721+938646173+939530891+940124322
2520+940198087+939877931+939495332+939176831+938725566+937952224+936963811
2510+936070817+935525723+935395607+935643191+936283106+937369189+938784035
2500+940139022+941012550+941302048+941257352+941175177+941170939+941288540
2490+941649817+942282184+942910512+943226761+943337210+943638429+944235105
2480+944798607+945059169+945129160+945215440+945326352+945476664+945891245
2470+946712130+947728288+948639095+949368601+949937070+950277753+950332779
2461+950145320+949809868+949474548+949326422+949456404+949804571+950259809
2451+950699420+950960842+950949056+950768814+950585461+950401446+950228091
2441+950364298+950987527+951532754+951226635+950277224+949704054+949967132
2431+950585461+951035799+951253784+951327946+951313114+951281859+951227827
2421+951050102+950765835+950549572+950494480+950495539+950401313+950174522
2411+949923429+949865092+950204187+950879330+951428330+951344169+950647638
2401+949917139+949649757+949796757+950040765+950262391+950510305+950760868
2391+950984415+951276430+951713856+952227695+952730543+953211738+953700746
2381+954303978+955220745+956518521+957917674+958997201+959657048+960243196
2371+961128443+962267962+963345039+964259885+965188107+966225057+967276773
2361+968219695+968964828+969456419+969651361+969458737+968841732+967970390
2351+967074945+966267303+965710687+965803457+966922647+968742275+970181357
2342+970608519+970366829+969956685+969599579+969466219+969672219+970080046
2332+970406890+970452050+970152354+969558128+968826635+968250154+968319152
2322+969440858+971290747+972846105+973426161+973261216+972930068+972790285
2312+973011448+973577201+974120110+974193676+973768567+973200297+972807634
2302+972739431+973062170+973681624+974296908+974675202+974887558+975113886
2292+975387029+975732480+976373853+977483905+978801480+979784397+980176133
2282+980228577+980321545+980520922+980669048+980813202+981281352+982306184
2272+983809959+985551054+987209379+988444581+989152236+989534503+989757587
2262+989840225+989954514+990371082+990973916+991327049+991443523+991999212
2252+993415979+995148797+996305201+996614697+996403334+995933131+995160385
2242+994071853+993117210+993087082+994243155+995907439+997387178+998627345
2232+999367645+998861619+997372345+996693825+998110526+1000625956+1002046100
2223+1001502132+1000201310+999662441+999947900+1000240709+1000549543+1001788452
2213+1004347453+1007387913+1009599940+1010373613+1010251775+1010267004
2204+1010921024+1011943472+1012827197+1013331038+1013561405+1013643712
2196+1013352227+1012448638+1011416323+1011164635+1011811635+1012550214
2187+1012935593+1013393944+1014177350+1014780317+1014829913+1014785284
2179+1015465922+1017370440+1020268138+1023102400+1024726358+1024868988
2170+1023943415+1022461292+1021218343+1021131401+1022165437+1023454870
2162+1025089820+1028466395+1033822577+1038640287+1040369000+1039336023
2153+1037383632+1035503416+1033878464+1033022087+1033508248+1034952296
2145+1036327016+1037102410+1037354099+1037151411+1036601814+1036317745
2136+1037164389+1039307153+1041864498+1043771863+1044705250+1044974089
2128+1044900920+1044615659+1044230875+1043968129+1044033021+1044385888
2119+1044761666+1044982498+1045123870+1045379598+1045944358+1046941909
2111+1048268158+1049596593+1050656122+1051416816+1052089311+1053097655
2102+1054814316+1057041771+1059000784+1060158380+1060883119+1061956024
2094+1063591372+1065287837+1066561378+1067416166+1068016352+1068285853
2085+1068130178+1067840282+1068011187+1069035291+1070631570+1071883392
2077+1071982717+1070976161+1069661566+1068987085+1069600514+1071347304
2068+1073106013+1073741823+1073221229+1072282148+1071319162+1070193085
2060+1068744468+1066963842+1064738969+1061657057+1057232872+1051300408
2051+1043745178+1033532814+1017874678+992264409+952091620+895436168+824804014
2041+746102393+665752182+588904886+520352690+465367515+427670559+406965836
2031+399881438+403089161+414776926+433834449+458815729+487870677+519088254
2021+551095329+583661802+616786843+648942343+677480637+700999990+719895779
2011+734760444+745670133+753494268+761110946+771740209+785835637+801086013
2002+815352544+828307990+840416064+851484474+860898797+868721806+875564547
1992+881736847+887427091+892993907+898239111+902606085+906526628+911228724
1982+917233165+924071933+931024726+937464871+943044600+947697630+951307551
1972+954052687+956867283+960635263+965084810+968933177+971320412+972914441
1962+975128983+978465829+982156005+985161768+986888031+987482654+987742951
1952+987920544+987054102+984217588+979467617+973017606+964149105+950814239
1942+930244233+900531656+860960709+812006164+757202521+702851600+654131659
1932+613043760+579305025+551528716+528524527+509789379+494778508+483059655
1922+475214297+472297993+474741015+481948344+491747053+501239148+508811925
1912+514406387+519003993+524055911+530258703+537114422+543898397+550226801
1902+555844340+560549548+564310311+567207015+569118088+569568360+568362095
1892+566007504+562697212+557616159+550085926+540417564+528928779+515667545
1883+501078242+485785488+470070670+453734676+435875472+415310498+391643715
1873+364887934+333935256+298013166+263128953+241843279+238351752+245840269
1863+257209136+269649253+283569439+300104116+319315725+340035313+360706035
1853+379932145+396489070+409374856+418127644+423414232+427757866+435336669
1843+448208649+463685418+479146528+494133163+508227764+520536275+530793169
1833+539767682+548771530+558467570+567645302+575226555+582399120+590427533
1823+598805039+606700754+614238503+621725927+629131641+636195081+642580532
1813+648270842+653677481+659066175+664267543+669121274+673622205+677828538
1803+682007127+686508786+691313583+695992834+700184998+703898018+707612297
1793+712120909+717420674+721945774+724821686+726943659+729340297+732167606
1783+734937771+737511869+740251508+743175891+745822629+748009891+750191855
1773+753181594+757121207+760676898+763042745+764885151+766702263+768551026
1764+770798611+773787091+776875758+779295373+781361855+783396819+785016473
1754+786100437+787267237+789256246+791946355+794228902+795582565+796397292
1744+796988340+797303862+797218178+796702020+795914707+795347364+795797438
1734+797723210+799990726+801600581+803058931+804644683+806212357+807886176
1724+809807116+811565427+812747655+813831486+816145950+820319771+824321230
1714+826658340+828144965+829595039+831208800+833051869+835260584+837487708
1704+838855674+839391762+840376930+842772840+845588694+847878922+849724441
1694+850562476+850350451+849998246+850093068+850362834+850307410+849807940
1684+848844292+847927724+848102668+849483810+851619224+854184317+856967791
1674+859376944+860870258+862006730+863904759+866452238+868214986+869040241
1664+869917609+871497401+873327292+874506740+874923440+874923969+874931584
1655+875870269+878647585+880874312+880941256+880231946+879637521+878915431
1645+877419667+875577062+874268758+874066996+875246907+878336500+883826108
1635+889370808+891999601+892513441+892352204+892114288+891929412+891776650
1625+891531252+890553699+888029065+884286577+880481582+878162881+879277502
1615+883407488+888037474+892176399+895647333+897921073+898598467+897995699
1605+896655081+894637068+891123558+884383518+872710354+855965407+836771180
1595+820620724+813305198+816894063+829078948+845589091+862329999+876793988
1585+888483309+897966365+905654756+911546629+915729721+918465056+919542795
1575+918351826+915414398+911302423+904723025+893114355+875560243+852590156
1565+824451147+795123420+771425813+756618823+750425268+750327797+750269129
1555+749585047+749950099+751003668+751731255+752498041+754838859+760091809
1545+769598703+784386490+803837306+828053057+854146176+870496142+877276441
1536+881822200+888227846+896201498+902142438+904876647+906012789+907139660
1526+908992595+911289047+912683433+910754946+903434188+888480595+861723456
1516+822400159+775142211+722776790+667203580+613488602+565529620+527207251
1506+512765775+519303027+532781318+549799474+570740060+595692403+623670638
1496+650204759+670507582+685932305+701435694+720952461+742823819+760934082
1486+773761863+783468200+791522703+798008603+802195006+804113627+805248643
1476+807095751+808575622+802741622+780608776+744908511+704220824+662792704
1466+626545889+607907549+612554817+629800162+649504454+670600483+695625002
1456+717956034+727753221+729185284+728136945+726067284+721031987+711216922
1446+699591500+691698963+689948730+693524616+700445096+709116073+719090653
1436+729581258+738009155+742660396+742926851+737594110+727644295+718889289
1426+717733017+726749644+742910695+759352635+772525801+784133080+795563892
1417+805334393+813135154+820064904+826796335+833399968+839414408+844234899
1407+847386471+847803899+843808664+833946055+816131978+788645863+755519233
1397+727009080+711922260+712868559+725267787+741844014+758207289+772074469
1387+781129303+784274253+782571696+777402576+770200345+763044533+757224703
1377+751588889+744062861+735495910+730101455+729814141+732218527+733958430
1367+733415588+731444589+730317784+731544642+733347186+732342219+728580728
1357+726010801+729234814+739544449+753673913+767327810+778557920+787518197
1347+794992246+801681166+807981859+814075030+820208328+826521735+832537896
1337+837418115+840443478+840601801+836566968+827490945+813418031+795325381
1327+775658567+758379518+747089946+742741114+743752968+748080477+754174906
1317+760376010+765140217+768401509+771783117+776805899+782949858+788201948
1307+791430595+793460593+795757973+798926297+802963646+808070457+814390552
1298+821335200+827794084+833041274+837224630+841009099+844742448+847467718
1288+846633192+839963210+828498362+816911676+810107208+809882337+814853802
1278+822553185+830945192+838836007+845851838+852021555+857150284+860532554
1268+861167967+858458853+853062147+846692721+840396729+833016575+821541067
1258+803117599+777769878+750565249+730678465+726037354+737705221+759785889
1248+784410262+806235864+823095895+834278396+839124115+836834549+826896984
1238+809284138+784313652+752994333+718058074+684218822+656624377+638877642
1228+632331285+636193624+647547692+662219534+677144191+692009386+708013503
1218+725334599+742435724+757585848+770320330+781378608+791749030+801914711
1208+811712825+820629465+828180192+834137818+838466718+841044988+841533136
1198+839482545+834294023+825188600+812131842+797337632+784953766+778002695
1188+775664990+774253586+770902438+766031888+762497850+762956664+768071884
1179+776538054+786083816+794351933+799485164+800841277+799601705+798366967
1169+799583495+803887299+809340356+811853336+807579528+797136599+787413111
1159+786684995+797069058+813271891+828559149+839884346+847543006+852670940
1149+856181074+858771726+860919456+862900123+864854700+866611091+867240875
1139+864692403+856238020+840376930+819361751+799706724+788871992+790256777
1129+801163751+815545499+828364605+837680994+844053731+849005794+853754705
1119+858640882+863299275+867110694+869474025+870002631+868688102+865644000
1109+860503948+852548969+842188546+832365072+827637416+831034253+841656960
1099+855530100+868731275+879586468+888310286+895472852+901246463+905643566
1089+908831954+911114898+912848842+914476310+916474722+919072857+921986645
1079+924497837+925666160+924390501+919681584+911439955+900830888+889177125
1069+876268892+860557517+841995922+824552591+814665284+816322880+827765810
1060+842871105+854997786+859196041+851199213+825084507+773849004+695722208
1050+601780210+514975716+457866152+439754464+454896013+490161070+532440336
1040+571891365+603526536+627801485+648360631+667955799+686317288+701436223
1030+712114022+719233019+724861747+730173498+734633639+737784747+741172712
1020+747277338+756779861+767819864+777376552+782593216+782047527+777381916
1010+773099699+773361982+778974289+787806305+797261549+805609655+811784272
1000+815333010+816947566+818453791+821696212+827210121+833962874+840349715
990+845365545+848958979+851639222+853917465+855959580+857628433+858807814
980+859577845+860135785+860738950+861666312+863042885+864769744+866727566
970+868928269+871352056+873734060+875670030+877007867+878059583+879367358
960+881336966+884067070+887297174+890417558+892634418+893378426+892870016
950+892131372+891837768+890889483+885588724+869151485+833832296+778971773
941+718691169+676053275+665299129+681919324+710900076+740227869+765136377
931+784919466+800198050+812139788+821913005+830281902+837603521+843982018
921+849494537+854300725+858499709+862048314+864943363+867417673+869869668
911+872516273+875121559+877114145+877775183+876155595+871198897+862623934
901+852089560+843346274+840404476+844654645+853739475+863610625+871540375
891+877136923+881284655+884784989+887796314+890143223+891910209+893545093
881+895442459+897547877+899275597+899718585+897520728+890026881+874081961
871+850680739+828523922+818944058+825825933+842813166+860606716+874329677
861+883880008+890618724+895377236+898305592+899409288+898904917+896847307
851+892612633+884700232+870274913+846046316+813178195+781984621+767172731
841+775118969+797999134+822302026+840625639+853887469+865571824+877016078
832+887280421+895202160+900706401+904490406+907110260+908664294+908955845
822+907250771+901015963+885054688+855048044+815440943+781872384+770445942
812+783549051+808856380+831325341+842914013+842330183+831313886+814318972
802+799362398+794913183+804172229+823036499+844176960+862593872+877180096
792+888489203+896358299+899388893+896298638+888229303+879156922+871956744
782+863607910+845706096+809042448+746815677+658557765+557765544+473150000
772+433277701+446231161+496113432+558539150+616561045+663964603+700198506
762+726397042+744717477+757554792+766308474+772695778+780675456+793962050
752+811661507+829102918+842764960+852308273+858693591+862539905+864105262
742+863457599+860248816+853246560+839823228+816851684+784666784+751365276
732+730541728+731504846+751893022+780604008+805408092+817742097+816593175
722+810860950+813051059+827142514+845568035+859425216+866878208+870949261
713+873875565+874615004+870245711+860377740+850452888+848364819+856885087
703+871389932+885322335+895453650+901940477+906106154+909110593+911591855
693+913692771+915175953+915375198+913326527+908769644+903519144+901190841
683+904453193+912368839+921237472+927942086+931613457+932621138+931421164
673+928771314+925562929+920355734+907095957+884067467+864090363+857474546
663+865161083+883097992+903697862+920593451+931920304+938009104+938141670
653+928385802+901494443+851738944+784230418+718933654+677741066+664295287
643+662995856+661086703+663464139+679024010+701022437+711500328+701870934
633+682278548+671001689+677939715+697979262+717667993+726935249+725420018
623+720438423+720636211+730597350+749257673+772067318+794251217+812828241
613+827178073+838283365+847279995+854935079+862036594+869224257+876072560
603+878867755+867615396+830345470+769557649+711552639+687226373+704563096
594+746404340+789813987+821802357+840734896+850816681+857532485+864632014
584+872647978+880276510+886685996+892057938+896775264+900746198+903620720
574+905618602+907648269+910389232+913598942+916444726+918519751+920235220
564+922025448+923708935+924982211+925943674+926742244+927311573+927587364
554+927399243+926596501+926006182+927359778+931294227+936198614+939691929
544+940492486+938308601+931706888+916006969+885979070+844990693+809872935
534+798917689+813215276+835927516+848721328+841311377+807869026+749249330
524+683486601+639031794+634705079+670198881+727147539+780804445+818300566
514+842154643+858646577+870931515+879786243+885190829+886319488+881336635
504+869161351+853068106+840844551+836152785+832259059+819840628+797700366
494+774581556+760946465+758387597+757669082+749317996+734179659+721589198
484+717556153+714773672+698857755+664056577+618651961+579278604+561985981
475+576416597+622667525+685350461+740586564+775612613+788658643+779558053
465+749632392+705138319+659271644+629055293+627117138+652401622+687525539
455+717754869+742743432+764706963+782081761+794698576+805369289+815243088
445+822447305+825832886+827232966+829258064+833038228+839016116+847355812
435+856447529+863378073+866951245+868571760+870270013+872782662+875617256
425+878269953+880866299+883681492+886427885+888550122+890790158+894546352
415+899066684+902424652+903365389+902474645+901193556+899798442+897944911
405+896241692+895784136+896972456+899550395+902386379+901751694+893351873
395+879068986+863320266+847962289+833946651+823737466+821293881+829726611
385+848041749+868593015+883442185+892097138+896041254+893886571+883240689
375+868207040+862310002
##END=
