##TITLE=VLL-024 X15743
##JCAMP-DX=5.0
##DATA TYPE=LINK
##BLOCKS=1


$$ === CHEMSPECTRA SPECTRUM ORIG ===
##TITLE=VLL-024 X15743
##JCAMP-DX=5.00
##DATA TYPE=INFRARED SPECTRUM
##DATA CLASS=XYDATA
##$CSCATEGORY=SPECTRUM
##ORIGIN=Angelika Moesle
##OWNER=
##XUNITS=1/CM
##YUNITS=TRANSMITTANCE
##XFACTOR=1.0
##YFACTOR=8.2570606e-10
##FIRSTX=3997.453
##LASTX=373.96442
##MAXX=3997.453
##MAXY=0.8865951301265473
##MINX=373.96442
##MINY=0.5585199001698273
##NPOINTS=2559
##XYDATA= (X++(Y..Y))
2559I91062908I91333755I91295496I91071213I90842166I90605901I90436624I90482534
2551I90624741I90614491I90522237I90627196I90972102I91397495I91825993I92182665
2543I92240487I91878184I91358009I91097561I91236231I91588356I91930519I92182882
2535I92381178I92626322I92982850I93333170I93472923I93402108I93302058I93202297
2527I92918388I92403050I91911462I91678805I91619252I91553201I91540785I91727820
2519I91999096I92107159I92036560I91934994I91865840I91838698I91903950I92046161
2511I92148449I92188657I92285314I92534573I92889947I93228211I93547636I94013165
2503I94687890I95300463I95515434I95308620I94829375I94196446I93578026I93164832
2495I92905972I92458128I91603727I90795173I90878548I92111706I93791409I94970355
2487I95299741I95050337I94715104I94654323I94789817I94824322I94684353I94534491
2479I94625954I95063114I95661899I95991430I95800930I95358212I94961693I94562503
2471I94062901I93688255I93684068I93771052I93537241I93190891I93218178I93593257
2463I93862873I93976783I94268127I94824755I95333668I95330131I94762098I94411128
2455I94795375I95734086I96796884I97485686I97425843I96660380I95744625I95308331
2447I95417188I95489230I95114944I94620757I94402826I94368755I94304220I94391999
2439I94920113I95656770I96011281I95777181I95226039I94641905I94104120I93774301
2431I93960469I94569360I95038138I95125989I95081738I95192328I95458406I95564231
2423I95323490I95060010I95320025I96190014I97074513I97532028I97524883I97152546
2415I96755594I96729607I97014670I97125909I96840990I96493774I96437252I96662113
2407I97071481I97669905I98292873I98534769I98175422I97399640I96539757I95863588
2399I95583650I95849219I96524092I97211883I97713289I98202712I98822792I99303192
2391I99175422I98415517I97545600I96919312I96470314I96105917I95953532I96083973
2383I96268842I96369397I96430679I96459847I96402747I96284939I96220838I96321393
2375I96666588I97233900I97842647I98289336I98477309I98410248I98210436I98110891
2367I98265875I98520402I98585660I98430388I98237434I98112912I98051410I98079346
2359I98290996I98780852I99403603I99671991I99388588I98983479I98911148I99219023
2351I99645932I99807629I99409306I98616195I98033724I98094794I98573172I98899743
2343I98827484I98650917I98929339I99828997A000809142A001234680A000926156
2336A000282684I99943989A000145317A000433557A000114854I99333438I99116085
2329I99851302A001041509A001914025A002118817A001804374A001205878A000671122
2322A000506176A000564142A000514117A000453769A000694871A001049594A001147984
2315A001201835A001772901A002822345A003355581A002917053A002061646A001277198
2308A000693138A000374725A000388079A000544290A000487047A000205231A000120557
2301A000556779A001450950A002408212A002836277A002750086A002899729A003755136
2294A004976311A005718242A005553296A004989377A004644832A004538574A004495695
2287A004473606A004474689A004538140A004778445A005147970A005280793A004893874
2280A004196483A003693561A003523635A003397886A003349521A003774121A004554527
2273A005056799A005174029A005418741A006003233A006397872A006091012A005233294
2266A004213591A003360494A002978845A003226877A003899364A004530489A004846520
2259A004977466A005142051A005357238A005528825A005572858A005397301A005020056
2252A004655227A004595168A005034638A005832801A006473021A006514456A006052031
2245A005578485A005456205A005700989A006203550A006833159A007351961A007519145
2238A007371524A007200009A007188676A007217045A007121398A006998176A007065238
2231A007396356A007950891A008604754A009036284A008928293A008449842A008224766
2224A008627060A009274498A009457852A008991023A008400684A008269954A008609663
2217A009018309A009257318A009399453A009506794A009491851A009361700A009298103
2210A009392523A009543537A009724869A010029134A010349930A010380609A010087027
2203A009879925A010103413A010601210A011002782A011281854A011779001A012650867
2196A013531756A013884386A013648915A013343711A013436182A013835155A014126066
2189A014157972A014196014A014511613A015048390A015532904A015760866A015687383
2182A015384196A015067517A015035902A015310426A015500709A015362761A015205467
2175A015291730A015264516A014840277A014536445A014913041A015582641A015831900
2168A015731344A015784473A016029474A016197451A016383764A016981607A018015679
2161A018866899A018858309A018045347A017197592A016965080A017301251A017693800
2154A017721015A017341676A016763464A016138042A015494068A014872400A014270077
2147A013500500A012385944A011025088A009647268A008283525A006762272A004927874
2140A002641735I99542273I94952597I88166221I78913962I67689068I55658287
2133I44129922I34007097I25640563I18984627I13816812I10047100I08023354I08373028
2125I11347536I16414940I22546226I28759443I34463097I39498812I43880447I47535454
2117I50386740I52524970I54090181I55157170I55913393I56750393I57939590I59336755
2109I60620083I61718975I62778308I63874890I65073038I66554589I68335496I70068400
2101I71432504I72498479I73518038I74613104I75789812I76989187I78024916I78692061
2093I79020220I79256413I79540032I79730822I79559451I78745696I76993085I74133426
2085I70287197I65742493I60779542I55543727I49767670I42847678I34749966I26639332
2077I20083158I15836945I13703985I13176736I13853483I15434434I17516501I19488127
2069I20870422I21749651I22527458I23330458I24069645I24855104I25795475I26589379
2061I26857407I26731153I26734546I27243315I28272041I29582078I30829385I31758494
2053I32381462I32952311I33695613I34557734I35343120I36071191I36886102I37624712
2045I37952149I37971278I38206244I38920239I39823506I40487331I40758751I40741715
2037I40563704I40288746I40017323I39865302I39757740I39470082I38950124I38390897
2029I37959151I37648966I37376102I37059060I36626376I36050185I35363477I34601695
2021I33745638I32798049I31900845I31263657I30933261I30764561I30676133I30787805
2013I31138486I31344145I30873707I29791057I28883892I28769044I29207142I29588575
2005I29746085I29973905I30471846I31082253I31543740I31818192I32045362I32280545
1997I32488221I32740588I33186988I33825115I34462664I34934113I35287176I35696689
1989I36159114I36408590I36272952I35951795I35803669I36038635I36644202I37401295
1981I38007155I38384469I38782431I39449725I40360355I41349235I42371248I43494250
1973I44670525I45666263I46343081I46898049I47629441I48522890I49259623I49631744
1965I49815169I50184691I50910957I51782750I52452206I52857821I53374313I54462594
1957I56099706I57651711I58474851I58593453I58590927I58909052I59497658I60104745
1949I60629900I61101710I61504293I61779972I61944845I62100262I62322163I62561677
1941I62685693I62671400I62747268I63207167I64055355I64966635I65625624I65957753
1933I66083353I66233649I66633921I67288362I67964314I68466009I68761034I68850257
1925I68764860I68653477I68628139I68634925I68698305I69065805I69817841I70539127
1917I70686026I70188662I69472214I68993041I68941861I69257676I69697218I69976579
1909I70055406I70184836I70536095I70968924I71306756I71595717I71923804I72244383
1901I72524321I72803249I72982777I72801733I72190604I71521871I71316934I71658375
1893I72042117I71934704I71287410I70318814I69112580I67810193I66890905I66755844
1885I67205709I67759522I68338600I69243022I70514656I71696706I72334688I72482814
1877I72541574I72710995I72827359I72691866I72308701I71815813I71405073I71290153
1869I71553200I72026381I72465345I72795598I73092211I73410841I73737267I74043193
1861I74309416I74553983I74869293I75327098I75801723I76062171I76111185I76231881
1853I76589347I77008822I77251368I77306085I77308395I77358348I77512032I77827991
1845I78319652I78873393I79257709I79303984I79103162I78935762I78980518I79173688
1837I79357330I79447057I79424030I79274388I79027150I78779695I78574542I78344123
1829I78120779I78129947I78439554I78730031I78687225I78397325I78099123I77828064
1821I77544372I77342033I77313953I77416530I77583063I77828208I78179250I78616193
1813I79078186I79451894I79612075I79572373I79492390I79410241I79111536I78460560
1805I77721661I77323193I77398700I77737686I78099627I78411906I78695887I78917643
1797I78975104I78840693I78640592I78565663I78763526I79281390I79980153I80536421
1789I80675668I80386706I79875336I79417750I79247318I79408438I79707939I79949474
1781I80179243I80567316I81097164I81524578I81647873I81540387I81450154I81492383
1773I81537716I81487403I81508337I81755502I81991912I81834763I81336822I80986646
1765I81133329I81656463I82152166I82279791I82023747I81716450I81707932I81967730
1757I82138090I81996460I81700930I81534468I81589618I81789213I82010103I82103151
1749I82021794I81968307I82164077I82556337I82993351I83472814I83971693I84323096
1741I84443142I84384238I84158511I83811007I83568316I83647938I84020852I84458734
1733I84706838I84656308I84482700I84498797I84779097I85087476I85229972I85283895
1725I85392175I85510705I85508178I85412315I85383512I85493015I85673918I85866150
1717I86070509I86285912I86479228I86617898I86696148I86745740I86790134I86784937
1709I86675430I86548815I86589240I86816193I87039899I87163337I87310814I87532570
1701I87645325I87534375I87363073I87327705I87404800I87470995I87521670I87649869
1693I87861234I88030583I88082413I88096778I88159002I88236097I88275872I88267134
1685I88176327I87993046I87835247I87859790I88084867I88362929I88495679I88404147
1677I88236097I88217329I88375778I88552345I88639907I88624604I88465000I88156620
1669I87848601I87709282I87748984I87881374I88027768I88117207I88126663I88113886
1661I88085661I87966049I87825502I87884334I88127096I88240643I88129984I88158930
1653I88643950I89387468I89937961I90135968I90156685I90119653I89910602I89435400
1645I88848381I88433960I88372602I88643878I89038953I89298968I89371010I89460304
1637I89716566I90022996I90220787I90351296I90510903I90659968I90739229I90811848
1629I90942068I91051146I90995995I90747674I90443048I90275432I90334913I90541150
1621I90706384I90654265I90336862I89891978I89544690I89399088I89385808I89436266
1613I89605615I89933991I90292396I90521154I90660329I90864977I91129179I91309933
1605I91373818I91421315I91522738I91693892I91927054I92144768I92240703I92226482
1597I92247416I92446362I92819637I93147940I93145775I92811765I92502884I92514722
1589I92730343I92856520I92885110I93090552I93559907I93979959I94072574I94008256
1581I94057776I94033229I93522370I92596365I91819568I91524038I91438855I91140007
1573I90643654I90399520I90744570I91502887I92230886I92765209I93285022I93886117
1565I94414160I94736977I94871315I94835294I94664283I94530596I94608774I94890445
1557I95263864I95627611I95893974I96090181I96398994I96903792I97443385
1550I97852464I98103813I98135940I97893899I97590428I97587541I97990629
1543I98602407I99209422I99725915A000154051A000540392A000911358A001222769
1536A001421859A001526962A001596333A001636397A001583267A001422220A001274527
1529A001226379A001171950A001020427A000912007A000984410A001132392A001236918
1522A001377103A001591785A001731827A001743810A001822782A002099471A002395941
1515A002451019A002216269A001845665A001588970A001754132A002491371A003499669
1508A004200309A004280363A003876481A003330825A003003388A003147183A003694355
1501A004274733A004562178A004478081A004085893A003531647A003090445A003025044
1494A003312995A003644980A003760261A003673132A003507248A003285492A003043596
1487A002985269A003314655A003966714A004608883A004856193A004506956A003712618
1480A002971337A002816065A003387708A004288881A004935959A005113682A005111299
1473A005248379A005446388A005434333A005176556A004800610A004296172A003694572
1466A003403228A003869768A004960647A006054269A006662943A006672833A006198280
1459A005542179A005128552A005183053A005565640A005999187A006318904A006448911
1452A006331897A006052103A005926788A006208314A006711597A007051378A007226069
1445A007531561A007890254A007778438A006955731A005896181A005344028A005585130
1438A006237044A006758735A007035930A007278404A007511782A007544266A007323809
1431A007001425A006753248A006714557A006904046A007144928A007238412A007161029
1424A006955803A006606783A006179007A005969955A006327349A007247143A008198923
1417A008566062A008323517A007992109A007807457A007402853A006587653A005951909
1410A006270900A007621072A009379746A010846571A011614633A011544612A010761969
1403A009733098A009010802A008707475A008473520A008094830A007739024A007514741
1396A007235597A006738378A006192722A006082566A006758374A007824348A008428475
1389A008251258A007761041A007611976A008061986A008894727A009679824A010030144
1382A009688054A008562955A006917617A005469632A004990099A005614438A006635657
1375A007234153A007312836A007367554A007721844A008212711A008609735A009032165
1368A009718083A010566557A011192773A011292971A010800372A009934425A009176397
1361A008893644A008934212A008883682A008713178A008828893A009444425A010225047
1354A010679243A010694403A010596951A010808598A011440664A012094022A012244890
1347A011975059A011883022A012098498A012098787A011683643A011284020A011214793
1340A011474592A012115606A012996567A013546410A013503820A013377566A013621913
1333A014010135A014290290A014778413A015720733A016486918A016119995A014641404
1326A013138341A012514002A012752794A013391643A014038576A014385287A014355113
1319A014308697A014687458A015464756A016100216A015992586A015112491A014228426
1312A014053663A014269211A014207275A014236511A015195072A016667095A017394949
1305A017277574A017352648A017935552A018405918A018661024A019164379A019598720
1298A018981531A017299663A015846337A015569069A015845902A015491971A014586109
1291A014450615A015689257A017135512A017384482A016788584A016965802A018454283
1284A019869783A019783593A018661169A018097827A018667449A019567754A020033935
1277A019803516A018561624A016650777A015924948A017852466A021060063A022795493
1270A022426186A021416086A020639073A019756812A018550146A017229498A016129452
1263A016250364A019061730A024254017A028658607A029402270A026839874A023274305
1256A020573307A019395736A019655390A020999426A022896265A024695364A025723223
1249A025370378A023598854A021529346A020781279A021818235A023423658A024139168
1242A023674217A022585431A021322532A020205955A019760999A020237212A020992136
1235A021135425A020708516A020525524A020960013A021579299A021862197A021706419
1228A021267165A020717972A020230787A019998058A020182061A020812753A021761569
1221A022854614A023895756A024622022A024890046A024871426A024807469A024619352
1214A024018978A022962167A021820257A021142355A021276405A022101783A023090663
1207A023728284A023886733A023739762A023541322A023657253A024438669A025655946
1200A026446747A026226507A025316166A024484724A024264191A024639776A025052397
1193A024897413A024202404A023534536A023373128A023758454A024179593A023848258
1186A022693350A021798601A022192521A023460978A024137941A023352338A021648309
1179A020468135A021068942A023524647A026567876A028450277A028261077A026832511
1172A025834824A025652048A025326416A024669088A024645050A025629236A027101982
1165A028859285A030630591A031087314A029318389A026745959A025583471A026145081
1158A027516620A029516180A031955643A033409113A032901355A031699959A031533642
1151A032256804A032546776A031678447A029863468A027702139A025877558A025053913
1144A025605344A027242168A029099881A030428249A030904250A030424355A029369281
1137A028764215A029298538A030384364A030791350A029911111A028079168A026105162
1130A024768994A024427480A025103288A026824714A029222237A031046096A031295138
1123A030619908A030536894A031607633A033082687A034063482A034208645A033465996
1116A031989209A030407391A029554583A029696862A030289728A030691661A030983438
1109A031820438A033434090A035085784A035865829A035584158A034693018A033780512
1102A033197030A032919402A032708618A032477189A032443405A032819496A033488374
1095A034111919A034462672A034564960A034597444A034812992A035315048A035719291
1088A035389760A034215290A032953257A032469031A032705582A032949792A032932395
1081A032953762A033117120A033166203A033082543A033229297A033801731A034582934
1074A035333960A036072209A036834641A037465982A037795224A037838896A037705279
1067A037516657A037461362A037662906A037973524A038102954A037974891A037832255
1060A037986878A038540403A039321671A039991347A040240461A040052994A039726567
1053A039643842A040078402A040962108A041795787A042054286A041720064A041264929
1046A041151524A041450588A041853103A041979718A041787846A041680505A042028082
1039A042575976A042726701A042540966A042564787A042984406A043549841A043970543
1032A044121123A044041141A043991838A044339776A045069507A045699188A045862690
1025A045565426A045023813A044510420A044290833A044545723A045190635A045839659
1018A046140679A046131439A046200377A046668072A047372249A047842615A047890185
1011A047802479A047972983A048484423A049084580A049491060A049630741A049631968
1004A049708919A050008492A050463410A050882740A051215591A051515881A051815459
997A052166717A052653758A053306177A054068825A054838836A055509158A056054020
990A056585600A057259675A058057694A058780351A059333731A059725486A059949625
983A060093347A060318641A060622617A060777168A060615541A060182137A059605801
976A059010337A058473054A058089023A058039864A058355607A058732636A058960817
969A059170951A059559458A060173691A060905154A061511591A061800336A061884866
962A062070818A062468420A062765683A062742295A062552589A062422726A062554611
955A063056738A063766763A064293434A064442065A064393556A064337684A064086548
948A063385258A062449219A061642537A061144813A060981600A061151382A061665059
941A062332566A062763879A062934383A063337832A064270334A065244845A065907374
934A066382793A066651543A066774692A067053259A067573217A068079171A068533006
927A069479223A071312105A073064571A073741823A073722621A073601493A073564750
920A073469609A073121743A072529021A071816326A071043500A070144709A068989728
913A067447613A065239290A062009893A057911662A053597954A049416131A045355509
906A041136582A035637720A027722134A019858595A014182588A009132219A003122712
899I96350843I90241360I85068780I80257709I75586824I71054970I66300926
892I60706851I54603718I49050861I44029944I38972502I33685146I28430703
885I23623173I19498666I16115151I13534492I11836237I11163966I11927986
878I14362683I17690544I21221680I25321572I30484551I36602193I43177641
871I49822749I56336910I62600225I68498565I73856375I78518164I82513025
864I86050947I89355634I92503822I95387159I97819475I99718403A001168629
857A002273079A003013422A003301734A003029086A002050746A000180109I97016186
850I91888506I84925563I77377838I69525848I60649751I51162887I43429066
843I39055949I37580389I37821853I38828201I40725473I44958188I51312024
836I56414005I60166392I64137070I68518489I72883376I77092197I81140764
829I85069935I89124277I93495228I98324274A004236763A010955789A015902642
822A018378776A020054652A022306648A025224489A027873653A029871120A031608932
815A033327254A034855510A036058494A037083395A038147565A039329759A040578365
808A041854330A043145382A044524717A046229251A048416712A050978459A054042549
801A058273098A062910052A065843634A066983022A066912207A065457004A061788931
794A054655339A043320505A028226788A008804710I82242182I47226930I10123834
787H81361213H64593135H57586519H57429800H61468119H67165205H72867848
780H78218872H83519366H89104490H94994096I00311915I03887662I05684162
773I06295941I05984746I04607576I02082712H98632285H94460711H89585468
766H84330090H80014434H77519893H76272081H75649687H75473195H75892958
759H77156864H79231429H81931485H85302367H89308272H93563148H97993941
752I03238491I09426154I15137677I19464738I23111012I26900430I30813720
745I34358788I37457601I40389230I43193378I45755341I48344229I51419148
738I54722825I57505389I59768501I62041142I64604043I67320196I69891760
731I72200494I74393802I76611941I78702741I80382231I81466468I81619287
724I79982387I74996413I64569250I47849031I27686466I09450842H98175490
717H97073206I04985832I16010048I24948369I30141738I31423983I29204111
710I25034343I21308304I20265356I23067339I29072804I36569276I44331755
703I51709409I58153478I63534748I68267280I72676274I76604578I79864150
696I82645270I85255526I87775621I90092512I92165196I94105997I96017273
689I97913678I99775218A001552805A003179450A004636458A005936966A007029578
682A007811138A008291538A008620996A008904760A009121825A009252554A009390934
675A009679680A010241795A011213927A012707317A014693522A016995687A019374080
668A021624776A023709516A025777725A027971105A030276229A032621850A035003997
661A037425846A039800918A042004189A043995014A045819017A047518787A049147815
654A050882451A052981050A055508292A058129231A060210434A061032996A059805613
647A055680600A048221593A037993736A026179586A013214859I98041664I78986798
640I55375028I28377506I00635454H75273239H55096093H42186299H37497440
633H40373702H48676928H59770587H71535073H82712901H92776462I01731458
626I09853208I17297345I23862832I29142030I32846341I34962771I35760790
619I35856148I36186617I37599374I40363387I44185289I48608575I53243223
612I57779336I62056518I66061556I69740097I72917448I75424910I77087216
605I77522571I76125623I72308124I65768408I56719714I45994277I34816305
598I24360412I15507776I08924965I05154820I04487530I06726748I11147725
591I16798250I22908240I29013683I34787863I39980583I44565422I48741615
584I52649130I56180555I59162859I61650181I63911416I66133093I68210758
577I69855595I70880712I71406517I71825053I72512988I73539333I74678576
570I75698641I76591513I77552023I78759267I80134126I81329748I82031106
563I82178225I81832092I81006353I79742732I78188201I76539539I75097546
556I74342549I74693447I76152761I78350981I80893382I83525293I86060475
549I88355927I90363860I92090339I93479420I94441374I95043335I95519259
542I95932093I95990203I95435523I94476745I93604230I93099720I92916367
535I92886337I92857679I92708037I92349704I91756620I90999605I90225479
528I89539421I88883753I87965327I86231340I83049225I78182787I72236948
521I66619556I62911632I61970327I63434120I66128545I68972035I71453655
514I73461444I75006807I76147206I76986444I77688600I78500840I79660584
507I81213889I82989743I84795699I86563614I88302797I90002926I91623727
500I93117550I94469960I95742530I97049248I98481279A000085113A001831805
493A003560161A005084446A006385965A007568737A008685098A009749268A010797196
486A011789541A012631305A013365439A014146928A015011431A015876583A016739566
479A017636701A018413353A018773418A018663551A018491531A018787278A019659505
472A020709526A021497440A021957627A022322886A022806538A023499021A024490210
465A025890913A027679905A029633266A031470984A033026670A034278164A035278738
458A036051275A036531025A036685793A036713801A036952449A037494062A038047298
451A038323623A038448437A038847483A039790741A041175490A042707283A044163136
444A045459236A046610178A047689147A048743716A049713611A050555303A051402842
437A052388545A053384644A054188005A054840280A055499557A056197887A056955482
430A057851530A058795871A059534265A060011633A060407358A060740132A060753491
423A060312288A059717690A059470091A059757970A060306225A060752264A061028160
416A061266880A061500976A061618860A061533103A061277275A060998491A060878301
409A060957634A061058839A060989323A060738548A060342679A059713792A058813557
402A057860770A057163162A056799776A056553982A056087154A055131624A053532481
395A051099082A047439021A041912657A033668262A022015881A007361418I91800583
388I78165968I68156113I61585863I57439917I55308545I55722244I59404245
381I66450857I76147495I87348856I98921687A009919122A019577646A027413394
374A033366812A037709683A040794275A042970619A044560810A045717090A046472880
367A047014566A047614073A048271618A048756349A048933494A048759525A048125801
360A046967934A045353993A043335809A040879599A037932017A034351144A029770348
353A023598999A014956786A002369087I83700850I57104972I22853379H84626415
346H48845050H21997386H07495452H04420317H09176165H18096295H28418283
339H37820040H44447101H47788026H49074819H50529228H54208634H61495546
332H73244588H89607773I09239769I29046961I45363008I55706941I59711113
325I58749520I54761300I49257241I43180312I37202206I31716482I26643591
318I21582972I16323408I11186416I06692676I02788121H98668017H93611080
311H87822895H82298335H77957702H74971501H72818256H70939175H69285893
304H68306037H68654624H70959965H75556282H82289384H90598891H99533819
297I07462976I12168222I11839774I06210111H96687659H85404655H74093860
290H63608082H54151391H45672174H37996319H30941193H24607353H19325411
283H15060141H11238021H07482747H04073390H01306201G98926219G96609906
276G94512101G92928623G91840992G91083758G90561851G90106500G89474076
269G88581637G87488304G86242802G85048625G84345530G84300342G84368052
262G83817632G82644244G81539866G80973709G80752458G80551564G80430869
255G80652914G81322153G82343949G83482327G84457491G85286767G86453370
248G88343134G90467143G91578451G90841862G88869877G87354614G87648125
241G89722542G92219754G93241622G91201057G85407535G76328089G65373967
234G54280308G44482176G36833607G31559894G28184247G25682127G23072737
227G19976307G16693853G13897356G12085264G11125548G10424980G09569428
220G08619024G07860563G07488587G07516306G07923870G08872398G10580758
213G12811386G14778245G16020716G17222545G19794903G23621714G26743048
206G28943575G31557729G35717751G41922162G50328614G60511066G70014389
199G73809871G67200857G50692000G31144101G16660715G10569858G10817962
192G13960880G18131659G22850909G27903010G33004919G37927229G42518781
185G46770914G50872249G54943844G58813245G62328067G65720677G69448232
178G73793557G78687931G83834740G89036555G94343474G99787546H05205415
171H10384852H14870074H17593446H17518516H14939156H11290718H06988344
164H00069000G87934704G70168146G48898893G27099360G07545686F92674952
157F84016425F81635866F84503249F90985721F98932420G06348260G12436595
150G17610402G22575013G27693958G32996257G38289171G43170768G47211611
143G50399718G53256057G56241825G59289458G62087759G64501956G66587490
136G68480070G70409392G72721302G75769223G79576616G83513078G86529454
129G87915286G87803614G86966758G86376635G86908432G88920985G91921913
122G95022674G97795205H00287436H02416426H04128756H06013540H08876159
115H12753934H16840904H20070229H21664607H21904771H22340704H24286700
108H27230241H29822811H32044055H34623632H36846247H36732843H33772917
101H29916870H27051580H25273777H24118219H23791215H24585477H26186789
94H28191402H30581200H33268695H35841414H38041002H39907667H41373698
87H42265704H42532071H42006339H40297762H37479249H34576711H32809302
80H32400944H32467428H32287106H32272380H33085631H34396678H35305359
73H35641747H36224435H38085830H41646201H46226060H50451989H53383401
66H55302617H57248326H59760192H62671104H66192783H71208141H77536856
59H82613284H83880153H81083801H74528999H61928523H38007291G99476207
52G51533259G07570518F80888089F76414922F88664572G07942999G27729474
45G45323868G59237628G68685729G74701300G80148404G87743338G97560383
38H06951384H13212172H16232446H18215331H21004103H24179361H25503834
31H24259415H21995216H20297544H19992339H20929318H22364092H23872136
24H25602657H28029993H31750041H36690614H41748056H46109118H50153426
17H53122012H52672511H49953831H49591456H53189076H56703681H55598220
10H50441878H46056783H45820156H47890531H48866489H48576950H49042191
3H50688396H50801731H47910454
$$ === CHEMSPECTRA INTEGRALS AND MULTIPLETS ===
##$OBSERVEDINTEGRALS= (X Y Z)

##$OBSERVEDMULTIPLETS=
##$OBSERVEDMULTIPLETSPEAKS=
$$ === CHEMSPECTRA SIMULATION ===
##$CSSIMULATIONPEAKS=
##END=


$$ === CHEMSPECTRA PEAK TABLE EDIT ===
##TITLE=VLL-024 X15743
##JCAMP-DX=5.00
##DATA TYPE=INFRAREDPEAKTABLE
##DATA CLASS=PEAKTABLE
##$CSCATEGORY=EDIT_PEAK
##$CSTHRESHOLD=0.93
##MAXX=3997.453
##MAXY=0.8865951301265473
##MINX=373.96442
##MINY=0.5585199001698273
##$CSSOLVENTNAME=- - -
##$CSSOLVENTVALUE=0
##$CSSOLVENTX=0
##NPOINTS=37
##PEAKTABLE= (XY..XY)
379.63054756841257, 0.700675129991317
383.88014324472215, 0.6983988284793453
392.3793345973413, 0.7015128137434233
412.2107810867865, 0.6770726442915803
441.95795082095356, 0.5585199001698273
481.62084379984344, 0.6872123477366228
485.870439476153, 0.6873185038105206
509.9514816419073, 0.6802093984002628
551.0309065129004, 0.649315952961908
593.5268632759967, 0.562830865269548
647.3550751759185, 0.5867218378039395
681.3518405863952, 0.5841776136667371
716.7651378889755, 0.6501234769744668
735.180052486317, 0.6444064979443661
746.512307623143, 0.6476015452494724
803.1735833072712, 0.7169655566854842
858.4183270992962, 0.664214730534021
916.4961346755276, 0.7888040547762827
1008.5707076622607, 0.8577826621288469
1041.1509411806342, 0.8428060411179276
1106.311408217381, 0.7955133912947672
1161.5561520094057, 0.8051439528233287
1213.9678320172006, 0.7468408347154317
1270.6291077013288, 0.6915267114424863
1325.8738514933762, 0.8349654674802975
1375.452467716966, 0.7598686812572574
1388.2012547458949, 0.7407187824578283
1450.5286579984358, 0.7228835224790616
1483.1088915168098, 0.7079849843617061
1565.267741258796, 0.7741658089344573
1619.0959531587177, 0.7523536083798339
3184.36369393276, 0.7726987604635341
3216.9439274511337, 0.7668902279712067
3226.859650695856, 0.768464922915466
3290.6035858405003, 0.7652075290228871
3310.435032329945, 0.7540155647662201
3385.511222611415, 0.7497603893221494
##END=


$$ === CHEMSPECTRA PEAK TABLE AUTO ===
##TITLE=VLL-024 X15743
##JCAMP-DX=5.00
##DATA TYPE=INFRAREDPEAKTABLE
##DATA CLASS=PEAKTABLE
##$CSCATEGORY=AUTO_PEAK
##$CSTHRESHOLD=0.93
##MAXX=3997.453
##MAXY=0.8865951301265473
##MINX=373.96442
##MINY=0.5585199001698273
##NPOINTS=96
##PEAKTABLE= (XY..XY)
3988.953808647381, 0.8178095224827414
3983.287681078968, 0.8178802136556562
3970.5388940500393, 0.8183552621689196
3943.624788100078, 0.818721234911657
3933.709064855356, 0.8189672234811098
3902.545363229085, 0.8181055785648483
3891.2131080922595, 0.8212921021062973
3885.5469805238467, 0.8211931577491275
3869.9651297107116, 0.820490956673052
3865.715534034402, 0.8200837374354994
3851.5502151133696, 0.8210912945210357
3840.217959976544, 0.8218321204751858
3830.3022367318217, 0.8210030199375732
3817.553449702893, 0.820565462607964
3810.470790242377, 0.8216450212619323
3803.3881307818606, 0.8216270803206606
3792.055875645035, 0.8230056766813184
3784.973216184519, 0.8227642773861471
3770.807897263487, 0.822059453041919
3750.976450774042, 0.8223648668508039
3739.6441956372164, 0.8225855830348783
3726.8954086082877, 0.8241462112506994
3716.9796853635653, 0.8240970974285445
3697.1482388741206, 0.8240824939911674
3385.511222611415, 0.7497603884964433
3310.435032329945, 0.7540155647662201
3290.6035858405003, 0.7652075290228871
3226.859650695856, 0.768464922915466
3216.9439274511337, 0.7668902279712067
3184.36369393276, 0.7726987604635341
3139.034673385457, 0.7915143374849176
3120.6197587881156, 0.7948836087686839
3096.538716622361, 0.7998021242588224
3082.373397701329, 0.8000611664153776
3056.8758236434714, 0.80202227858442
3044.1270366145427, 0.7982561589312146
3021.462526340891, 0.8020001653504272
2978.966569577795, 0.8083131910341177
2963.3847187646597, 0.8076402546322207
2949.219399843628, 0.8069740535146551
2927.97142146208, 0.8069816830386496
2913.8061025410475, 0.8080075980470177
2901.0573155121187, 0.8085704447113471
2886.8919965910864, 0.8103893397457332
2882.6424009147768, 0.8104200964707622
2874.1432095621576, 0.8100066183812747
2864.2274863174353, 0.8106021886024679
2857.1448268569193, 0.8104589583264761
2848.6456355043, 0.8108171818178403
2833.063784691165, 0.812138318945195
2824.564593338546, 0.812893331355162
2810.399274417514, 0.8136371372824827
2791.984359820172, 0.8145993350313189
2777.8190408991395, 0.8152424692243923
2756.5710625175916, 0.8156615497294968
2746.6553392728692, 0.8159770371523137
2735.3230841360437, 0.8155575396656489
2722.574297107115, 0.815653503223942
2716.908169538702, 0.815904915856503
2699.909786833464, 0.816105247009368
2672.9956808835027, 0.8176764252715178
2660.2468938545735, 0.8169418573435965
2636.165851688819, 0.8192874190798809
2626.250128444097, 0.819515645886277
2613.501341415168, 0.8207586406692313
2599.336022494136, 0.8177788854850911
2582.3376397888974, 0.8211899399726117
2561.0896614073495, 0.8237140779841984
1619.0959531587177, 0.7523536083798339
1565.267741258796, 0.7741658089344573
1483.1088915168098, 0.707984983536
1450.5286579984358, 0.7228835224790616
1388.2012547458949, 0.7407187824578283
1375.452467716966, 0.7598686812572574
1270.6291077013288, 0.6915267114424863
1213.9678320172006, 0.7468408347154317
1160.1396201172788, 0.8045205472251469
1107.7279401094602, 0.7943047285440816
916.4961346755276, 0.7888040547762827
858.4183270992962, 0.664214730534021
803.1735833072712, 0.7169655566854842
746.512307623143, 0.6476015452494724
735.180052486317, 0.6444064979443661
716.7651378889755, 0.6501234761487608
681.3518405863952, 0.5841776136667371
647.3550751759185, 0.5867218378039395
593.5268632759967, 0.562830865269548
551.0309065129004, 0.649315952961908
509.9514816419073, 0.6802093984002628
485.870439476153, 0.6873185038105206
481.62084379984344, 0.6872123477366228
441.95795082095356, 0.5585199001698273
412.2107810867865, 0.6770726434658743
392.3793345973413, 0.7015128137434233
383.88014324472215, 0.6983988284793453
379.63054756841257, 0.700675129991317
##END=

##END=

