##TITLE=X8601
##JCAMP-DX=4.24
##DATA TYPE=INFRARED SPECTRUM
##DATE=2/11/2018
##SAMPLING PROCEDURE=ATR platinum Diamond 1 Refl
##ORIGIN=ComPlat
##XUNITS=1/CM
##YUNITS=TRANSMITTANCE
##RESOLUTION=4
##FIRSTX=3997.453
##LASTX=373.96442
##DELTAX=-1.4165319
##MAXY=0.95702267
##MINY=0.54466689
##XFACTOR=1
##YFACTOR=8.9129681e-010
##NPOINTS=2559
##FIRSTY=0.83760774
##XYDATA=(X++(Y..Y))
3997+939762969+939526971+938946504+938522790+938632396+939102989+939537403
3988+939850507+940147763+940297159+940044844+939425656+938774036+938416192
3978+938455514+938709502+938837900+938686096+938454979+938419804+938631527
3968+938990373+939431140+939873780+940121281+940027523+939697968+939342933
3958+939043605+938850540+938861774+939045277+939266362+939519013+939848100
3948+940114727+940115262+939791926+939206510+938561376+938131175+937939447
3938+937832248+937877455+938246065+938708700+938688571+938062228+937523156
3928+937710604+938471029+939125392+939299599+939395964+939871640+940384296
3918+940142012+939088277+938189356+938127363+938581572+938984756+939300401
3908+939895046+940865589+941658849+941437630+940066979+938298628+936772361
3898+935853177+935979636+937219280+938853549+939716157+939449330+939440703
3888+940795772+942394263+942201131+940331399+938924903+938368645+937699102
3878+937521016+938781525+940469561+941034178+940555093+939907016+939014849
3869+938255628+938777379+939995959+939878394+937986326+936451499+936890394
3859+939163978+942631131+946120687+946530424+941139505+935112547+933741762
3849+935419499+937687867+939473538+940437662+940618088+940531620+940573416
3839+940273285+939158628+938018693+937763970+938156922+938592406+939036383
3829+939624941+939950217+939782563+939875652+940583715+940492699+938685093
3819+937294246+937429800+937274385+936091917+935680976+936946635+939042067
3809+940791024+941278737+940800989+940996261+942034615+941719504+939126194
3799+937050156+937144515+938001774+938264255+938071657+937903135+937908886
3789+938333937+939370419+940604713+941349423+941572849+941703053+941578935
3779+940730570+939718565+939688070+940710909+941991815+942794505+942712517
3769+941983322+941443113+941291042+940987968+940680682+941054776+941836868
3759+941978307+941515471+941771866+943190533+944801930+945084406+942973794
3750+940063836+939292778+940439735+940726892+938505068+936544722+937438828
3740+940125226+942587262+943374437+942080691+939691013+937762900+937112014
3730+937630623+938613337+939138365+938868997+938530346+938781860+939237740
3720+939379647+939394426+939762702+940725020+941995694+942471770+941022810
3710+938752502+937981712+939059922+940886654+942184412+941941726+940403489
3700+939345541+939768185+940912133+941953429+942968778+944154121+944841386
3690+943693827+940615079+937953089+937514329+938883709+940857832+942490562
3680+943577600+944416401+944493240+942316489+939026285+938331730+940104428
3670+941125194+940076274+939373227+940495374+942361562+943724522+944343843
3660+944652400+944858105+944558776+943578469+942969380+943706600+945151949
3650+945479231+943361597+940455718+939248975+939765912+941024682+942300840
3640+943246908+943737563+943703858+943214608+942708571+942869671+943862550
3631+944623444+943513334+941205710+940508281+941756218+943658852+945263361
3621+945731279+944506681+942750568+942297363+943000410+943643003+943906085
3611+944103230+943899064+942863318+941720173+941456020+941943331+942441276
3601+942552955+942459733+942472305+942584788+942555965+942386506+942595688
3591+943600939+944803736+944618829+942447161+940286526+939921126+940972454
3581+942259445+943013517+943168732+943129878+943316657+943798151+944371328
3571+944891007+945153822+944548879+942724019+940929454+940656474+941568636
3561+942464548+942757523+942708036+942742878+942939755+943070160+942890135
3551+942525537+942385503+942524400+942551952+942324246+942188692+942267938
3541+942236039+941975765+941815669+941994356+942259044+942272486+942216111
3531+942598965+943566967+944638958+945172814+944981688+944382028+943782970
3521+943338726+942928052+942428971+941949618+941743645+941912168+942277100
3512+942568938+942641497+942550013+942537842+942830750+943244433+943169802
3502+942358352+941471201+941264560+941682389+942154787+942401820+942553290
3492+942635010+942405498+941768590+941094231+940926444+941386605+942056081
3482+942475515+942605786+942675469+942778321+942898694+943072834+943222298
3472+943083802+942614011+942164818+942032475+942188157+942559576+943113695
3462+943571514+943575727+943227782+942992853+943030102+943007967+942647248
3452+942131716+941810921+941727328+941673428+941594316+941670820+942009737
3442+942474178+942867531+943163583+943476821+943804637+943978309+943950690
3432+943890571+943864222+943722382+943459835+943324214+943414427+943481301
3422+943252124+942760064+942313011+942236975+942593548+943088483+943324950
3412+943194947+942945038+942870072+943092830+943547172+943957712+943928889
3403+943347353+942613343+942236039+942336417+942705696+943118576+943394365
3393+943377513+943098514+942827942+942780729+942875355+942951525+943075844
3383+943369153+943641532+943571046+943206048+942927183+942949586+943149472
3373+943299136+943225976+942864254+942329529+941836266+941484910+941247841
3363+941124191+941117504+941165252+941301875+941729602+942409042+942743680
3353+942099215+940573149+938861774+937497410+936608787+936265255+936512154
3343+937023473+937186044+936750159+936152906+936063763+936756646+937992010
3333+939325680+940432245+941237141+941843288+942366979+942867330+943369889
3323+943835667+944160876+944327526+944478795+944726296+944968179+945020609
3313+944869607+944657148+944451978+944193577+943900735+943713689+943643672
3303+943487521+943095705+942591943+942253961+942239383+942437999+942582648
3293+942545666+942506210+942760265+943374236+944044448+944319902+944017096
3284+943413357+942987369+942977539+943207051+943281281+942958747+942359756
3274+941812258+941550647+941604614+941872980+942215776+942573753+942989108
3264+943464449+943915314+944288939+944520524+944408845+943825435+943050298
3254+942615683+942773306+943287433+943772137+944036624+944020975+943615451
3244+942855761+942189428+942115867+942570410+943030035+943191870+943183177
3234+943174884+943169401+943152548+943156895+943178696+943202303+943279877
3224+943499491+943841284+944059561+943809319+943048760+942236173+941935708
3214+942283854+942947111+943515541+943831788+943973762+944016227+943916116
3204+943669819+943454217+943485447+943769328+944053141+944038295+943687608
3194+943301945+943229654+943572718+944168432+944691120+944800192+944440142
3184+943981653+943865560+944142820+944484212+944580042+944486686+944554296
3174+944934609+945315323+945326557+945008638+944639560+944307664+943899130
3165+943373968+942868133+942541319+942389047+942242325+941957442+941555462
3155+941198555+941104731+941389146+941855325+942077481+941819414+941256067
3145+940739799+940484273+940449967+940397136+940164816+939983854+940244396
3135+940846195+941182639+940962824+940630058+940727026+941232661+941679246
3125+941651226+941112087+940404827+939887823+939556596+939197549+938836362
3115+938731169+938954194+939303076+939624941+939902469+940001308+939734949
3105+939314846+939303946+939855523+940405562+940424688+940071459+939782497
3095+939651624+939555793+939527506+939621129+939631361+939299265+938691446
3085+938098808+937627078+937157689+936674123+936356672+936346908+936599960
3075+936970308+937304010+937455480+937307420+936856221+936288460+935910822
3065+935939779+936332062+936773030+936833216+936264586+935188850+933876446
3055+932409029+930787734+929266282+928261098+927930205+928057399+928349639
3046+928678191+929006944+929268422+929427114+929553773+929682640+929672074
3036+929371608+928918135+928705676+929008883+929707784+930415579+930822843
3026+930897073+930835549+930820101+930763993+930401335+929694142+928963677
3016+928515018+928359871+928439384+928872862+929817926+931186303+932607845
3006+933681575+934268128+934483128+934425349+934121138+933716149+933423642
2996+933259533+933085861+932912256+932942884+933328012+933949941+934440395
2986+934482927+934150162+933797936+933573039+933196872+932248464+930520104
2976+928134706+925454259+922822096+920253998+917358016+913634067+908984112
2966+903993635+899652505+896779126+895706466+896248347+897653973+898747297
2956+898553764+896966106+894760399+892995793+892349187+892749028+893405931
2946+893261216+891566159+888086902+882896538+876237151+868614176+860766236
2936+853437908+847238348+842526669+839202626+836825988+835170521+834456573
2927+834943818+836620284+839404653+843286224+848065647+853203381+858122303
2917+862546157+866462503+869906517+872902543+875495585+877738675+879740750
2907+881750450+884004240+886438523+888713244+890518710+891700576+892142145
2897+891742439+890590466+889050891+887599055+886604371+886300562+886832879
2887+888199116+890204670+892529413+894786614+896629529+897971558+898950126
2877+899549050+899555738+899044419+898503876+898269950+898157869+897803570
2867+897032980+895724188+893649687+890731370+887262813+883612759+879753858
2857+875301382+870151945+865054135+861399801+860271903+861648840+864491256
2847+867477919+869716863+871059092+871918089+872749401+873734322+874948287
2837+876594727+878914722+881905464+885131469+887891295+889763502+890944966
2827+891880400+892690446+893162443+893135560+892684962+892035682+891446655
2817+891149801+891328823+892093595+893433617+895215611+897233268+899255339
2808+901106079+902771779+904360974+905913054+907328511+908524487+909562172
2798+910551841+911491154+912267161+912780085+912999365+912942321+912663724
2788+912241949+911746412+911258165+910909283+910818535+910958636+911143141
2778+911205535+911146485+910991270+910585077+909781385+908808969+908158151
2768+908104183+908592832+909503389+910743235+912122245+913373392+914313173
2758+914885080+915092858+915013211+914825830+914650753+914363128+913788680
2748+913030194+912288159+911387834+909800511+907102878+903209336+898312281
2738+892849405+887405054+882469614+878360871+875412460+874061336+874555469
2728+876590380+879411396+882360876+885244821+888184070+891269171+894381357
2718+897248850+899677649+901735632+903633919+905443331+907050181+908364591
2708+909426551+910289828+910938908+911385359+911728891+912056173+912392750
2698+912801485+913374395+914084330+914778817+915340894+915771630+916133686
2689+916499286+916912033+917330732+917617086+917666707+917589066+917654870
2679+917967841+918308029+918426931+918370222+918391154+918655975+919122756
2669+919623175+920016194+920303551+920622674+921088185+921634212+922080997
2659+922411355+922847842+923504144+924121125+924372370+924295666+924186795
2649+924194017+924246246+924309977+924490403+924799629+925001455+924888705
2639+924633112+924615123+924947287+925363244+925547147+925429181+925200740
2629+925149313+925459275+926070370+926668492+926896867+926715437+926471614
2619+926502109+926818223+927255178+927679694+927985911+928115780+928124808
2609+928114510+928168678+928353785+928680933+929144504+929804752+930609648
2599+931203757+931232246+930740253+930030786+929323660+928760112+928520770
2589+928737776+929321587+929923921+930166072+929984108+929633487+929342652
2580+929220941+929453195+930151828+930977723+931329213+931038578+930583567
2570+930484928+930730556+931004339+931284407+931870224+932818498+933679235
2560+933969134+933693278+933222017+932821441+932573940+932608380+933032362
2550+933626270+933967127+933912291+933671009+933442701+933294040+933354026
2540+933793589+934532347+935175609+935369075+935122711+934724744+934474568
2530+934541108+934835889+934942419+934475638+933604938+932974917+933061051
2520+933772123+934590929+934971843+934718792+934093453+933550101+933369808
2510+933490917+933650679+933734473+933924061+934408429+935107397+935765104
2500+936133647+936104891+935890559+935924598+936392382+937073094+937672954
2490+937988533+937862275+937342195+936757114+936404620+936341291+936538034
2480+936991775+937597386+938074198+938138799+937770925+937220551+936710770
2470+936311933+936173771+936561774+937474071+938426023+938821516+938530948
2461+938006388+937789716+938012006+938476914+939006690+939493132+939844957
2451+940083029+940268604+940317288+940156456+939975896+940027857+940279705
2441+940452642+940332736+939977969+939638517+939465045+939376170+939278801
2431+939241820+939340526+939478688+939452607+939126061+938563984+938032135
2421+937819341+938015282+938413785+938637813+938494569+938225668+938222324
2411+938504734+938709502+938595549+938350856+938355404+938779452+939473204
2401+940166621+940655003+940855090+940852950+940880034+941103794+941489457
2391+941928151+942312276+942452912+942227346+941852115+941710810+941918989
2381+942337487+942916617+943674701+944394600+944747227+944755520+944811627
2371+945224441+945989146+946849481+947381731+947290515+946754185+946173317
2361+945680589+945217887+944770500+944257174+943613511+943027293+942732312
2351+942761268+943112424+943832858+944830419+945774212+946294894+946310676
2342+945985267+945471273+944931733+944661428+944935277+945629497+946167833
2332+946101360+945587567+945011046+944455456+943953900+943835934+944380624
2322+945299407+945927220+945955976+945705132+945611642+945662399+945484782
2312+944918425+944256907+943880807+943913575+944281851+944875960+945572253
2302+946225546+946690521+946841121+946649928+946348460+946378888+946977076
2292+947884424+948674875+949232471+949646288+949828252+949630439+949268249
2282+949223109+949662338+950260727+950715471+951131026+951691832+952235719
2272+952411865+952070874+951407617+950883926+950916227+951405611+951749411
2262+951490073+950769505+950155802+950232305+951206727+952714337+954118625
2252+954985781+955124010+954402506+952900246+951149550+949938528+949721588
2242+950265074+951003497+951708350+952589015+953767336+954919710+955517162
2232+955367833+954889349+954790709+955465402+956684851+957752562+957948302
2223+957131971+955973912+955277218+955120064+955037408+954851632+954774727
2213+954793184+954607943+954308614+954467039+955284708+956347538+957489078
2203+958947267+960335305+960632226+959685089+958537597+957893131+957523184
2193+957358941+957775700+958532180+958716886+958064931+957325905+957209344
2183+957820372+958988662+960193198+960529106+959822783+959321628+960239876
2173+962216473+964144921+965598428+966657580+967364974+967917755+968436163
2163+968349828+966986935+964837669+963376604+963434517+964427932+965325783
2153+965744214+965909660+965796175+964907084+963105831+961065102+959640684
2143+959269734+959977529+961394390+962702647+963120477+962685060+962253588
2133+962490991+963074334+963126897+962218613+960861738+960180693+960904872
2123+962478753+963490892+963241452+962398571+961840173+961541580+961050323
2113+960392015+959926237+959715851+959580966+959554551+959847526+960463971
2104+961124219+961506872+961482864+961196108+960994416+961291003+962370216
2094+964078247+965747825+966724253+966911233+966618057+966146996+965790892
2084+965831886+966239951+966684998+966937314+966980983+966818479+966489325
2074+966234133+966398242+967092328+967995329+968535538+968301946+967480198
2064+966933101+967429574+968654774+969542594+969662967+969613815+970082000
2054+971140283+972209733+972398451+971555504+971063645+972411090+975099829
2044+977432196+978696985+979309819+979694078+980004574+980241241+980029451
2034+978936662+977307877+976044024+975507293+975514983+976240099+977888010
2024+979534516+979698826+978329446+976991964+976788466+977134941+977126381
2014+977199608+978236959+979781549+980679467+980997119+981647135+982402344
2004+982092583+980515893+978736307+977817725+977963243+978699460+979666526
1994+981012701+982778845+984160129+984124418+982831007+981725779+982042963
1985+983349749+983941651+983104388+982350450+983542680+986293412+988502329
1975+988995993+987863682+985331562+982177848+980009523+979787902+980822645
1965+981932420+982682947+983103652+983235528+983100576+982621022+981678365
1955+980324366+978853471+977766165+977517728+978046568+978833743+979524753
1945+980070713+980337540+980145478+979611020+978938535+978129158+977184762
1935+976205325+975144367+973866605+972588240+971840454+971813236+972113434
1925+972334787+972462717+972522570+972141187+970798690+968614984+966751605
1915+966380387+967471036+969137538+970453553+970737299+969767425+968101592
1905+966700379+966054443+966054175+966585958+967701016+969210832+970665410
1895+971868675+973049470+974354183+975496459+976118254+976330647+976602623
1885+977135743+977717815+978127887+978476167+979022328+979757073+980374053
1875+980659940+980799573+981266755+982368171+983856587+985107266+985876251
1866+986384628+986692984+986755445+986663961+986458524+986082625+985668741
1856+985498881+985710938+986241785+986907115+987523560+988093260+988748024
1846+989402253+989665269+989386204+989036920+989118707+989677440+990380220
1836+990922100+991399982+992044849+992711383+992935077+992665039+992435929
1826+992441011+992336888+992079824+992137603+992727700+993546774+994251426
1816+994850684+995570116+996487628+997371636+997927226+998194990+998448643
1806+998839121+999362277+999866240+1000087125+1000018378+1000044994+1000415944
1796+1001022091+1001586709+1001640141+1000843537+999751216+999158177+999104945
1786+999334791+999786526+1000529229+1001541234+1002598313+1003446008+1004137553
1776+1004918442+1005862169+1006874843+1007819305+1008582673+1009237771
1768+1009897684+1010514129+1011084766+1011702615+1012307625+1012884481
1759+1013692119+1014666140+1015351398+1015788353+1016437634+1017268344
1751+1017856167+1018130618+1018393700+1018793474+1019235110+1019472446
1742+1019301248+1018652704+1017602914+1016659455+1016413960+1016643606
1734+1016409346+1015727097+1015580308+1016189799+1017540989+1019698882
1725+1022360871+1025026538+1027385655+1029294909+1030615204+1030996854
1717+1030006984+1028385823+1027521543+1027593031+1028211014+1029277455
1708+1030512017+1031055971+1030381613+1028756707+1025405781+1017431382
1700+1002861395+983891964+960379509+930711363+901787860+880217696+862768981
1690+844077211+823603648+801844029+772216275+726707401+678288837+645121438
1680+624874043+613162923+611094842+620198342+637110928+655656512+673941688
1670+693054564+711880618+728023416+741668936+754243201+766389939+777534436
1660+787006078+795197415+802701689+809665420+816062727+821516240+825855966
1650+830250328+835183026+839633429+842256430+843918050+846233364+849475286
1640+853419786+857714572+861802450+865101883+867609861+870111687+872992354
1630+875902380+878338334+880338404+882471286+884995514+887784564+890762333
1621+893852851+896874088+899538217+901601081+903386753+905313863+907184197
1611+908640446+909605105+910145581+910305677+910189250+909822044+909026310
1601+907625298+905496496+902339103+897555936+890354334+880091772+866626746
1591+850338496+832233546+814323734+799633908+791436150+791834385+800198459
1581+813014072+826446932+838983680+850952400+862002136+871189496+879051680
1571+886636403+894135394+900902582+906628741+911322230+914658711+916093428
1561+913625440+901582089+880424003+865974723+859921483+855505722+850082368
1551+843598192+837500948+834298216+835306476+839509645+844668578+848460338
1541+849197223+847526508+847407205+850568142+856281193+864031162+872630699
1531+880166070+886250941+891689943+896952531+901919000+906435073+910555586
1521+914202831+917254829+919910466+922465991+925105043+927807156+930368634
1511+932677060+934807266+936691443+937839002+938382421+939375033+940846664
1502+942319231+943525037+944361097+944538781+943611438+941422717+937395560
1492+929719353+916797010+901199435+888850537+882153834+880227527+881949400
1482+885691205+888458253+886881564+879555376+868880201+860868487+861319018
1472+869602642+879421895+887376164+893835062+899702994+905335195+910491186
1462+914925806+918718636+921694131+922793139+921139076+917453780+911827531
1452+903842700+894374736+885500079+878757167+873751375+869265463+865445081
1442+863756310+864669609+865810949+862436884+851549853+838302969+830724064
1432+831781677+841460963+856929537+872624547+885011765+894003719+900407312
1422+904744162+907248931+907679332+906037173+903475227+900859046+898117143
1412+895228317+892579836+890521252+888946501+887585413+886866249+887935298
1402+891018728+894615817+896222935+892712447+880625227+858594501+832304231
1392+812461826+804354014+806209301+814492925+825883117+837669270+848799256
1383+859299889+868972621+877335825+884237430+890003646+895060998+899566571
1373+903459110+906863937+910084458+913233825+916210123+918948282+921397879
1363+923391127+924888036+926171417+927516655+928982936+930514553+932040352
1353+933530774+935022534+936588792+938287928+940108039+941961387+943748597
1343+945368822+946668921+947537882+948122429+948753252+949582624+950518125
1333+951431357+952264073+952942310+953225121+952650806+950560991+946232634
1323+939390614+930932315+923094006+918511661+918476284+921985234+926809663
1313+931201684+934542178+936876216+938237237+938472233+937407196+934950979
1303+931199076+926703199+922628830+920355379+920649625+923089793+926174760
1293+927847147+925969256+918875991+906327205+890353799+874792939+863335739
1283+857800773+857982001+862432671+869209288+876457100+882890118+887984317
1273+891887957+895253595+898955744+903596135+909119666+914900729+920170873
1264+924403534+927368997+928895532+928712431+926655251+923021648+918697972
1254+914903337+912692480+912505968+914016386+916415226+918977238+921345650
1244+923241664+924101196+923125972+919509422+912566355+901927962+887792656
1234+871008870+853031047+835763560+821079352+810146913+803171212+799788320
1224+799579740+802124967+806755060+812625400+819187819+826408212+834343289
1214+842649449+850668118+857837420+863813554+868253323+870666407+870526306
1204+867482132+861551137+853289247+843851778+834831937+827869879+824085743
1194+823587531+825478061+828393101+831054154+832531871+832481381+831451721
1184+830797826+831930873+835489711+841183503+848323380+856350876+864837329
1174+873157935+880454631+886072387+889922996+892292612+893412753+893256267
1164+891395898+887062190+880211811+872993491+869233965+871542725+879116615
1154+888606714+896588937+900884459+900000517+892187687+876243170+854213313
1145+832671704+819492564+818484638+827469972+841229980+855223045+866592640
1135+873469367+875119017+872942466+870242292+870021206+872873252+877259789
1125+881586408+885520476+889541547+893974027+898655078+903134035+906988189
1115+910039251+912320593+913824390+914275790+913106698+909779780+904491378
1105+898716201+894809016+894666106+898527549+905000089+912139364+918443717
1095+923037698+925219732+924031781+918841082+911053798+904669130+903616532
1085+908350079+915997263+923570550+929942111+935189652+939520818+943063539
1075+945924077+948160212+949851859+951207797+952537655+954086258+955886909
1065+957832945+959872871+962027821+964228714+966269443+967979480+969441347
1055+970973432+972826378+974997579+977494790+980642887+984823185+989919859
1045+995315392+1000462556+1005089639+1008499682+1008518005+1000991864+980820304
1035+945319870+898364176+850774649+814712807+796542788+794627849+802888535
1026+815539103+829213379+842567462+855212479+867005386+877741951+887187914
1016+895355444+902593024+909241176+915303645+920587231+925058699+928944149
1006+932485332+935603737+937882738+939095700+939789719+941084401+943709944
996+947326226+950738141+952398892+950647727+944208691+933369608+920632973
986+909123812+899414433+888532149+873731781+857383412+846252825+844888059
976+850720414+856369066+856301924+851284229+847031239+848815439+857374183
966+869723751+882618542+894274091+903531602+908554580+907012397+898456194
956+886740794+878516955+878076924+884349711+893263289+901773884+909147419
946+915701947+921528083+926220168+929096087+929455468+926934383+921829885
936+915189892+908901121+905596004+907508937+914725385+924899739+934997189
926+943071029+948577507+951784252+953163797+952968257+951016939+946682830
916+939144184+928137849+914922663+902236920+892456721+885220612+877321180
907+866061526+853151888+844430707+844702951+852665914+861043028+861699063
897+851401526+834145208+818341193+810738280+812337707+819976465+830783248
887+843915643+858776800+873453585+885235592+891509717+889694956+877244943
877+853233408+821114528+789663319+769298092+765736446+776873252+795627951
867+815060552+831031083+841967534+847937182+850090393+850125301+849617460
857+849654374+851008708+854368595+860078504+867678006+875892683+883076162
847+887650816+888277092+883622723+872281416+854067394+832166671+813040821
837+802778661+803328700+812261939+825108715+837337374+845391086+847559009
827+844462807+838684686+833694209+832380869+835761621+842753773+851158840
817+858899915+864629886+867759659+868353300+867019363+864649681+862062323
807+859918741+858906669+859616404+861932119+864661651+866116296+865279835
798+862445645+858839661+855947291+855125074+857059942+861114517+865671249
788+869536369+872701853+875590345+878110227+879817254+880610314+880736372
778+880177906+878586036+875985036+873057958+870520823+868707131+867947442
768+868822221+871743414+876576604+882824381+889992345+897636318+905105617
758+911514961+916211661+919136532+920538814+920520223+919007866+915993250
748+911608518+905945689+898994664+891107737+883529969+878085617+876173019
738+878070102+882988757+889631626+896914881+904249696+911057476+916309030
728+918598931+916118372+906754865+889636173+867421143+846396403+832772216
718+827880980+827424631+825411922+818188252+805852327+791832245+781260726
708+778010044+782213614+791230713+802892748+816706055+832288516+848307330
698+863283711+876383405+886954389+893816605+895659521+892694793+888013608
688+886305778+890310531+899007304+909577887+920117240+930139122+939475010
679+947377585+952452926+952646125+945566635+930559359+909661546+885756407
669+864629819+856942712+863660078+874896059+883257658+884697590+878286306
659+866642996+853031782+838473832+821778052+801633911+778486054+754949658
649+735477534+725240719+727617825+741928140+763611656+787062854+808663312
639+827334819+843249912+856745500+867954597+876836610+883242678+886492490
629+884705147+875414466+858370607+838174370+822661994+817507407+822800691
619+834586443+848282720+860560197+869853486+876372972+881220205+885173466
609+888663022+892578967+897954037+904488235+910206904+913109640+912718026
599+909719393+904855976+899093705+894317759+892335746+893067482+894902439
589+896857436+899267511+902804681+907768342+913701610+919364171+923862924
579+927758205+932128358+936831611+940705894+943314450+945496819+948142491
569+951118186+953521105+954831101+955548727+956588284+958218474+959639481
560+959669574+958033567+955792617+954226627+953623891+953599147+954094684
550+955354725+957214025+959114653+960827030+962656638+964821352+966895585
540+967901772+966699376+962256330+953886840+941595586+926351375+910193597
530+895673364+884351718+875782474+868358383+861468949+856695946+856854237
520+864052696+877784818+894622036+910931886+925417278+937964124+947801767
510+954407989+958956228+962997696+966209457+966648953+962520282+953292931
500+940339624+926967285+917571010+915776444+922053713+933482625+946121891
490+957150762+965246470+969851352+970566436+967005124+958742633+945547175
480+928443062+911158857+899716169+898658221+907652917+921817179+934435714
470+941370756+943033914+941265228+936116460+925969123+911044770+896276835
460+888174975+888146888+890599494+889409336+884785864+881161758+882931847
450+891922932+905848320+919931665+929861996+933373620+930885102+926527454
441+926608372+934234289+946963100+959092250+965676270+966100786+963668978
431+962502761+965210759+972026297+981381177+990998671+998983569+1004543679
421+1007256760+1006972746+1006327345+1008149997+1010641591+1011077410
412+1009788546+1009542115+1010915173+1009849468+1000817055+981430597+954579321
402+927835912+911244054+914525297+938695659+965652329+977545080+976748409
392+971744490+967132051+964698838+965626047+971377552+982680072+996965176
382+1009934398+1020434764+1030273611+1041914915+1056376232+1069201007
374+1073741823
##END=
