##TITLE=X7343
##JCAMP-DX=5.0
##DATA TYPE=LINK
##BLOCKS=1


$$ === CHEMSPECTRA SPECTRUM ORIG ===
##TITLE=X7343
##JCAMP-DX=5.00
##DATA TYPE=INFRARED SPECTRUM
##DATA CLASS=XYDATA
##ORIGIN=ComPlat
##OWNER=
##XUNITS=1/CM
##YUNITS=TRANSMITTANCE
##XFACTOR=1
##YFACTOR=8.4490681e-010
##FIRSTX=3997.453
##LASTX=373.96442
##MAXX=3997.453
##MAXY=0.9072117784345146
##MINX=373.96442
##MINY=0.5201604951504573
##NPOINTS=2559
##XYDATA= (X++(Y..Y))
2559I62962521I62289090I61184061I60300755I60052859I60642689I62033644I63647450
2551I64603135I64466276I63576763I62774093I62794340I63485124I63714539I62617622
2543I60710060I59172447I58496406I58508469I59114740I60225343I61212561I61156548
2535I59973212I58883138I59024300I59990708I60745760I61178629I61539330I61114220
2527I58745362I54683052I51238864I50473865I51146590I50348575I48193965I48125747
2519I51841748I56928807I60413981I60940678I57902340I51716247I45452413I43470499
2511I46329086I49818282I50214397I48132590I46852607I47305652I47082374I44641560
2503I42069247I43194806I48937164I56130581I61341096I63394402I62094522I56505603
2495I46004575I32898643I22676762I19335433I21873813I28197258I37217247I45957098
2487I50130377I47879895I42121381I39310976I41577190I43454132I40609301I35241188
2479I31811250I30038363I29003103I32438402I40963794I47637852I47343323I41540789
2471I34302928I28041070I25248302I27707247I31372102I31296615I29055025I30700788
2463I37470718I43972150I45322750I39885572I27587601I11476699I04277145I15136193
2455I32613779I45893395I52036666I51145038I44878523I35825307I26051395I17068302
2447I12111894I14939935I23663278I32304224I38283124I42577318I45590260I46227430
2439I44603042I42416192I39385825I32794306I23619540I19694723I23981793I30393914
2431I36898662I46088102I56234425I62208739I61324870I54335402I45488109I40025888
2423I37122433I31780280I24814727I23366069I28675911I35621289I43258720I52691120
2415I61451571I66297363I67257139I66187664I63869740I60472536I57665024I56987078
2407I56832301I54975605I53137675I55040155I60015399I63759477I63288654I58470375
2399I51985732I48039540I47994250I49484107I50957527I51938184I50409174I44852562
2391I38160021I35642241I37176824I36928997I29954484I15901474I02263907H99439325
2383I04423810I07834348I08737123I13282954I22669570I29869829I29985101I21945770
2375I08248664H97855571I01350834I17341385I34279930I43685029I43929329I38036919
2367I31783525I30155187I33633166I39810723I46609717I52380507I54975535I52073491
2359I42570405I29215799I21199042I26669024I40826512I53807084I60618424I60600858
2351I56305817I53153689I54720370I58794744I61642891I61649169I58152707I50306742
2343I38792535I29020810I29374738I39996611I52355886I60723749I63581843I60862372
2335I53395590I42235312I28558312I17788575I17809174I24040910I26562077I26532024
2327I32927285I46370426I58735486I65741956I68105100I67914273I66106254I62077735
2319I56058060I50861937I47613091I41713979I27877615I07636679H95180262I04044979
2311I25029116I43527712I54919239I60524598I62943685I63783110I63309677I61447338
2303I58380499I53819853I46078155I34166563I24071174I27012018I40243169I51381860
2295I54881285I50612487I41190670I32791555I30859869I32860760I33871964I34158803
2287I35979591I38244958I39247767I41478423I47792700I55289390I58854708I57299596
2279I53760524I51529019I50580953I49660754I49662658I52146859I55142376I53797772
2271I45750822I35838781I34123601I42658164I53155452I59646726I62083520I62767673
2263I63433838I64512554I65700190I66332142I64946693I59075235I46826505I30968651
2255I21831626I27421536I41414582I53523843I60517403I64337600I66823000I67399924
2247I65030642I60923676I58282299I58560038I58957352I56042963I50791250I48225146
2239I51591028I58747902I65313672I68423967I67915543I66124032I65870631I67515971
2231I68776625I67573678I64092242I60158748I57174871I55402053I55310134I57880329
2223I62756668I67797943I71257792I73090079I73846612I73388911I71146330I67426096
2215I64252381I63880322I65653632I66176518I63772599I61118947I61852412I65656454
2207I69350657I71215112I72041204I73010221I73923578I73776137I72419894I70993387
2199I70538013I70571170I69678201I67578334I66018425I67018059I70286447I73382139
2191I74418598I73745661I72997311I73121049I73766402I74196167I74182760I73903754
2183I73432365I72844368I72560633I72907930I73587921I74149959I74570765I74982964
2175I75262820I75000601I73684569I71394299I69495981I69578943I71324881I72950257
2167I73776772I74603781I75738863I76366297I76023233I75325394I74939861I74840462
2159I74845400I75077425I75583733I76048700I76037342I75287652I74024244I73200342
2151I73816348I75692867I77518875I78193646I77628856I76408131I75151428I74258953
2143I73972184I74326324I74944940I75220422I74890902I74124140I73031244I71604596
2135I70033752I68614370I67528670I66999294I67250437I68127533I69186426I70237700
2127I71469994I73024187I74662052I75923129I76571656I76846785I77246921I78014742
2119I78815507I79038714I78467646I77473091I76546471I75977237I75912265I76273882
2111I76705693I76967489I77153942I77290095I77138774I76653701I76240444I76372364
2103I77129392I78132483I78823973I78947428I78772333I78681470I78603305I78163452
2095I77361417I76722342I76688903I77154576I77697709I78042607I78147227I78005853
2087I77597745I77103854I77034719I77870405I79451901I80912764I81441787I81070222
2079I80503316I80224307I80050482I79554263I78622071I77632101I77306955I78144193
2071I79741774I81070363I81529403I81304011I80794670I80285118I79998561I79939937
2063I79871296I79732815I79796941I80247870I80853717I81131950I80778586I80004980
2055I79438145I79593204I80460989I81525102I82050174I81567641I80397991I79560965
2047I79825723I80942958I82103295I82897006I83369945I83428640I82915771I82178850
2039I81871834I82173629I82633377I82754292I82479798I82128480I81941534I81745769
2031I81170115I80154467I79116597I78640130I78988203I79858668I80732731I81442069
2023I82117687I82667521I82749707I82307596I81760443I81573426I81842417I82353310
2015I82901592I83385466I83631459I83462572I83056793I82851575I82902086I82819547
2007I82557117I82613765I83140880I83587509I83622147I83621089I83822074I83799146
1999I83219824I82440152I81993385I81974337I82195992I82579691I83088327I83420315
1991I83230547I82803533I82944836I83847541I84681957I84744954I84330074I84004999
1983I83762039I83368605I82946812I82715633I82514436I82076135I81644039I81756701
1975I82339412I82641348I82334968I82037899I82388865I83149631I83558162I83229559
1967I82533484I82214334I82631119I83351392I83606627I83122682I82389358I82166645
1959I82782722I83882390I84827069I85228546I85076096I84633139I84318081I84328452
1951I84330497I83933818I83407758I83401409I84040484I84815500I85206183I85006467
1943I84296633I83414178I82730871I82325088I82089116I82104847I82575314I83407476
1935I84165067I84437304I84089513I83277107I82436340I82092925I82351334I82594224
1927I82004953I80494075I78891767I78131989I78440556I79384036I80491605I81591203
1919I82504137I82788507I82114089I80636436I78616780I76026196I73071032I70761855
1911I70248141I71650733I73954477I75933922I77005301I77414397I77668079I77724869
1903I77068087I75705142I74498101I74138034I74250910I73830598I72257991I69842008
1895I67632372I66625330I66963739I67983338I68967734I69680599I70382671I71538776
1887I73250006I74857746I75523487I75285818I75016685I75188817I75228464I74242516
1879I71903428I68566681I65037344I62288456I60933482I60914150I61848673I63420293
1871I65281009I67025255I68500297I69757001I70608559I70689754I70077631I69487233
1863I69647866I70559741I71454474I71602479I71088694I70543939I70224719I69814989
1855I69120748I68477017I68371551I68978034I70146837I71673731I73385525I74935275
1847I75785846I75720309I75210616I74937462I75099153I75477984I75933146I76505132
1839I77223782I78052060I78904959I79616343I79999337I79953623I79484423I78704609
1831I77778554I76755217I75562005I74147631I72345468I69747124I66228158I62522033
1823I59809617I58794885I59427823I61291714I63972314I67098693I70170399I72571638
1815I73983683I74656761I75056614I75381972I75536396I75395799I75006315I74528156
1807I73985517I73233075I72266950I71294547I70377733I69248506I67532479I65011595
1799I61718234I57796309I53281306I48283273I43409477I39549348I37227264I36570059
1791I37627330I40161547I43447783I46846963I50273938I53749872I56984891I59764820
1783I62251772I64521019I66221030I67059399I67322676I67587787I68108133I68745162
1775I69358487I69991495I70679246I71294547I71683184I71865262I72004732I72203036
1767I72402963I72568252I72878865I73545028I74427839I75138871I75508742I75601651
1759I75409414I75004058I74764272I74902048I75021762I74617537I73745450I72890152
1751I72416155I72362681I72621796I73212617I74262692I75610537I76686152I77098493
1743I77130944I77315562I77722118I78000421I77958446I77731923I77440428I77005090
1735I76337374I75483699I74584592I73872220I73660654I74152640I75223102I76461816
1727I77466530I78114000I78559426I79014940I79573381I80174925I80683278I81070928
1719I81534414I82291723I83281340I84159776I84556597I84345594I83787224I83369099
1711I83375801I83678866I84000413I84243162I84473141I84683720I84757935I84714478
1703I84805553I85214437I85822965I86393328I86742177I86708103I86303452I85872770
1695I85743460I85847867I85958060I86037495I86122643I86174424I86222677I86387402
1687I86679391I86995507I87275644I87477053I87489539I87258361I86912474I86638968
1679I86492304I86399536I86260913I86005114I85642791I85315529I85210415I85410766
1671I85842224I86323276I86657381I86746127I86626764I86403063I86219856I86279537
1663I86725031I87461250I88188931I88620318I88679718I88596544I88771639I89380308
1655I90139381I90628334I90774153I90818385I90873975I90765617I90361742I89849085
1647I89518225I89413394I89398650I89453041I89655719I89935927I90087671I90048871
1639I90005626I90209927I90732319I91388042I91878124I91984082I91666767I91100145
1631I90617823I90449642I90499024I90512142I90401318I90263260I90194971I90245341
1623I90450206I90803852I91231713I91617881I91852657I91874174I91686381I91401376
1615I91301694I91670720I92356213I92729260I92407077I91809130I91629944I91973643
1607I92385842I92521855I92364114I91956360I91369983I90848508I90649216I90797010
1599I91196722I91842499I92715291I93599019I94203032I94440913I94483522I94534033
1591I94625813I94700945I94803025I95060446I95505308I96006889I96370976I96479546
1583I96357219I96072990I95619733I95047466I94642109I94664755I94962176I95211908
1575I95482804I96137184I97188884I98188942I98796835I99131363I99447691I99712238
1567I99680563I99343847I99114856I99421025A000166271A000788696A000863334
1560A000475402A000019041I99857421A000125564A000600057A000793070A000424398
1553I99750473I99243390I99092281I99250586I99757599A000636247A001588122
1546A002149384A002156298A001840111A001537117A001436025A001454578A001325903
1539A001022979A000988976A001566817A002345008A002570754A002170266A001870658
1532A002227196A002880239A002971243A002129631A000801747I99697352I99220883
1525I99382224I99952869A000661008A001312852A001737820A001796302A001588545
1518A001428617A001476730A001675034A002024377A002507404A002817947A002629166
1511A002084764A001663253A001619303A001802510A001946847A001965186A002035170
1504A002519326A003629083A004973474A005734241A005639004A005415726A005793570
1497A006435960A006481885A005808102A005053473A004584979A004157048A003590565
1490A003150147A003047715A003037485A002833467A002674174A003085809A004069782
1483A004852206A004641345A003486792A002186703A001510733A001723005A002605110
1476A003631411A004234154A004133415A003486439A002819640A002760875A003565309
1469A004907302A006297193A007465717A008173645A008174209A007703245A007424871
1462A007504870A007289564A006358924A005381159A005336715A006217056A007066922
1455A007144310A006582907A006013390A005878577A006102066A006346719A006529080
1448A006800964A007073765A007066639A006777331A006383474A005844645A005109557
1441A004482123A004364311A004812277A005571491A006403720A007213657A007900350
1434A008281086A008276359A007977386A007432843A006673276A006014801A005910041
1427A006403862A007056693A007435806A007457604A007230447A006706009A005674065
1420A004219763A002964541A002579925A003227113A004689316A006848935A009855386
1413A013852160A018457109A022587567A025288555A026795695A028261920A030388312
1406A032670328A033920256A033410918A031579266A029572450A028128377A026937704
1399A024917907A021390545A017327741A014773841A015087840A018249140A023049360
1392A027659247A030762840A032091076A031901873A030830493A029671637A028572745
1385A026967686A024524755A021744262A019530322A018261979A017387423A016094459
1378A014184854A012122729A010518447A009790343A009981734A010601408A010867225
1371A010256228A008801926A007078914A005881046A005586377A005943338A006594194
1364A007408081A008303167A009330455A010832725A012837923A014424075A014427108
1357A012875735A011218967A010885214A011788624A012520607A012066998A010957524
1350A010491569A011227785A012550872A013483417A013687788A013687717A014223584
1343A015485225A016976211A017988120A018131752A017579307A016885419A016402532
1336A015897001A015075424A014388661A014638746A015700390A016348847A015689102
1329A014207852A013032132A012545581A012220153A011756102A011734939A012600113
1322A013604544A013766094A013419996A013677771A014747245A015804868A016247966
1315A016357030A016850357A017851332A018327516A017216067A015117540A013793254
1308A014023445A015019482A015755839A015887830A015665752A015865467A017376982
1301A020041497A022425170A023420851A023426356A023344806A023251756A022891901
1294A022684214A023183891A024045890A024464509A024493080A025127710A026891849
1287A028792846A029079828A026912096A022999766A018917914A016276820A016224545
1280A018851742A022713562A025344497A025055612A022626576A020689179A021121695
1273A023521664A026104629A027269975A026531078A024913744A024187405A024846444
1266A025310494A023948748A021402185A019964744A020949775A023469742A026288189
1259A029489417A032610646A033415292A030662453A026374607A023913123A025020763
1252A028937749A032810997A033447884A030353321A026442190A024981398A026739259
1245A030037770A032443947A032554069A030825414A028699374A027139395A026250588
1238A025744210A025278466A024559887A023364841A021563241A019240802A016800552
1231A014854898A014037907A014754370A016825878A019492016A021918440A023565191
1224A024214562A024087300A023838697A024016613A024641014A025465413A026235562
1217A026463001A025585552A023828961A022440055A022550883A023957214A025443403
1210A026338770A027123592A028247811A029250690A029638128A029748320A030101261
1203A030730248A031541807A032357457A032554845A031705402A030276497A028887802
1196A027598225A026587444A026523811A027653462A029387478A031064987A032510612
1189A033844634A035232129A036773485A038381506A039680749A040168361A039756444
1182A038998923A038327539A037598589A036814260A036280158A035773639A035000104
1175A034906066A036472536A038273498A038047542A036723538A037381590A040385572
1168A042865681A042929101A041825624A041668800A042519160A042183362A039009787
1161A034576968A032077955A032386805A034109322A036513594A039564348A042066820
1154A042676265A042138988A042037755A042328474A042025621A041206231A040774420
1147A040627615A039244846A035544224A030662030A027236254A026651077A027844218
1140A029189245A030198967A031132994A032078872A032742849A032543205A031082130
1133A029297391A029518694A033141151A038766263A043035765A043048677A038829331
1126A034048300A032777487A034785362A036220406A034776474A031771645A029525678
1119A028710944A028632638A028843429A029877701A032363877A035546975A037380602
1112A036301463A032426028A027362884A023658241A023321737A025690807A028430595
1105A030540268A032390543A034075319A035309518A036119878A036777083A037518237
1098A038084579A037208752A033835816A029283000A026331363A025664070A025939269
1091A027140523A030571943A035407224A038532827A038106236A035680377A034629738
1084A036461249A039620926A041932571A042610375A041926786A040283845A037920560
1077A035182818A033065526A032882671A034350730A035022679A033435186A031705402
1070A032856005A036413278A039819583A042055109A043401547A043987642A044070533
1063A044099809A043844151A042631398A039951220A034922151A026822429A017967309
1056A014540828A019956842A029801300A037892624A041829363A042694677A042726071
1049A043260878A044322805A045445541A046320380A046572581A045208719A041114804
1042A034403992A026552947A019827461A017712780A022384677A030373638A036480296
1035A039187422A040312275A041713526A042583004A040433966A034657674A028862265
1028A027514064A029739996A032278799A035264298A040050126A045043007A047530876
1021A047279733A046445599A046384295A045730617A042706882A038352230A036110495
1014A037896433A042153165A045781692A046177595A042800144A038313359A036716060
1007A038894515A041880932A042419972A039068619A033532257A032099189A039417542
1000A050662264A058341106A059941226A057532369A053857355A050095499A047517331
993A047219698A047278534A044007535A035881856A025687985A020366220A024241655
986A033636453A043690855A051938014A056070165A054904607A051284901A049994900
979A051426275A053351259A055712145A057552118A054411845A042667094A025182736
972A011907494A009101463A013023035A018604056A024433610A030365102A035964113
965A041080307A044285274A041643192A030436495A016784679A013417245A020582725
958A030583583A038796595A042034087A038295440A028382130A014702308I97260065
951I72797949I41545938I16798605I11743713I17436057I18575796I07377705
944H82506917H46115008H01925741G57239408G20337665F90536288F60571457
937F31393564F15642446F18649461F35963170F58540372F77428945F91256773
930G02999195G13412464G20360804G24750656G34878146G55702638G78247600
923G96318830H09820100H19510627H27049506H33982961H38828752H40132017
916H41604238H48815220H59051207H65448020H66990998H68372991H74291785
909H82571254H87241529H84883747H74807969H60533163H57350982H71945290
902H83731874H85346104H85484021H96107093I14450417I28805081I35370216
895I34780171I27857439I17408968I13059747I24217698I41664879I52811965
888I55871255I54405877I52609005I51595261I50324378I50379545I53901686
881I57385239I55353449I47627764I41681245I43393110I48473326I52402870
874I55572776I60209118I67052203I74349392I79526821I81208563I79687665
867I75865422I70019925I62131068I53505783I47350731I46622275I51333677
860I58944725I66646635I72397248I74722933I72455167I64313403I48672124
853I24456143H91374103H49497680H05404779G77071813G70474650G73615280
846G80196499G93046773H12554950H32861001H50144374H62511409H66603913
839H59504676H46705195H50555021H73190918H94041582I08074345I16307748
832I20451821I23471817I25529004I22297582I10665352H93169494H75913140
825H67529333H80512022I07812831I27454058I33986248I34109986I37641862
818I45740381I50230270I46725271I38339208I30406612I23600775I17145550
811I15163424I19097482I21712263I18349061I10247509H97326548H76904027
804H49160401H18750919G95214857H00251618H43825655H89327639I16041084
797I28595771I32805593I32879384I32426338I29846690I18020953H93929132
790H64065040H45636567H55457039H86215934I17220822I39085088I52276240
783I60036421I64667472I65610035I61075843I51192444I39972343I36380997
776I47689139I66748151I80833329I85122374I82131161I78716814I78693534
769I77310977I67624612I44720289I09201314H76975983H62161925H59874265
762H63924019H72060562H83576109H98225724I13852822I26051254I31717777
755I30579238I23722113I12085862H97833984H87274685H84979971H86526900
748H87574082H90018495H96922391I05393392I09039905I05579069H98205616
741H90578558H83656461H80649444H88580206I06507099I25125905I38513738
734I46224467I50648889I53709943I54966505I53957206I52887023I53814349
727I54388735I50956328I43845732I37175907I34709272I38380124I48422533
720I60973834I70132516I73439422I73427923I73881674I72770013I64130478
713I48625635I35743686I34079510I41641598I49718107I54210747I58689490
706I66476126I74905716I80176336I81360095I78141583I69406458I56994979
699I48772370I51919137I63306361I74672069I82057864I86222184I88993858
692I90895701I91464161I90735846I89480624I88252351I86835791I84143128
685I78630607I70386834I63293240I62438013I67736639I73939168I76713524
678I75375552I72043814I70060559I71827238I77169179I83957028I89876666
671I93345052I93921343I92854902I92497446I94050018I96483355I98544563
664A000568805A003275507A006036812A007749452A008526867A009292501A010184765
657A009813905A005464897I94679640I78657485I63870234I57796592I62282248
650I72533614I82455672I89345106I93964517I98034940A002188608A005748068
643A008003347A009238745A010341941A011861286A013724401A015486001A016653746
636A017151235A017622058A018960877A021439010A024557206A027715613A030582383
629A032807399A033971899A033834687A031662087A025219420A012144457I93387382
622I74162517I60173562I53217815I51072728I50774812I51138759I52932104
615I57712289I66238246I77406354I88854810I98671616A006238925A011622206
608A014753594A015267097A012584663A005862070I94227371I77530445I56661791
601I32955503I08403582H87422267H76670167H80456785H96224834I15349171
594I27340761I24065530I04744088H79331861H63382862H66197569H84638953
587I08626154I30200618I46759627I58842645I67471528I73000556I75347051
580I75116296I73834902I72401834I70299004I67469482I66026326I68526188
573I74618172I80305012I80661550I73302140I59715226I43778149I29371775
566I19386154I15996993I20423320I31863313I47263183I62768449I75367862
559I82915278I83202399I74562935I58530339I41412959I31498591I33361353
552I44788648I59421615I71978065I80861407I87006512I91728497I95713842
545I99059759A001658597A003485310A004655666A005479641A006500227A008152058
538A010324163A012590095A014816098A017172469A019669862A022034133A023894990
531A024714664A023400819A017869109A005346732I84775007I60379697I41572534
524I36617678I45950255I62821641I79821632I93435000A003497585A010893398
517A016417770A020589215A023590728A025273105A025498852A024762212A024209203
510A024500064A024784364A023437221A019994232A015963314A013374776A012717571
503A012743250A012155674A010772623A008732509A004849878I96191296I80252949
496I58641942I37861401I24314204I17850444I11228942H96121343H69434917
489H35213280H02254767G79629593G72415507G79884193G96990990H17596014
482H36920278H52301665H63136092H70724847H77535764H85657281H95590133
475I06497364I17449814I28200150I38777579I48634312I56385887I60244249
468I58674323I51219040I39428082I27087643I18986937I18544897I25764697
461I37361019I49281993I59181547I66645648I72067306I75993957I78958645
454I81258932I82931503I84062212I85054156I86521721I88917104I92280306
447I95791160I96892027I92348944I82665122I74186643I73312439I79424177
440I86798402I92046517I96166181A000671520A005285216A009258921A012679547
433A015865820A018285894A018501059A013925104I99552945I70342743I29826655
426H94171033H80966267H93442786I19370283I43822240I59427399I66970652
419I71194089I76177728I82157686I85926526I84736630I79981559I76716064
412I79046404I86344510I94643803A000889295A004774182A007446952A009894610
405A012380786A014653419A016358230A016992507A015652701A011521044A004986525
398I98173069I93288547I88973471I79680470I62535366I44589426I38197269
391I47926032I66313730I83108432I94266947A001312146A006428764A010395767
384A013112275A014236564A013335059A009644807A002285749I91917983I82176663
377I77903068I81211242I89961818A000147294A008926721A015445931A019852787
370A022035193A020551685A011724498I90582056I56247123I18383841H94469654
363H95926637I18050650I46146302I69098526I84462912I93953512I98740046
356I98945687I95351518I90585160I88163111I90066860I95481746A001715524
349A005734452A004903916I97384014I83520420I67745669I57675535I58937459
342I70431207I85658593I98488479A006617192A010406631A011056006A010659115
335A011871374A015847055A021306243A026364308A030384150A033686470A036591477
328A039313134A042109500A045070449A047938419A050107068A050103047A044638074
321A029676152A004933263I77245510I57013530I50461660I56156683I68083230
314I80334147I89564997I95152367I98196772A000542068A004225265A010696998
307A019839807A030012091A039391299A047166930A053470481A058664488A063015966
300A066750027A069993582A072543740A073741823A072510869A066135361A047101181
293A004259692I35828481H63347445H22273554H31327617H76870870I30538251
286I74221634A005316468A027455581A043668139A055618602A064194504A069239165
279A069228160A062242643A047376522A023719404I88008404I37080811H76436026
272H24299278G99395333H00200261H01669377G79432344G35231298F93797833
265F78036909F92459367G26591904G66587152H03287769H33869947H59063764
258H80028642H97387076I11704915I23924862I35117309I45784543I55617431
251I64122647I71417367I78371562I85916438I94245783A002900979A011333956
244A018742043A023503110A022834336A012389251I87779553I50170377I10629797
237H84228517H75637941H71383675H50376752H04941152G51047107G16162975
230G16447345G46246887G87843737H26878856H58470333H83815401I05050821
223I23032881I37671068I48843128I56350332I58552419I51173961I29451916
216H94478754H57286856H32981704H29193394H41307593H60135003H81762444
209I06293768I28244594I41174162I48191563I53868741I59204192I63333521
202I65391272I64556010I60460399I54795572I51205353I52529429I58475313
195I66291719I73329864I78741293I82949210I86225499I88453618I89924781
188I91352911I92990914I94647400I96624165I99547654A003066550A005742424
181A006477226A005403451A003423512A001592072A000970634A002376612A005788772
174A010113796A013894981A016458898A018279474A020146540A022342702A024682989
167A026791039A028176277A028287316A025518675A014656805I87080585I38424497
160H77752269H24855461G95966524G94593702H14643389H46996619H82597850
153I14091833I37932793I54409404I65327993I72298837I76644671I78826654
146I75812231I60119875I26841438H85030623H56328139H55967720H79619970
139I11099985I38119669I58075600I72417072I81949788I87624282I91385291
132I94725001I97583729I98919091I96295418I83577491I53583313I09402652
125H70579241H59027292H77975406I10890887I38762765I52596024I52596236
118I43084825I30126545I21011037I22009825I33833658I50465823I64098520
111I69560248I63854150I46195755I22481565I05206234I03015222I13906791
104I29713147I44095888I56360420I67858824I77524307I83427158I85783318
97I86474949I86997835I87411022I86443909I83376859I80607724I82370029
90I89450008I98054411A004330379A006919340A006362522A004523322A003758464
83A004787868A005840483A004695736A000431029I91904649I74905152I45194286
76I07956320H79901095H75535720H92313773I15634176I35282528I50428645
69I62212619I69713051I72410088I70996843I66734394I61757951I58117504
62I55990618I55266818I57954544I64665356I71486784I74035957I69156797
55I53644829I27972711I01772980H89629364H98020648I20567869I46199705
48I66675559I78038586I80469807I78558791I78316678I81311912I83652552
41I80069318I67027724I44194652I16270429H93306776H83699353H85293618
34H91206910I03386363I28268298I57307850I77609597I87221747I91094360
27I93964235I95986360I95171203I91872548I87565023I81447290I71350348
20I56975932I42250973I35660794I41800679I53747050I63907694I70301262
13I72497353I69288717I59509444I45544123I37202503I45083106I64916922
6I82607910I90547630I85681168I62819525I26535340I03903535
##END=


$$ === CHEMSPECTRA PEAK TABLE EDIT ===
##TITLE=X7343
##JCAMP-DX=5.00
##DATA TYPE=INFRAREDPEAKTABLE
##DATA CLASS=PEAKTABLE
##$CSTHRESHOLD=0.93
##MAXX=3997.453
##MAXY=0.9072117784345146
##MINX=373.96442
##MINY=0.5201604951504573
##$CSSOLVENTNAME=- - -
##$CSSOLVENTVALUE=0
##$CSSOLVENTX=0
##NPOINTS=22
##PEAKTABLE= (XY..XY)
477.37124812353386, 0.7397460922262532
548.197842728694, 0.7257980089866585
572.2788848944483, 0.7232129557681732
594.9433951680999, 0.6713576300029106
674.2691811258792, 0.7005911453976131
699.7667551837371, 0.6050909746473597
747.9288395152462, 0.5728780018454502
756.4280308678653, 0.6754145607339177
783.342136817826, 0.6947445254575028
885.3324330492828, 0.7756672477997401
975.9904741438872, 0.7554911950864347
1060.9823876700543, 0.6526191220139027
1208.3017044487879, 0.7294780597410903
1453.3617217826427, 0.7265136222422447
1490.1915509773257, 0.7144840942433213
1508.6064655746677, 0.6718824489373829
1541.1866990930412, 0.7329814413264577
1559.6016136903827, 0.7153869853178779
1573.766932611415, 0.6509792787173665
1653.0927185691944, 0.7243816832519874
1698.421739116497, 0.5201604951504573
2915.22263443316, 0.7970930917358383
##END=


$$ === CHEMSPECTRA PEAK TABLE AUTO ===
##TITLE=X7343
##JCAMP-DX=5.00
##DATA TYPE=INFRAREDPEAKTABLE
##DATA CLASS=PEAKTABLE
##$CSTHRESHOLD=0.93
##MAXX=3997.453
##MAXY=0.9072117784345146
##MINX=373.96442
##MINY=0.5201604951504573
##NPOINTS=165
##PEAKTABLE= (XY..XY)
3991.786872431587, 0.8111551985290698
3981.871149186865, 0.8134543876672733
3971.9554259421425, 0.8098401407899248
3962.0397026974197, 0.8101668932903697
3947.8743837763877, 0.8030618412655206
3942.208256207975, 0.8010779003766371
3930.8760010711494, 0.7971446496391982
3923.7933416106334, 0.8000022157205536
3918.1272140422207, 0.7959607222818721
3902.545363229085, 0.7767527680159987
3891.2131080922595, 0.7936302403301465
3881.297384847537, 0.7849210482358314
3869.9651297107116, 0.7817485913007366
3864.299002142299, 0.7849649174872202
3852.966747005473, 0.7640299179378575
3838.801428084441, 0.7706495507225981
3820.3865134870994, 0.7770563345837637
3800.555066997654, 0.7801582798210299
3779.3070886161063, 0.8053125124750667
3767.9748334792807, 0.8009667976658424
3758.0591102345584, 0.7905305011445612
3749.5599188819388, 0.7599424108743033
3735.394599960907, 0.7586042863343385
3724.0623448240813, 0.7858944518531235
3711.3135577951525, 0.778327343951276
3701.39783455043, 0.8053260428127221
3690.065579413604, 0.7849360090007161
3675.900260492572, 0.7754458171576958
3670.2341329241594, 0.7828332167606834
3648.9861545426115, 0.7563438995413843
3629.1547080531664, 0.780754027837295
3617.822452916341, 0.7864898424738079
3596.574474534793, 0.8023748382443348
3586.6587512900705, 0.7892473918666228
3566.8273048006254, 0.7788618184807731
3552.6619858795934, 0.8096592403275562
3545.5793264190775, 0.8011618832686442
3535.663603174355, 0.8160706737108971
3524.331348037529, 0.8071480378786126
3508.749497224394, 0.8143890480827928
3503.083369655981, 0.8120559435403291
3487.501518842846, 0.8200141765475685
3481.8353912744333, 0.8161955458679743
3473.336199921814, 0.822092054175588
3462.003944784988, 0.8217231019596107
3447.838625863956, 0.8191337566145306
3432.256775050821, 0.8236493450073462
3420.924519913995, 0.822263596450129
3408.1757328850663, 0.8229157310121731
3392.593882071931, 0.8170242887657921
3365.6797761219705, 0.8245549186610246
3354.3475209851445, 0.8248321993330237
3337.349138279906, 0.8252111053961294
3326.0168831430806, 0.8255032876895364
3309.018500437842, 0.8257333017398636
3293.4366496247067, 0.8277829273739702
3283.5209263799843, 0.8275339586842675
3273.605203135262, 0.8276377301386716
3260.856416106333, 0.8295901990937895
3245.2745652931976, 0.8268597103762853
3231.1092463721657, 0.829338072142431
3219.77699123534, 0.8304179889367257
3215.5273955590305, 0.8301691993672667
3208.444736098514, 0.8310681565557161
3199.945544745895, 0.8296768045765349
3191.446353393276, 0.8303773979237598
3173.0314387959343, 0.8293977343919123
3165.9487793354183, 0.8297305085431922
3157.449587982799, 0.8298795796762145
3148.95039663018, 0.8298392869153525
3139.034673385457, 0.8316570498430316
3131.952013924941, 0.8308825474276953
3119.2032268960124, 0.82977378213528
3106.4544398670837, 0.8297770003853192
3097.955248514464, 0.8264303785849451
3079.5403339171226, 0.8197692617207402
3063.9584831039874, 0.8230558596515183
3055.4592917513683, 0.8167083240354973
3039.877440938233, 0.8237982370201249
3027.128653909304, 0.8118829091603615
3012.963334988272, 0.8191263653697567
2997.381484175137, 0.8181837180501623
2984.6326971462076, 0.8237313009679162
2953.4689955199374, 0.8100923277296669
2910.973038756841, 0.7913144208912017
2861.394422533229, 0.8235849715574923
2851.4786992885065, 0.8215558509667577
2824.564593338546, 0.8226525171936537
2797.6504873885847, 0.8308552484886642
2786.318232251759, 0.8319919683677952
2773.56944522283, 0.8328613622669626
2742.4057435965597, 0.8324109889164262
2731.073488459734, 0.8332638724916194
2721.1577652150118, 0.8352719523680646
2702.7428506176702, 0.8359496571898065
2694.2436592650506, 0.836462495345713
2681.494872236122, 0.836837647487862
2674.412212775606, 0.8366224742256525
2660.2468938545735, 0.8375575520251362
2651.7477025019543, 0.8378348926855186
2640.415447365129, 0.837006268919561
2609.2517457388585, 0.8403798914068623
1715.4201218217354, 0.7703384720883856
1698.421739116497, 0.5201604951504573
1653.0927185691944, 0.7243816832519874
1636.094335863956, 0.7714503981771771
1624.7620807271305, 0.8029355386812141
1616.262889374511, 0.7956328967497784
1593.5983791008598, 0.7998076066451928
1573.766932611415, 0.6509792787173665
1559.6016136903827, 0.7153869853178779
1541.1866990930412, 0.7329814413264577
1521.3552526035965, 0.7732278092005175
1508.6064655746677, 0.6718824480924762
1490.1915509773257, 0.7144840942433213
1473.1931682720874, 0.7911546811198895
1453.3617217826427, 0.7265136222422447
1434.9468071853007, 0.7477256042115025
1419.3649563721656, 0.7440667124583137
1405.1996374511336, 0.8051007357382334
1396.700446098514, 0.7897422292829424
1388.2012547458949, 0.8224558811868556
1379.7020633932757, 0.7892101390804631
1362.7036806880374, 0.8016242365528397
1338.6226385222826, 0.8131704313865685
1330.1234471696635, 0.8196107724115068
1318.791192032838, 0.8385678510330072
1296.1266817591868, 0.8092488631755915
1247.9645974276777, 0.8033161134352698
1219.6339595856134, 0.7407045942221373
1208.3017044487879, 0.7294780597410903
1187.05372606724, 0.8162022214766801
1172.8884071462076, 0.7739320973252223
1157.3065563330724, 0.7870295030413047
1114.8105995699761, 0.7913546545085872
1060.9823876700543, 0.6526191220139027
1028.4021541516809, 0.7760848387660486
998.6549844175133, 0.8223583079688096
974.573942251759, 0.7443343983685783
957.5755595465203, 0.8252340539099958
927.8283898123532, 0.7926892617015019
906.5804114308053, 0.826236961673093
888.1654968334633, 0.7557435020029437
872.5836460203282, 0.8349057418746859
859.8348589913994, 0.8091465812918933
821.5884979046127, 0.8030515291779046
783.342136817826, 0.6947445254575028
756.4280308678653, 0.6754145607339177
747.9288395152462, 0.5728780018454502
699.7667551837371, 0.6050909746473597
674.2691811258792, 0.7005911453976131
653.0212027443313, 0.803679880458154
594.9433951680999, 0.6713576300029106
572.2788848944483, 0.7232129557681732
548.197842728694, 0.7257980089866585
536.8655875918685, 0.778168497246462
522.7002686708365, 0.7629637106014618
502.86882218139135, 0.8285221439462004
477.37124812353386, 0.7397460922262532
458.9563335261919, 0.8071114398952306
446.20754649726314, 0.7516539080195689
434.8752913604376, 0.8265864235787772
423.54303622361203, 0.7466436013422939
398.0454621657541, 0.7905461767006071
385.29667513682534, 0.7918487771337455
##END=

##END=

