##TITLE=X7356
##JCAMP-DX=4.24
##DATA TYPE=INFRARED SPECTRUM
##DATE=26/10/2018
##SAMPLING PROCEDURE=Diamant-ATR
##ORIGIN=ComPlat
##XUNITS=1/CM
##YUNITS=TRANSMITTANCE
##RESOLUTION=4
##FIRSTX=3997.453
##LASTX=373.96442
##DELTAX=-1.4165319
##MAXY=0.98917747
##MINY=0.37323686
##XFACTOR=1
##YFACTOR=9.212433e-010
##NPOINTS=2559
##FIRSTY=0.96004236
##XYDATA=(X++(Y..Y))
3997+1042115967+1042209459+1041769239+1041230027+1040717472+1040505514
3989+1041156075+1042550429+1043641145+1043660167+1042893664+1042147606
3980+1041954022+1042127743+1041852120+1040628315+1039056423+1038018179
3972+1037519405+1037159089+1037109723+1037746308+1038624937+1038568325
3963+1037089213+1035427776+1035339848+1036907341+1038762749+1040046595
3955+1040639185+1039941975+1036940855+1031847266+1027174357+1025851238
3946+1027338696+1027971723+1026259043+1025259878+1028013972+1033060395
3938+1036861403+1037259504+1033597601+1026558346+1019332302+1016655978
3929+1019816713+1024701515+1026582997+1025032780+1023555286+1024043902
3921+1024134417+1021647535+1018709174+1019834117+1026064813+1033614293
3912+1038557455+1039856118+1037952443+1032329024+1021850758+1007759115
3904+995316421+989795616+991356574+997792887+1007793859+1018473601+1024975067
3894+1023972408+1017104803+1011777516+1013116293+1016484198+1015262011
3886+1009669324+1005186311+1003294476+1002370363+1005293778+1013930416
3877+1021885114+1022466381+1016144458+1008044766+1001384008+997958649+999742822
3867+1003715028+1004287819+1001622170+1002079730+1008606170+1016460324
3859+1020220701+1017335136+1005988658+986516286+972404779+980025171+999775431
3849+1016961298+1026288223+1027292176+1021567177+1011850886+1000745288
3840+990214291+983547710+984901174+993147347+1002219029+1008787072+1013628007
3830+1017585137+1019505375+1018738160+1016933736+1014672333+1008785907
3822+998056282+990483056+992865060+999838255+1006767196+1015728241+1026708127
3812+1034756317+1035952689+1029886461+1020146749+1012958489+1009516438
3803+1004423236+996162183+992154522+996737626+1005003209+1013931192+1024089515
3793+1033990978+1040653807+1043373286+1043321979+1041047119+1036819931
3785+1032914755+1031858653+1032261671+1030784435+1028056286+1028495212
3776+1033057483+1037792181+1038854235+1034990208+1028075696+1022611892
3768+1021216373+1022000345+1023077798+1024145804+1023262841+1017832228
3759+1009721602+1005312088+1006537122+1007712790+1002309092+987951466+971250592
3750+965439154+970889241+977197319+980129080+983916825+991975108+999800535
3740+1001797895+994991368+980502983+967585907+968761769+984143146+1002338078
3730+1014348444+1017455802+1013144438+1006216985+1002347200+1003634346
3721+1008707361+1015682627+1022583229+1026830475+1025812417+1017784026
3713+1004029083+992896763+994811566+1007889939+1022254488+1031482162+1033576703
3703+1030047953+1026343153+1027451856+1032045637+1035794109+1036315398
3694+1032832650+1024518478+1011546989+998800334+995843793+1005211673+1018702640
3684+1029215196+1034038727+1032450725+1025196148+1013478420+997863410+983210751
3674+980210732+987202561+991746910+991310378+995565970+1008919902+1023617915
3665+1033205647+1037122275+1037608044+1036296635+1032763033+1026582609
3656+1020327197+1016416069+1011085418+997638383+975176537+957646465+962667720
3646+983695227+1004506570+1018444227+1025951523+1029692425+1031620686
3638+1031999182+1030493672+1027397573+1023062593+1015997912+1003813695
3629+990571566+989390787+1001955052+1015829368+1022872051+1020960030+1011483001
3619+1000689516+996272044+997587981+998818386+998798458+1000196953+1003013160
3609+1005033748+1007494944+1013558066+1021505000+1026037509+1024730565
3601+1020259844+1016907338+1015628215+1014823020+1014613586+1016835715
3592+1020409043+1020243475+1012421672+1000653349+996409208+1004333562
3584+1016264994+1024623486+1028176305+1029030865+1029486225+1030633813
3575+1032300814+1033537559+1032746728+1027432964+1015152021+997605515+985172656
3565+988203473+1002059349+1015487103+1023753398+1028433812+1031784636
3557+1033324113+1031576689+1027418989+1024236320+1023967491+1023923106
3548+1020126239+1013189404+1008990554+1012226406+1020963071+1029671397
3540+1034359964+1034438768+1032375349+1031479704+1032720266+1034061113
3531+1032993495+1028953548+1023594235+1019140401+1016775673+1016935935
3523+1019935502+1025123619+1030557014+1034544812+1036778458+1037633083
3514+1037062168+1034637333+1030704272+1027287065+1026669501+1028196168
3506+1028296582+1024961804+1020828495+1020183434+1023414498+1027078018
3497+1028407479+1027544830+1026112497+1024798047+1022848694+1019598479
3489+1015680428+1012293889+1009525690+1006150085+1001465401+996768812+994163011
3479+993858661+993840998+992286640+989215838+985790932+982863829+980559466
3469+978717645+977260207+976070435+974749774+972945544+970960800+969484988
3459+968683870+968065142+967086098+965505989+963340343+960572403+956812738
3449+951690098+945896970+941049241+937821088+935169156+931898042+927768744
3439+922876114+917134616+910792183+904591767+899024054+893964432+889233876
3429+884975436+881281571+877856471+874292718+870592642+867374130+865473949
3420+865175163+865930732+866923040+867598769+867752432+867581365+867613068
3410+868265569+869598588+871502133+873748072+875920964+877683851+879010464
3400+880008336+880800719+881576799+882482343+883557014+884876769+886433715
3390+887909268+888993191+889886183+891143050+892985194+894941794+896224605
3380+896445039+895985344+895700598+896186949+897276954+898299865+898814490
3370+898894201+898780070+898646658+898681402+899034665+899724563+900721464
3360+901905802+902988301+903803136+904564916+905573528+906892377+908453205
3350+910159350+911821693+913294852+914633953+915889202+916910689+917634425
3340+918347551+919352928+920555252+921681489+922721092+923865186+925172972
3330+926476940+927535112+928362304+929461173+931398233+934042790+936584020
3320+938377575+939487637+940405797+941455364+942506549+943222457+943543758
3310+943901680+944984503+947151701+949860441+951956728+952853732+953134336
3301+953774027+955170711+957025925+958727670+959854813+960596536+961539219
3291+962951430+964542279+965879503+966767061+967348975+968071482+969384056
3281+971331597+973481585+975201188+976048243+976209864+976617734+978216606
3271+980951420+983811493+985911533+987130161+987749537+988080219+988545285
3261+989571559+991167649+992855678+994124126+994891470+995519257+996331762
3251+997170083+997641553+997738539+997917047+998594523+999815028+1001353987
3241+1002950142+1004421425+1005662245+1006588364+1007125376+1007309837
3233+1007396470+1007778978+1008710920+1010087482+1011510822+1012536709
3224+1012901165+1012674326+1012226471+1011902776+1011705699+1011462685
3216+1011279972+1011538449+1012333873+1013260769+1013990717+1014724611
3207+1015732576+1016774120+1017393495+1017577244+1017763386+1018287523
3199+1019102616+1020060115+1021176905+1022392946+1023368431+1023963738
3190+1024606470+1025621293+1026524637+1026616576+1025935477+1025073606
3182+1024463935+1024312666+1024732635+1025470089+1025899180+1025724619
3173+1025440456+1025722355+1026508333+1027061326+1026936066+1026460455
3165+1026169498+1026156493+1026147500+1025943371+1025637144+1025515508
3156+1025776897+1026265060+1026510597+1026153970+1025371032+1024787178
3148+1024858024+1025391154+1025777932+1025593731+1024877046+1024004499
3139+1023403952+1023177760+1022968066+1022440048+1021813167+1021559737
3131+1021706736+1021858910+1021750667+1021414291+1020992898+1020677937
3122+1020643776+1020872944+1021225042+1021728087+1022570031+1023752104
3114+1024917160+1025532136+1025216528+1024068294+1022759408+1022047253
3105+1021991805+1021788322+1020559730+1018266301+1015727271+1013817967
3097+1012797127+1012362924+1012172446+1012126186+1012077661+1011617577
3088+1010619835+1009761781+1009813218+1010524338+1010978468+1010919074
3080+1010929232+1011331990+1011608066+1010931884+1008955940+1006184894
3071+1003587762+1001608388+999829974+997897831+996256645+995539055+995681460
3061+996054845+996206373+996315199+997046117+998866134+1001449161+1003925174
3051+1005646265+1006562678+1007100078+1007824268+1008925854+1009894804
3043+1010021423+1009265983+1008256530+1007409604+1006546956+1005408427
3034+1004047651+1002741483+1001946965+1002143265+1003209978+1004279796
3026+1004697048+1004775658+1005225842+1006266675+1007656177+1009092910
3017+1010199154+1010463714+1009675212+1008370467+1007481680+1007361985
3009+1007373372+1006679656+1005225131+1003612413+1002209648+1000799053
3000+999074081+997102471+995150789+993265877+991314907+989428119+987987439
2990+986921891+985423305+982805405+979345107+975849807+972784376+970270513
2980+968505685+967643490+967489568+967598524+967511308+966874787+965574183
2970+963715281+961348612+958378807+954821459+950969402+947272561+944106585
2961+941535334+939301300+937189291+935311949+933906596+932981576+932271556
2951+931470050+930439634+929114703+927155128+923980223+919376673+913810513
2941+907931269+902059594+896265043+890612637+885177560+880001219+875126898
2931+870640909+866662880+863268771+860464534+858347673+857273584+857743890
2921+860117806+864393908+870157986+876771384+883731316+890831712+897978046
2911+904988573+911576091+917394905+922238687+926374972+930464479+934905696
2901+939454057+943660607+947415937+950849836+953973110+956717241+959184260
2891+961596543+964030371+966369672+968499733+970376686+971902835+972921993
2881+973400386+973447553+973067116+972041488+970218171+967865412+965576706
2871+963756819+962319891+960973933+959543670+957788870+955244146+951649531
2861+947279225+942519554+937437028+932106765+927124783+923497301+922059597
2851+923070473+926292738+931333144+937739372+944830840+951813352+958271081
2842+964340997+970265984+975970667+981176447+985735613+989702836+993207065
2832+996380481+999307325+1001950976+1004245699+1006299284+1008331712+1010378374
2822+1012213078+1013594234+1014522876+1015277604+1016205923+1017435745
2813+1018812630+1020102235+1021209256+1022241224+1023401493+1024762009
2805+1026144265+1027231229+1027747277+1027648480+1027294117+1027271796
2796+1027861667+1028799303+1029630507+1030139956+1030413574+1030646106
2788+1030968378+1031438619+1032084521+1032833168+1033493628+1033902080
2779+1033955199+1033586019+1032992524+1032678534+1032920384+1033473765
2771+1034017893+1034458696+1034686894+1034573474+1034260584+1034029216
2762+1033968204+1034085570+1034473965+1035060020+1035462585+1035402996
2754+1035080918+1034925249+1035101816+1035450680+1035787444+1036061320
2745+1036268038+1036362565+1036276902+1036022047+1035770105+1035709739
2737+1035807502+1035860685+1035754900+1035511563+1035199061+1034936701
2728+1034866307+1035028834+1035329885+1035573157+1035577880+1035449321
2720+1035588491+1036149377+1036738408+1036961818+1036961106+1037069868
2711+1037244170+1037156825+1036714922+1036252833+1036191303+1036566565
2703+1037004326+1037143043+1036948555+1036609590+1036305305+1036137796
2694+1036157594+1036365088+1036692924+1037036223+1037317669+1037480843
2686+1037438271+1037149643+1036757495+1036475273+1036354089+1036293465
2677+1036220807+1036127638+1036013248+1035912769+1035919174+1036101564
2669+1036420730+1036754648+1037008014+1037172029+1037248958+1037224825
2660+1037224825+1037497730+1038017273+1038306289+1037982205+1037306476
2652+1036858104+1036827824+1036964859+1037071744+1037165042+1037178370
2643+1036902294+1036315463+1035706957+1035363982+1035350783+1035642516
2635+1036240670+1037053951+1037809520+1038192028+1038133539+1037965577
2626+1038111088+1038543674+1038815415+1038734863+1038641565+1038835537
2618+1039109736+1039087997+1038772519+1038503754+1038468104+1038488485
2609+1038370924+1038171712+1037949920+1037632759+1037373959+1037551172
2601+1038106559+1038416150+1038062045+1037235629+1036259950+1035241116
2592+1034291705+1033688246+1033680417+1034234833+1034975068+1035431399
2584+1035402413+1034992149+1034387461+1033819523+1033608665+1033934560
2575+1034584797+1035094182+1035121809+1034691358+1034165475+1033954875
2567+1034136812+1034375556+1034311050+1033998483+1033856725+1034141406
2558+1034610095+1034802384+1034512203+1033908356+1033432939+1033559428
2550+1034259355+1034786467+1034541448+1034024234+1034254437+1035340431
2541+1036289648+1036236464+1035296176+1034128078+1033176726+1032608140
2533+1032588536+1033186107+1034091910+1034762011+1034918132+1034817653
2524+1034950482+1035435993+1035873496+1035940913+1035899441+1036211166
2516+1036849757+1037249281+1036875185+1035842310+1035004831+1035130543
2507+1035928362+1036374664+1036098976+1035883977+1036574717+1037947591
2499+1039029831+1039363555+1039455235+1039800152+1040050348+1039653218
2490+1038792187+1038002327+1037297418+1036459227+1035863920+1036153130
2482+1037156436+1037920223+1037940603+1037790046+1038321946+1039624038
2473+1040860136+1040989860+1039756156+1038058810+1037167435+1037574141
2465+1038756085+1039836061+1040171984+1039517671+1038085532+1036572064
2456+1035810801+1036120262+1037108299+1038251746+1039325058+1040049442
2448+1040003505+1039389759+1039142863+1039632967+1039996905+1039438284
2439+1038523811+1038429413+1039359867+1040415645+1040822869+1040743999
2431+1040846031+1041454343+1042287229+1042887453+1043071525+1042855102
2422+1042255525+1041511796+1041132200+1041222716+1041158533+1040497362
2414+1039772008+1039801381+1040641126+1041711397+1042563304+1043080647
2405+1043235346+1043065378+1042739807+1042330642+1041671088+1040722001
2397+1039897979+1039689385+1040107996+1040747299+1041216569+1041344482
2388+1041151999+1040743675+1040172178+1039479821+1038868987+1038667316
2380+1039150303+1040513278+1042876648+1046210132+1050315038+1054759943
2371+1058789408+1061765036+1063901049+1066068765+1068751819+1071533540
2363+1073467882+1073741823+1072301208+1070008750+1067921779+1066135536
2354+1063460829+1058988167+1054037824+1051238310+1052000737+1055797087
2346+1060816078+1064979343+1067219717+1067724573+1067074853+1065915878
2337+1064837196+1063925635+1062793381+1061231388+1059558111+1058158904
2329+1056894339+1055264863+1053045517+1050493546+1048103520+1046346909
2320+1045385657+1044833894+1044070561+1042857496+1041393201+1039888339
2312+1038523681+1037654305+1037584558+1038228648+1039196305+1039998070
2303+1040242702+1040064000+1040213845+1041229962+1042608077+1043264331
2295+1042829158+1042084782+1041962563+1042396184+1042543830+1042064789
2286+1041615705+1041932218+1042955129+1044112098+1045074838+1045959613
2278+1046969066+1048151527+1049445855+1050575909+1050905816+1049959898
2269+1048209240+1046693055+1045700295+1044572052+1043083882+1042170056
2261+1042707392+1044202355+1045343214+1045507876+1045027348+1044181457
2252+1042862414+1041355157+1040628574+1041364151+1043022611+1044407390
2244+1045084543+1045644264+1046553108+1047557967+1048354427+1049050925
2235+1049844991+1050771110+1051510310+1051250474+1049609676+1047768631
2227+1047377324+1048346145+1049043937+1048585277+1047606104+1046936004
2218+1046856164+1047555379+1049111290+1050971422+1052313951+1052937402
2210+1053165406+1053092942+1052796227+1052973182+1054167742+1055568243
2201+1055910442+1055565784+1056200946+1058162528+1059694370+1059141959
2193+1056726830+1053752172+1051156335+1049331659+1048602617+1049228915
2184+1050894234+1052450986+1052744078+1051999443+1051890229+1053776047
2176+1057189501+1060211519+1061031400+1059239657+1056277293+1054587323
2167+1055462458+1057489969+1058016564+1056397117+1054426219+1053354913
2159+1052626971+1052419671+1054344632+1058074082+1060509140+1059282812
2150+1055131193+1050688746+1048469335+1049499039+1052268402+1053682037
2142+1052305605+1049774079+1048493274+1049206270+1050916426+1052018724
2133+1051419535+1049280999+1046787582+1045102335+1044644969+1045151054
2125+1046082155+1046904172+1047188982+1046770436+1045828466+1044652733
2116+1043415148+1042362798+1041940047+1042401230+1043479265+1044547143
2108+1044999203+1044740855+1044487295+1045102270+1046442988+1047465381
2099+1047629267+1047442348+1047337210+1046932769+1045987175+1045267968
2091+1045641741+1046785253+1047622409+1047832361+1048065541+1048730271
2082+1049439644+1049735389+1049636527+1049435568+1049524466+1050238950
2074+1051254485+1051515745+1050410600+1048518960+1046732263+1045333962
2065+1044370964+1044197503+1045124851+1046875186+1048656124+1049738300
2057+1050032233+1050152899+1050795825+1052003649+1053095659+1053406673
2048+1053175693+1053272679+1053742208+1053745055+1053368371+1053800245
2040+1055091726+1055793011+1055545792+1055543721+1055715889+1054420137
2031+1051907504+1050839757+1052445228+1054900213+1056091991+1055979025
2023+1055684186+1055571672+1054890185+1053309817+1051978610+1051719227
2014+1051326302+1049800542+1048793483+1050472130+1054052058+1056603640
2006+1056591736+1054645100+1051777328+1048732147+1046506265+1045972553
1997+1046603445+1046336427+1043698405+1040026344+1038506407+1040354310
1989+1043457785+1045438970+1045889737+1045341597+1044225582+1043312662
1980+1043279471+1043448274+1042770992+1042145665+1043537043+1046906824
1972+1049635103+1048857148+1044384098+1039645713+1038616850+1041374503
1963+1044631318+1046075879+1045900283+1044901247+1043122573+1040425868
1955+1037402944+1035365534+1035208830+1036184122+1036327821+1034352523
1946+1030673086+1026787385+1024573343+1025480829+1029064380+1033356075
1938+1036927268+1039175730+1039644354+1038621444+1037580611+1037830936
1929+1039222832+1040293621+1039077515+1034698863+1029201868+1026172151
1921+1026353958+1027531761+1028906382+1031967091+1036570188+1039851459
1912+1039701290+1037261574+1035732449+1036821807+1039232537+1040901803
1904+1041232486+1040791165+1040080369+1039109024+1037742362+1036342637
1895+1035751859+1035805755+1034620576+1031149021+1027694223+1027479548
1887+1030021814+1032314595+1032955192+1032469229+1031572355+1030831990
1878+1030737657+1031059541+1031006551+1029760942+1026014929+1018430122
1870+1008684005+1003140166+1006462975+1015134293+1022801528+1026502510
1861+1026928755+1026447709+1026950882+1028657415+1030574418+1031854771
1853+1032250736+1031294338+1028109469+1022458746+1015158426+1008050784
1844+1004952743+1009104944+1017605906+1024695239+1028019407+1029047170
1836+1029895195+1030111682+1027188656+1020251628+1012952019+1010403348
1827+1012211525+1014839778+1018052467+1023274034+1029064056+1032502355
1819+1032831680+1031740381+1030702137+1029048593+1025499074+1020929815
1810+1018320197+1019264108+1022091508+1023838543+1022211980+1016796248
1802+1010153217+1006344768+1006532593+1007922548+1007267717+1002939143
1793+996173764+992926719+998277686+1008055895+1014892120+1016098391+1013555349
1783+1009860319+1006080015+1003462373+1003363058+1004215484+1002202207
1775+995005602+984309491+976624851+977506521+984576573+992735206+998914401
1765+1000748005+996854734+989528987+983726283+980542967+977581315+974491814
1755+971057786+963527456+947949067+926185918+907126463+896591908+890521798
1745+882886590+871811918+857886295+841480002+824133937+808176728+791629905
1735+769307229+743205349+725795231+719999256+718716963+717664678+714951927
1725+709684747+702909858+696276273+689206933+679457645+667820017+662881449
1715+671603556+687471738+701686829+710144701+711097282+703606808+687805138
1706+667094792+647062763+628016506+604701717+577898356+559415380+554905386
1696+561631686+575367737+590845129+606576600+624690009+644741254+663277091
1686+682416645+712479861+753793087+792066567+822652885+847038074+865651875
1676+879747206+891183293+899004321+902161432+905400520+916096113+931621254
1666+942857353+946475390+946282389+948956773+955231271+959483240+957211162
1656+946570887+928715503+916986647+923960748+932772207+932008485+926982896
1646+930395056+943122430+953679953+956211026+950322141+936096051+912571439
1636+881866785+854127601+832801761+808990980+777225242+741432239+712673833
1626+699562139+703518945+723217186+752149960+778964772+798415858+814264307
1616+833478267+855521373+873163311+883136397+886318613+885006881+881267661
1606+875290525+865533408+850690337+830822193+806688752+779548433+752597298
1596+731435473+721591205+724887423+738850959+759845857+785027118+811315530
1587+835122623+854437774+870129647+884019944+895882341+903547246+906568294
1577+910208716+920944101+933764126+939664268+937118509+931831401+930089477
1567+929574592+924604127+913727309+896874066+869020556+824242116+784732668
1557+778412685+786545762+794187052+800839205+809623684+822978650+838642315
1547+850391292+854817758+853878699+851567219+854611558+874774994+905914692
1537+928151317+936846056+938400802+942567626+951260230+956720734+954175557
1527+946324897+938539455+931353331+922918363+916763755+916514723+918235296
1517+919736859+923722781+928551747+927124007+914518980+890204961+855496787
1507+818919682+799873749+793917511+781379902+755351327+717176256+672440453
1497+630862151+602792672+589424248+585308214+590788387+615043206+663919046
1487+725229040+781573679+825720775+857923886+880751871+895700598+902395712
1477+900573689+891794646+880388773+874220254+879138118+888892323+892205427
1468+882741791+858530515+823254855+785578623+749291116+710807490+666207687
1458+622234765+600711136+604777092+617676052+631591193+646311269+664184511
1448+687915323+716570339+746032037+774180256+800412054+822389813+837831686
1438+848509163+860123305+874685384+887364621+895041626+899597880+904409506
1428+909184706+910429668+906930939+901078221+894241155+884302425+871949212
1418+865777522+870203082+878080528+882610126+883016573+881949019+881236281
1408+880215118+878580920+879139929+884410086+891546261+895735083+896003654
1398+895061554+895558969+898997268+906077996+914407178+919482199+919285057
1388+916431260+916167671+919859531+922861944+920686270+912962746+902127012
1378+890189239+877466652+864823453+855659573+852556873+853357021+854886405
1368+856924074+859740215+861547551+861688404+863744383+871017140+880228381
1358+885256300+883550026+876687597+867516664+857073078+844052353+826915659
1349+805687387+782130101+759234958+740131830+726816071+720819137+724584043
1339+739034255+759870638+780450160+797123213+809739820+819521394+827526752
1329+834243411+839861073+844503831+847993696+849627636+848776181+845970585
1319+842801957+840044174+836491226+830473718+821626804+810492155+797501580
1309+783593426+771259947+763529370+761535504+763594394+766633234+768250675
1299+767807155+766212036+764975744+765367956+768132467+773485699+781098456
1289+790193884+799595861+807535419+811963955+811701143+807139324+799749265
1279+791339207+783764752+778548038+776308893+776711781+778927505+781866319
1269+784115492+784169129+780938841+773837862+762393946+746289414+726036304
1259+703140126+679319057+655968360+634366897+615706318+600765808+589978858
1249+583868052+583104913+588019153+598053251+611662296+626783967+641620698
1239+655248440+667591043+678746202+688347067+695641176+700038397+701323408
1230+699256236+693129837+682107702+666458206+648596611+632633125+622508253
1220+620080441+624398922+632628661+642048043+651518149+661308004+671891472
1210+683160180+694516816+705174042+714231426+720786917+724165950+724058419
1200+720562083+714130429+705282609+694307316+681356338+666737582+650934488
1190+634399959+617480463+600532111+584009939+568390788+554094628+541636536
1180+531823486+525601104+523702055+526522758+534068421+545619934+559481115
1170+573341649+585110361+593704038+599437966+603796431+608621256+615229219
1160+624064228+634988666+647759002+662165411+677696764+692979862+705471922
1150+711909270+709448074+696693590+674026773+643464136+608340069+572743172
1140+540901865+516792007+503595815+502608198+512297250+528726836+547284606
1130+564291188+577556480+586234527+590434089+590627348+587241004+581035347
1120+573860092+568459888+566984788+569522913+574061375+578039079+580502993
1111+583223896+589514116+601452925+617937764+635148799+648704984+655589540
1101+654739832+646685948+633091915+616414786+599423667+584634296+573937344
1091+568471923+568681292+574466592+585285375+600161638+617712349+636246891
1081+654049222+669991485+684184061+697908013+712630225+728896960+746013533
1071+762569543+777167789+788838997+797167209+802278009+804663959+804889892
1061+803376101+800350201+795987983+790651897+784866080+778983988+773084040
1051+767241610+761552843+755688480+748632468+739182548+727032947+713590829
1041+701605566+693670666+690743175+691624392+693490800+693195443+688849465
1031+680732369+670752360+660969751+652593079+646118980+641961215+640676074
1021+642770809+648586970+658324353+671929192+688872174+708075329+728092089
1011+747445348+764950899+779791706+791355318+799248097+803709436+805988760
1001+808053409+811620074+817293765+824560635+832470431+840260726+847546941
992+854251955+860512283+866575664+872544713+878081822+882548078+885597982
982+887485417+888768099+889983816+891564895+893671017+896006565+897954754
972+898884302+898299476+895804312+890967389+883269550+872270772+857708564
962+839116438+815206536+783863097+743364511+694517398+642478493+596839993
952+568972961+566859205+590244905+630253710+674351504+712559378+740279411
942+757316079+765680717+767975634+766588073+763554668+760849358+760508582
932+764141111+772251672+784284877+799343401+816501576+834449740+851501483
922+866309746+878332471+887569786+894177878+898368123+900471786+901049430
912+900870987+900631790+900738092+901486480+903276929+906396579+910665500
902+915461404+919997277+923438876+924890167+923588593+919394142+913238757
892+907019578+902823963+902027244+904817571+910187365+916330263+921476842
882+924715218+926135776+926406158+926295844+926278698+926364038+926387459
873+926309560+925930676+924538133+921304093+915976935+908857064+900285255
863+890584557+880367746+870282210+860224626+849143290+835883950+820264929
853+803378559+786863958+771811128+758325467+745919458+733914462+721575483
843+708468836+694869044+681585118+669501705+659487858+652430746+648968766
833+649244454+653076001+660236827+670301076+682111001+693551359+702149306
823+706169325+705266175+700152205+691702421+680380853+666318130+649541946
813+629956801+607433683+582243753+555248297+527514354+500045358+474100537
803+451425148+433825135+422758001+419594872+425865099+442650407+469614774
793+504749290+545066100+587402495+628779127+666738294+699734565+726959576
783+747848948+762040359+769463351+770090037+763947851+751622653+734337601
773+713482779+690699761+668446832+649569961+635794184+627015593+622487096
764+622478361+628178127+639770336+654925780+669446968+679523251+683718478
754+683363533+681535363+681696079+686593303+697317559+712769654+730282709
744+747363956+763115677+777976282+792501805+806862990+821078405+835015997
734+848199249+859879321+869191429+875243876+877412757+875853482+871787138
724+867128981+863663637+862401982+863351199+865614219+867922076+869415422
714+869935159+869415357+866879497+859884303+844853795+818361901+778968396
704+728430989+671295130+613880802+563986127+529904251+517575527+527775031
694+555772175+594089587+635983173+676744183+713323876+743996568+768209202
684+786321705+799285494+808304058+814555458+819086544+822708527+825656528
674+827508765+828000422+827797975+827960567+828649430+828633255+827541568
664+826479708+826043564+826195157+827020796+828896844+831744430+834687320
654+836986507+838910885+841224048+844068722+846758957+848636816+849761695
645+850536091+851024966+851062234+850760278+850386310+849865797+848963423
635+847838480+846884411+846256948+846064336+846637127+848267443+851084426
625+855028034+859194663+861548910+860174289+854559410+845314395+833347378
615+819529481+804355662+787756303+769588222+750041380+729456552+708671024
605+690174525+677955112+674891557+680053534+688981841+697005704+702105763
595+704705418+706084568+707445020+709021376+709438951+706996129+701575933
585+694498570+687180846+680831490+676382573+673373495+669737149+663724169
575+655803568+648666940+645596397+648577589+657373519+670001967+683912385
565+696729369+706844990+714137740+719723569+724683746+729295643+733305439
555+736432336+738552562+739679187+739809234+738655241+735851651+731918072
545+728552561+727142743+727426000+728416043+729859699+731840302+733746888
535+734672619+734423782+733391231+731652801+728777459+724651331+720380405
526+717789097+717221611+716687705+713903072+708343382+701659591+696368924
516+693403584+691264077+687935703+682789318+676555387+670371858+665075886
506+660545706+655855134+651049008+648002080+648125205+650319319+652261425
496+652328455+650275387+647069103+643885723+640753326+636153982+627495216
486+611691670+586578861+552642884+512953019+472194048+436707012+413202781
476+405144724+411898457+430856366+456950482+483193635+505832437+525410950
466+543048683+558808168+572204931+582042858+587107009+588894482+592258506
456+599937969+609147851+617209887+624816239+632476486+638236358+640762449
446+641271834+641011674+639710424+636824017+631162813+620511151+605091794
436+590296471+582955973+585088751+593782325+604960065+615079567+621641205
426+624268163+625137087+626711502+628876048+631809103+641830520+664152226
416+688784441+705074986+713231354+717902063+722315589+726387303+728812850
407+729507342+729102965+727249886+722530523+714055570+703938332+699252807
397+705896808+718638805+728536709+732682505+733328990+733319220+732476823
387+729623414+728640941+736355601+750569916+762329569+767992650+767666755
377+758930996+741879900+727684090
##END=
