##TITLE=X8859
##JCAMP-DX=5.0
##DATA TYPE=LINK
##BLOCKS=1


$$ === CHEMSPECTRA SPECTRUM ORIG ===
##TITLE=X8859
##JCAMP-DX=5.00
##DATA TYPE=INFRARED SPECTRUM
##DATA CLASS=XYDATA
##ORIGIN=ComPlat
##OWNER=
##XUNITS=1/CM
##YUNITS=TRANSMITTANCE
##XFACTOR=1
##YFACTOR=9.0318386e-010
##FIRSTX=3997.453
##LASTX=373.96442
##MAXX=3997.453
##MAXY=0.9697862843405768
##MINX=373.96442
##MINY=0.5184475772898534
##NPOINTS=2559
##XYDATA= (X++(Y..Y))
2559I83679918I83750268I83583369I83367701I83515132I84097264I84831776I85488416
2551I85987066I86214943I86117932I85867419I85629643I85328777I84926676I84637358
2543I84565821I84486628I84253934I84055292I84109737I84479831I85144720I85903518
2535I86364089I86360658I86172839I86091270I86075234I86018941I85962516I85892959
2527I85642644I85144588I84674513I84644948I85080309I85560679I85761499I85728898
2519I85610505I85461226I85440702I85782947I86394182I86740651I86322051I85297430
2511I84464982I84443732I85163396I86048704I86530130I86530262I86389496I86431601
2503I86771074I87314138I87854232I88291376I88686481I89048062I89217402I89021203
2495I88386803I87294736I85967730I85069289I84977689I85133699I84932153I84638480
2487I84796800I85454033I86215075I86733259I87152255I87767054I88366675I88346085
2479I87660408I87039537I86784866I86702044I86921474I87559503I88110090I88038817
2471I87658692I87645625I87917850I88068910I88214757I88395118I88204528I87678490
2463I87645427I88510740I89859721I91231339I92324726I92236756I89815703I86819183
2455I85780703I86608135I88343907I90176954I91371114I91348808I90221368I88844009
2447I88029842I87969853I88407855I89124615I90013355I90956738I91834787I92495189
2439I92710725I92442195I92008417I91529565I90525138I88919044I87874624I88076829
2431I89037305I90075257I90879063I91418366I91763382I92033495I92250285I92355215
2423I92464105I92600251I92419757I91876891I91659442I92011915I92434210I92561446
2415I92579463I92805228I93346378I94159687I95115411I95998080I96541474I96567145
2407I96131057I95535133I95271553I95740440I96768889I97774306I98332153I98346738
2399I97900157I97199763I96623174I96482343I96768823I97188346I97376627I97098331
2391I96443011I95960859I96169466I96936711I97684225I97732070I96653466I95130986
2383I94401489I94639067I95272081I95732850I96041966I96450468I96741897I96538306
2375I95942315I95705001I96193026I96875865I97533362I98325751I99031358I99143218
2367I98575143I97978557I97993142I98591773I99412473A000159063A000636991
2360A000774654A000624650A000194171I99514104I99134308I99689846A000969600
2353A002255887A003016335A003156507A002970602A002857620A002965982A003235963
2346A003534716A003607707A003187788A002320430A001447792A000960427A000840582
2339A001131813A002008212A003301561A004514793A005246138A005336220A004543501
2332A002843563A001564799A001861310A002797170A003224942A003606321A005095408
2325A007293467A009001192A009636714A009439788A008936650A008475551A008257375
2318A008410085A008859041A009267610A009113448A007827886A005750332A004721420
2311A005367171A006575718A007583511A008354650A009173634A010142425A010877267
2304A010904787A010354002A009939296A010081513A010342385A009971963A009244446
2297A009243192A009993807A010895680A011513515A011580037A011120983A010793719
2290A011264388A012316661A013246251A013639905A013555829A013138087A012591723
2283A012362131A012629208A013010191A013140661A013145478A013393088A013966575
2276A014717520A015560328A016387892A016994640A017213674A016905746A016026113
2269A015044520A014681883A015024721A015707230A016357073A016733436A016893537
2262A017147746A017685794A018416677A019166368A019719991A019646276A018464786
2255A016546277A015455068A016016016A017435941A018678409A019414835A019951894
2248A020575800A021192182A021559373A021582537A021392673A021159582A020897322
2241A020643444A020706930A021292230A022036971A022487908A022709648A023117886
2234A023926839A024821651A025183826A024778953A024080011A023769048A024042857
2227A024585987A025094008A025511683A025872142A026185415A026406627A026466813
2220A026401743A026363269A026432365A026574186A026837633A027372052A028182127
2213A029053511A029757534A030142741A030148284A029922387A029724537A029640329
2206A029658411A029912422A030489935A031081768A031204121A030740316A030042298
2199A029595651A029695566A030326996A031251175A032224189A033078744A033616001
2192A033687142A033471144A033325298A033293687A033204199A033220169A033668796
2185A034389120A034909020A035153989A035363586A035528835A035549821A035678311
2178A036204481A036926256A037386564A037456583A037348617A037251804A037239133
2171A037328753A037416723A037341886A037142848A037010530A037005185A037081474
2164A037332713A037902569A038680638A039328501A039606137A039499161A039094684
2157A038577358A038302097A038503313A038875584A038851431A038392839A038045381
2150A038125366A038394423A038560464A038592207A038556042A038462397A038289492
2143A038095470A038064717A038277614A038446558A038199411A037621370A037183368
2136A037194917A037601308A038182384A038679253A038833678A038571155A038112695
2129A037695019A037238407A036534252A035720811A035272118A035422387A035854383
2122A036068467A035883486A035521905A035322802A035434859A035690454A035759879
2115A035496564A035072289A034671574A034223937A033605442A032885052A032246693
2108A031902271A032048645A032549143A032781640A032215874A031024288A029845834
2101A029168341A029087696A029417996A029854083A030031343A029533155A028150516
2094A026265334A024671515A023842235A023583671A023406543A022950591A022079538
2087A020883662A019671485A018795020A018376421A018202923A017939277A017426438
2080A016766565A016192088A015845686A015544621A014828851A013451954A011720406
2073A010146187A008936518A007991485A007221732A006663885A006281253A005757393
2066A004674829A003007492A001256476I99944714I99176941I98808497I98749300
2059I98866572I98801502I98169874I96917111I95356685I93894392I92721680I91701612
2051I90566648I89262542I87966290I86804797I85781825I84907999I84156659I83440295
2043I82789463I82282959I81765237I80981559I79910874I78638313I77153912I75577053
2035I74214344I73136400I72041099I70695614I69216031I67852002I66714861I65710104
2027I64618168I63303503I61854343I60423067I59014492I57595491I56255023I55039151
2019I53812522I52500430I51251891I50178698I49156848I48039043I46848843I45650195
2011I44390965I42963451I41356103I39691604I38136061I36820473I35792881I34933574
2003I33989531I32816819I31464538I29945094I28160618I26154139I24159671I22341472
1995I20698686I19202471I17825640I16479628I15064125I13572662I12075590I10627815
1987I09251248I08014390I07015770I06195663I05225355I03741614I01798225H99988803
1979H98887431H98386603H97896994H97107179H96153104H95131387H93931155H92518423
1971H91027225H89626108H88468376H87595607H86784145H85671620H84096939H82289497
1963H80775069H79986904H79791100H79574903H78990461H78320029H77854838H77302073
1955H76189349H74601338H73151385H72332995H72097330H71983557H71541661H70671334
1947H69604806H68607704H67754996H66914894H65830745H64255998H62086316H59352980
1939H56146863H52658491H49283562H46539798H44780202H44004114H44003256H44639173
1931H45825612H47314765H48755082H49939541H50790401H51283243H51630107H52248998
1923H53218581H54016052H54101514H53529280H52730424H51933481H51032137H49869258
1915H48474212H47034687H45667821H44267496H42695454H41105067H39839237H38989698
1907H38328901H37702882H37235843H37119826H37394625H37955375H38647717H39329566
1899H39866229H40106975H39951031H39442812H38721564H37857110H36798238H35507132
1891H34136703H33027741H32499262H32683583H33554636H34985055H36784907H38817850
1883H41021189H43183479H44872660H45773213H46007227H46028873H46272391H46874255
1875H47619723H48191626H48510179H48781612H49203115H49734762H50209126H50509729
1867H50558168H50314717H49949968H49862724H50359724H51415231H52770614H54110489
1859H55151344H55764297H56060081H56293304H56698045H57328155H57956813H58293976
1851H58392043H58611802H59132692H59791906H60387105H60822004H61039323H61136136
1843H61433834H62151188H63092988H63844856H64192380H64222342H64097085H63894418
1835H63699736H63683237H63916790H64203929H64266689H64053331H63743424H63552767
1827H63602131H63851258H64092730H64120579H63933420H63724285H63675780H63791995
1819H63917648H63924577H63908145H64169282H64915410H65992892H67038236H67875765
1811H68581900H69177429H69514922H69504561H69246723H68939653H68778364H68885604
1803H69251276H69762267H70268771H70580988H70509055H70021953H69334231H68757444
1795H68462517H68406422H68481259H68667626H69022079H69619126H70546077H71818506
1787H73250046H74528281H75464868H76097486H76583597H77064231H77610726H78232521
1779H78872134H79374414H79571274H79517027H79532139H79850296H80301035H80521784
1771H80447607H80378577H80521850H80715872H80753488H80764378H81031917H81583296
1763H82215716H82821606H83426309H83964555H84279016H84356163H84382957H84549393
1755H84895267H85344686H85809679H86237782H86595667H86836149H86948074H87020800
1747H87154833H87327077H87462563H87579966H87715914H87811539H87841764H87930988
1739H88162956H88413271H88516486H88465605H88331307H88135173H87874101H87507967
1731H86894817H85956648H84923315H84156927H83702823H83263634H82643291H81976224
1723H81508063H81389208H81679714H82331272H83148342H83923441H84611428H85265493
1715H85871515H86366866H86776490H87210466H87727001H88260297H88685166H88932116
1707H89063509H89213382H89412683H89545991H89564535H89654155H90047611H90728074
1699H91469318H92152355H92866937H93653651H94328175H94717143H94944888H95292676
1691H95835343H96400318H96836538H97167959H97483014H97793053H98049044H98245970
1683H98439728H98673742H98953557H99229609H99342789H99148041H98775967H98542612
1675H98530997H98514103H98299161H97888547H97353798H96787042H96277701H95793702
1667H95208533H94482270H93692191H92913529H92182580H91531154H90990466H90591137
1659H90372895H90374281H90585659H90889429H91092955H91089127H90948890H90815978
1651H90791956H90956939H91370327H91980573H92617876H93132365H93495463H93761155
1643H93993321H94208462H94304021H94106567H93614912H93101612H92813944H92699181
1635H92563891H92321629H91967440H91533002H91180594H91133739H91459287H92053364
1627H92800547H93604881H94337546H94934923H95504384H96189203H96980140H97788830
1619H98615734H99478934I00262216I00806336I01107004I01362401I01876427I02830435
1611I04026179I04985005I05427098I05475670I05369288I05257824I05288247I05569315
1603I06009429I06420769I06768293I07136869I07519831I07841222I08109487I08334526
1595I08371813I08115493I07783741I07729692I08018020I08415039I08717357I08897653
1587I09032214I09238379I09611773I10142826I10721065I11244132I11714273I12223086
1579I12828317I13468458I14039303I14536899I15076267I15764848I16560669I17266144
1571I17670357I17693652I17412188I16985142I16526154I16031991I15531626I15279925
1563I15572674I16322893I17065720I17450729I17514941I17455612I17415422I17535795
1555I17935322I18522206I19021054I19254013I19304102I19430876I19861157
1548I20560296I21246369I21722119I22014802I22107128I21857143I21286427
1541I20630316I20104344I19822880I19737154I19473112I18604896I17266276
1534I16109798I15594650I15664075I16081751I16740304I17608322I18561142
1527I19328124I19702045I19859705I20285564I21241684I22457886I23414006
1520I23797034I23724837I23639969I23861180I24178875I24106678I23510357
1513I22682133I21921949I21421451I21343908I21588746I21703970I21365290
1506I20715184I20026867I19315387I18415956I17294785I16241126I15702880
1499I15787022I16032123I15913334I15420096I14907191I14608569I14513471
1492I14509380I14511030I14614046I15128205I16273529I17871506I19469681
1485I20703239I21446199I21720667I21622732I21354665I21221819I21454514
1478I21976790I22405750I22392948I22014736I21751619I22042388I22946505
1471I24215634I25464833I26287909I26535848I26487474I26475596I26491368
1464I26455995I26576104I27069409I27847345I28718861I29584239I30284435
1457I30605561I30582331I30567747I30883659I31515815I32213173I32779599
1450I33167247I33377438I33481444I33711895I34290992I35088594I35604931
1443I35414934I34596148I33636728I32934817I32487774I32078611I31609725
1436I31172977I30951633I31179312I32050498I33498735I35095524I36322615
1429I36999844I37373502I37739108I38079043I38209315I38179551I38270425
1422I38603364I39009227I39321972I39596309I40037478I40841284I42008453
1415I43217329I44099140I44744495I45634951I46958393I48292196I49043999
1408I49026906I48575112I48143182I47865743I47633313I47377388I47027554
1401I46481191I45786341I45026619I44180907I43388452I42994798I43225843
1394I44078352I45372097I46717317I47659380I48064847I48144304I48103585
1387I48012316I47955825I48077848I48381882I48617808I48492884I47952657
1380I47204220I46622616I46656075I47550226I48997077I50273861I50905159
1373I51059057I51221798I51588724I51911303I51996633I52092852I52531184
1366I53299155I54219109I55182225I56018896I56535893I56791091I56997718
1359I57182567I57315809I57646306I58440741I59466419I60184301I60405908
1352I60355423I60175457I59856707I59643744I60037266I61256438I62937501
1345I64418537I65236201I65433853I65434381I65537266I65595208I65314536
1338I64773584I64433847I64645952I65311302I66030174I66414193I66296394
1331I65873637I65611443I65761975I66034134I65983846I65581416I65125661
1324I64785661I64542011I64486378I64825257I65513310I66217861I66846519
1317I67753803I69116908I70526076I71549378I72210967I72537043I72265742
1310I71500344I71029874I71413496I72154278I72316491I71749339I71206143
1303I71353310I72149791I73137258I73859297I74065594I74007981I74366722
1296I75410154I76550991I77204397I77639033I78321344I78899913I78764361
1289I78311115I78553379I79557674I80418499I80722797I80873197I81007099
1282I80837032I80525937I80586057I80979381I81282095I81552934I82183176
1275I83151241I84124586I84962180I85643172I86062101I86278099I86632751
1268I87283451I87964574I88558585I89453661I90745624I91402593I90094990
1261I87121765I84539885I83735617I84207210I84925092I85550252I86279617
1254I87215411I87977179I87862019I86593748I84840488I83635769I83486622
1247I84254792I85452713I86388177I86538577I86081833I85701576I85796871
1240I86102555I86092194I85693525I85503661I86035901I86869867I87101835
1233I86589590I86010296I85681382I85237639I84646267I84611687I85554542
1226I86898178I87786456I88017435I87932963I87823479I87788370I87872248
1219I88025684I88190933I88559641I89342329I90257401I90843691I91211871
1212I91785556I92436124I92643543I92375344I92088534I92022738I92026896
1205I91927773I91741934I91657528I91923351I92657996I93721620I94688233
1198I94998272I94390468I93121735I91726491I90854448I91127728I92502712
1191I94001104I94702421I94598943I94071849I93359379I92972391I93647442
1184I95446305I97591569I99452730A000992962A002178543A002937077A003642684
1177A004614114A005321569A005069274A004194195A003777905A004432433A005905483
1170A007503856A008678218A009588142A010762306A011965045A012280298A011561624
1163A010727659A010394126A010033073A008783940A006814748A005542781A006348237
1156A009246162A012926775A015755538A016530373A015129718A012924795A011787192
1149A012409976A014046953A015675091A016797252A017294582A017128542A016107814
1142A014027487A011588286A010679945A012623533A016335559A019364218A020650901
1135A021033072A021244846A020991034A020201351A019497129A019005277A018230574
1128A017113693A016177107A016057064A017330747A019960935A022837940A024696395
1121A025215569A024730183A023546978A022115438A021041915A020531650A020407582
1114A020559500A020757679A020463016A019457137A018252880A017414295A016868921
1107A016367038A016145100A016420625A016695225A016169056A014643540A012538730
1100A010285830A008142545A006358928A005214725A005059441A006188993A008290042
1093A010388252A011786004A012623401A013467463A014614503A015955302A017284353
1086A018411001A019145316A019547615A020161556A021544591A023468248A024932191
1079A025220716A024732229A024467660A024907971A025683994A026239002A026486018
1072A026653114A026817637A026846872A026691919A026479484A026324267A026251541
1065A026326114A026721418A027564094A028760168A030016428A031039532A031752003
1058A032301468A032938573A033928680A035258524A036426154A036957801A036943546
1051A036869303A037047025A037441273A037972458A038617482A039310748A040002695
1044A040711073A041395892A041893289A042067183A041997097A041946480A042048176
1037A042174555A042254209A042338550A042403620A042323041A042018149A041470927
1030A040676361A039772376A039121412A038952665A039168268A039662166A040547936
1023A041950703A043684166A045299631A046479008A047286114A047931138A048465689
1016A048815919A048970081A048998458A048908706A048675418A048374750A048137501
1009A048136577A048687825A049979458A051691538A053303506A054544851A055442699
1002A056305041A057457427A058722926A059721414A060421346A061083199A061860145
995A062658672A063335769A063819637A064101299A064127301A063719062A062805178
988A061865821A061638538A062137980A062778583A063025070A062655108A061794613
981A060928377A060716735A061267520A061989625A062344343A062300589A061949039
974A061063533A059520133A057953503A057128315A056910073A056701665A056127781
967A055153909A053903192A052566551A051357609A050066570A047853464A044378158
960A041256777A039619864A038832886A038541655A038826485A039591289A040713845
953A042057877A043154960A043368385A042411935A041116210A041091726A042613810
946A044946695A047734147A050963360A054521753A058282153A062197968A065879505
939A068787725A070871813A072383140A073358068A073741823A073553014A072809065
932A071392373A068684247A064021842A057789442A050160479A038171429A018617430
925I97608662I81987174I68964726I55097621I38494870I17900015H95895200
918H77552586H63003830H49179753H37028160H30039864H27480556H26781878
911H27047240H28695504H31777552H35579264H39382692H42936200H46829446
904H52229992H58187461H63058275H67388664H72126961H77629205H83246739
897H88321210H92641634H95967134H98012945H98653350H98300415H98364165
890H99759804I02003598I04632069I07583780I10802831I13925004I16465704
883I18150726I18975386I18897843I17304420I13190293I07420181I03821400
876I04241451I07584110I12624791I18326270I23490228I27273726I29629643
869I31032014I32183278I33807652I36194586I38988109I41489081I42861028
862I42062238I37764846I28291748I11824483H87170012H54682128H16537774
855G76140717G37565686G04853423F79961572F62058807F50633081F47383012
848F51350567F59274259F70482469F85424086G02072373G18214882G34178284
841G49780567G63724356G77106538G95388372H19613288H38795478H52238241
834H64584450H76515029H87519120H97534027I06128614I12886523I18007519
827I21606960I23494452I23733482I23115383I22759940I21987679I18419981
820I09374789H94967920H79374810H64441111H48124114H29400649H10906248
813G95259288G81571092G69234123G60693519G56889894G56172540G57393361
806G60045921G63383630G66666299G69674632G73076223G78537682G86222080
799G93488803G99701668H05752915H12507459H20903998H31785207H44324448
792H56066021H65691366H72722425H74504459H66129038H47759696H26919871
785H11044968H04004076H06200090H14808073H25663611H35920584H44233509
778H49586672H51235464H49805046H47106422H43977848H39974921H34585395
771H28578827H23943810H21442838H20259237H19797609H20852456H24689277
764H30124734H35480075H40331618H44557737H48096727H51068499H53591909
757H55553512H56714411H57009866H56600902H55367607H52569531H48048485
750H43624121H40705276H38891631H37948776H38569778H41165121H45251069
743H50280532H55798811H61139766H65836355H69885676H73245624H75542741
736H76413795H75559503H72795942H68403914H63176272H57848253H52703301
729H48088280H44887376H43839657H45184743H49165168H55765023H64328988
722H74080778H84056155H93018327I00468843I06783339I12422124I17436276
715I21556541I24636015I26756598I28026981I28472704I28021107I26520075
708I23833529I20061118I15542119I10200043I03232008H94059579H83262380
701H71770330H59862717H48367236H39815018H36415869H38383412H45150032
694H56187912H70541787H86617907I02802916I17894274I30932957I41024879
687I47231212I48347961I42616983I27540275I01044244H64404419H22366753
680G78764239G35100021F93242782F57035217F31636731F21846335F29902213
673F53458809F85160903G14586734G31748718G30404157G10593178F79290809
666F46419831F19012292E99384181E86772017E79317608E75388330E74022190
659E74698033E77018248E80586671E85010441E89970149E95327799F01107745
652F07282004F13628441F19923206F26176262F32508642F38853100F44915698
645F50413387F55282353F59622377F63470219F66748929F69516978F72140962
638F75092474F78659512F82921861F87871537F93438982F99490955G05950704
631G12873004G20287751G28065333G36100621G44487194G53339553G62638558
624G72382825G82610629G93176454H03771382H14197497H24376730H34091233
617H42882809H50122476H54963856H56208964H52305753H41565836H22643993
610G95302646G61185570G23991528F88555894F59111980F37846759F24678662
603F18114180F16315912F17659416F20773537F24604155F28721383F33403256
596F39124071F45886534F53114121F60107828F66466013F72107569F77126869
589F81769673F86423036F91424188F96809226G02257354G07283715G11533592
582G15004938G18101967G21519198G25988108G31986032G39596913G48580533
575G58518030G68970873G79602890G90059297G99554370H06377548H07549600
568G99174905G78385896G46399764G09804419F77748795F56969091F48960201
561F50952492F58805108F69242113F80459430F91695225G02640381G13046898
554G22435589G29885181G34332842G35553927G34852478G34365509G35560064
547G38526557G42486786G46602563G50408499G53867174G57194984G60600072
540G64098278G67516367G70666059G73489081G75980087G77997060G79165284
533G78997592G77392753G75259962G74332549G75903864G79833868G84979679
526G90323602G95440837H00201836H04494543H08307144H11816173H15220997
519H18588139H21942412H25323083H28638419H31690836H34481587H37280323
512H40300535H43512195H46860991H50462213H54434057H58637738H62689039
505H66088452H68141061H67695206H62836205H50681181H28069816G94027775
498G52649388G12850302F83626346F68649620F65475246F69616694F78347096
491F90518949G04520747G18075965G29746528G39576521G48248056G56192272
484G63492388G70160611G76274750G81936897G87218588G92160477G96785859
477H01089851H05008570H08437086H11365500H14008293H16691474H19591642
470H22655674H25696080H28467165H30759662H32520050H33778950H34468058
463H34479541H33920045H33181111H32769375H33122904H34517026H36998991
456H40334324H44025166H47366108H49380969H48733898H44129766H35438367
449H24733559H15921654H12682343H16241065H24948831H35847067H46514061
442H55812076H63641991H70407226H76557067H82309230H87558320H91858352
435H94389087H93916900H88925384H78159994H61565294H41120113H20785406
428H05013783G96501227G95014714G98168498H03045778H07467965H10817421
421H14116985H18768566H24972523H31671632H37826489H43206445H48091579
414H52725343H57112684H61104129H64585572H67605652H70347435H73006858
407H75661728H78221500H80521652H82451051H83982308H85169604H86155883
400H87068249H87849947H88369781H88860248H90051372H92501397H95811982
393H98788770I00266704H99342921H94696289H84050083H65125402H38398326
386H09542088G87894102G80619328G87823357H03552414H20951513H36089661
379H48148598H57806215H65904527H72885430H78770636H83475144H87132593
372H90098690H92681560H94963762H96920812H98596991I00065356I01304128
365I02286448I03183107I04325066I05961055I08141626I10766600I13658520
358I16675300I19781106I22888628I25733428I28132241I30289912I32618706
351I35300567I38214330I41278494I44626564I48246462I51599613I53866439
344I54250259I51248394I41531053I20759202H87340474H46406755H09171928
337G86167767G79777179G83022035G84389231G73082822G43086077F97834441
330F51865188F23398050F21894048F42902553F74457679G06297766G33406221
323G54609078G70504572G82227138G90883627G97461901H02691853H06789680
316H09660745H11399553H12359039H12815453H12757642H12041674H10777824
309H09424949H08321003H07360065H06331748H05254001H04190179H03055480
302H01740023H00298452G99024637G98328797G98436961G99217207H00326301
295H01555174H03090917H05270038H07910652H10243010H11869760H13518684
288H16515732H21609143H28355437H35568705H42380663H48713572H54522885
281H58916760H60510118H58546072H53298170H45468783H35743061H25198882
274H15695427H09282072H07058077H08131732H08703437H02173339G82069809
267G47133814G04050673F64115639F36195855F22504558F20058361F24488071
260F32254368F41010837F49574868F57800615F66048337F74564127F83202071
253F91530636F99177946G06139446G12754215G19340672G25875457G32149433
246G38205497G44295482G50354648G55982741G61047907G65904597G70951747
239G76170612G81158960G85622789G89745826G93919677G98242147H02474865
232H06334982H09752609H12945131H15989958H18138258H17852505H13639057
225H04826030G92215054G78781925G69337139G68104571G75657179G87996195
218G98361530G99902422G87855628G61565365G25529582F88296604F58839755
211F41828964F37791522F46434548F63300284F79888582F94087570G07695517
204G21047407G33335607G44305315G54240700G63285695G71284950G77789245
197G82415881G85361915G87483686G90026894G94000718G99537014H06091002
190H13150306H20429237H27699194H34775326H41434773H47386698H52670106
183H57904480H63833439H70732972H78335670H86115693H93429337H99508961
176I03687630I05565554I04406634H98361261H84982115H62921799H33204077
169G99424494G67027682G41584320G26634915G22307825G25732778G33320429
162G42921290G53639363G64393139G73924575G81983291G89433212G97054586
155H04573406H11026951H15994644H19967412H23626973H27467027H31828301
148H36566401H41033925H44967493H48795932H52584314H55519591H57187588
141H58623219H61174742H64711818H67740939H69441867H70676613H72569253
134H75111602H77624519H79703592H80976614H80542374H77634946H72727044
127H67272647H62516267H59132824H57628955H58307306H60972471H65154440
120H70417785H76199248H81736930H86511987H90585329H94263764H97562405
113I00200446I02119549I03830837I06060838I09097218I12543817I15720764
106I18292877I20462625I22655933I24878939I26445700I26942041I26941249
99I26888255I26126290I23874115I20650048I18112780I17832636I20416496
92I25270547I31043101I36824696I42526043I47875114I52274137I55641345
85I58168648I59590421I60055810I61001239I63682374I67397964I70246922
78I71720170I73303430I75996642I78814121I80382532I80812813I81138757
71I81726300I82191954I82388879I82047823I79519860I72777921I62619872
64I53269920I48392045I47820273I49622435I53171325I57568500I60316420
57I60407690I59206535I57017582I50976037I38291807I20929466I05741823
50H99890868I06202791I21160709I37485031I48275434I48772764I37124837
43I13983276H81868917H46587644H16142272G94902063G81717599G74939693
36G75089038G81911027G92917625H04433103H13121136H19452065H26070266
29H34380088H44707411H56830692H69961239H82733769H93595312I01456640
22I05835337I06609445I04380567I01874645I04088544I11891863I19932100
15I27589243I38432242I51332404I60508199I63614071I64654861I67164940
8I68939648I67877278I67042653I70107279I78979105I93943227A009053657
1A014571805
##END=


$$ === CHEMSPECTRA PEAK TABLE EDIT ===
##TITLE=X8859
##JCAMP-DX=5.00
##DATA TYPE=INFRAREDPEAKTABLE
##DATA CLASS=PEAKTABLE
##$CSTHRESHOLD=0.93
##MAXX=3997.453
##MAXY=0.9697862843405768
##MINX=373.96442
##MINY=0.5184475772898534
##$CSSOLVENTNAME=- - -
##$CSSOLVENTVALUE=0
##$CSSOLVENTX=0
##NPOINTS=47
##PEAKTABLE= (XY..XY)
400.8785259499905, 0.8168219314120486
424.95956811571523, 0.6999130231909549
443.3744827130863, 0.8127669077389905
460.37286541832464, 0.8560559727543938
505.70188596562684, 0.828971623016455
546.7813108366195, 0.7752093056992811
606.2756503049254, 0.6523767694917045
670.0195854495696, 0.576043008715235
685.6014362627047, 0.693739651319424
743.6792438389366, 0.5600267039132535
796.0909238467552, 0.7210376844236164
837.1703487177479, 0.5616846667836652
848.5026038545734, 0.7042821633723148
916.4961346755276, 0.7050427778536461
975.9904741438622, 0.7180444581473161
1005.7376438780293, 0.734001575504584
1072.3146428068803, 0.6010465014167296
1123.3097909225953, 0.6993646605294591
1150.2238968725565, 0.6632670750694848
1168.638811469898, 0.5861303793255559
1225.3000871540262, 0.5566465843795804
1307.4589368960123, 0.5184475772898534
1328.7069152775603, 0.5616415731721531
1359.870616903831, 0.7554373131286743
1403.7831055590518, 0.7630886415209513
1429.2806796169093, 0.7573826889733831
1459.0278493510555, 0.7404279689153908
1483.1088915168098, 0.7261635048174133
1517.1056569272869, 0.6829628335032044
1575.1834645035183, 0.5847058876765864
1612.0132936982213, 0.8197153197444647
1664.42497370602, 0.7467360479500891
1714.0035899296513, 0.9416719654051066
1726.75237695858, 0.9382513145925321
1823.0765456215972, 0.939806101351513
1925.0668418530272, 0.9077534654518222
2354.276005160295, 0.8535327895511694
2408.1042170602163, 0.8414148674390385
2487.430003017995, 0.825973806759778
2539.8416830258134, 0.8279850463842935
2682.911404128236, 0.8048999288460128
2715.4916376466094, 0.8048173173278902
2814.648870093833, 0.7965866904205446
2913.8061025410566, 0.7843306642707489
3048.3766322908523, 0.7518998969003113
3073.8742063487175, 0.7571651327547378
3112.1205674355037, 0.7622908935384001
##END=


$$ === CHEMSPECTRA PEAK TABLE AUTO ===
##TITLE=X8859
##JCAMP-DX=5.00
##DATA TYPE=INFRAREDPEAKTABLE
##DATA CLASS=PEAKTABLE
##$CSTHRESHOLD=0.93
##MAXX=3997.453
##MAXY=0.9697862843405768
##MINX=373.96442
##MINY=0.5184475772898534
##NPOINTS=111
##PEAKTABLE= (XY..XY)
3993.2034043236904, 0.8881618359885058
3970.5388940500393, 0.8887828570819871
3947.8743837763877, 0.8893154248641393
3937.9586605316654, 0.8900341370334697
3928.042937286943, 0.8891336898205655
3920.960277826427, 0.8908910724607346
3901.128831336982, 0.8896159511648996
3896.8792356606723, 0.8893095830709328
3879.880852955434, 0.8911733607698098
3871.381661602815, 0.8920255878996125
3861.465938358092, 0.8920254090692082
3850.1336832212664, 0.8903412204490536
3837.3848961923377, 0.8923184253961726
3818.969981594996, 0.8922324161003686
3799.138535105551, 0.8956508026310062
3779.3070886161063, 0.8989132029867346
3766.5583015871775, 0.900006768972584
3758.0591102345584, 0.8995357730405358
3748.1433869898356, 0.8981273752247676
3735.394599960907, 0.8993046862244839
3724.0623448240813, 0.90135812530849
3110.7040355433933, 0.7622901186066482
3069.6246106724, 0.7560731157292083
3048.3766322908523, 0.7518998969003113
3012.963334988272, 0.7675822955324346
2970.4673782251757, 0.7800647598109548
2961.9681868725565, 0.7799469214127406
2952.052463627834, 0.7800580247689108
2946.3863360594214, 0.7802678930865397
2929.387953354183, 0.7846665962820051
2913.8061025410475, 0.7843306642707489
2888.3085284831895, 0.7943655833815843
2879.8093371305704, 0.7951437214361672
2811.815806309617, 0.7960565070437828
2722.574297107115, 0.8041704281454747
2711.2420419702894, 0.8045489172770302
2681.494872236122, 0.8048576101662526
2647.4981068256448, 0.8176142557755206
2627.6666603362, 0.8198468070571712
2588.0037673573106, 0.8266660556420105
2578.088044112588, 0.828594802065489
2544.0912787021107, 0.826950310182349
2522.843300320563, 0.8342167124517004
2511.511045183737, 0.8321429472149249
2497.3457262627053, 0.8270480617715168
2486.0134711258797, 0.8259701118346068
2469.015088420641, 0.8320326784006413
2460.515897068022, 0.8325111852096694
2449.183641931196, 0.8367778049910806
2446.3505781469894, 0.8367601016842408
2433.6017911180606, 0.8404737697269634
2405.2711532759968, 0.8408204893662434
2389.6893024628616, 0.8473486282452468
2350.0264094839717, 0.8516976816175603
2335.8610905629394, 0.8561784011329845
2325.945367318217, 0.8549742682821778
2283.449410555121, 0.8667347409307719
2266.451027849883, 0.8710610846481094
2256.53530460516, 0.87212467034891
2245.2030494683345, 0.8711085297994591
2226.7881348709925, 0.8770185097746337
2219.7054754104765, 0.877177713090452
2211.2062840578574, 0.8797082879503867
2198.4574970289286, 0.8835948091266039
2187.125241892103, 0.8855952006097768
2155.961540265833, 0.8884941317815416
2140.379689452697, 0.888269243516321
2131.880498100078, 0.8902697542197634
2124.797838639562, 0.8900910005861115
2112.049051610633, 0.8892853840657718
2102.1333283659105, 0.8921545128797083
2082.301881876466, 0.8959789257146087
2076.635754308053, 0.8956490739370981
2063.8869672791243, 0.8949237450428092
2052.5547121422987, 0.8968366369768093
1664.42497370602, 0.7467360479500891
1636.094335863956, 0.8113304362593019
1614.8463574824077, 0.816316900802604
1575.1834645035183, 0.5847058876765864
1517.1056569272869, 0.6829628335032044
1483.1088915168098, 0.7261635048174133
1459.0278493510555, 0.7404279689153908
1430.6972115089911, 0.7568218099899554
1402.3665736669273, 0.7621423586303361
1359.870616903831, 0.7554373131286743
1328.7069152775603, 0.5616415731721531
1307.4589368960123, 0.5184475772898534
1225.3000871540262, 0.5566465843795804
1168.638811469898, 0.5861303793255559
1150.2238968725565, 0.6632670750694848
1123.3097909225953, 0.6993646605294591
1072.3146428068803, 0.6010465014167296
1024.1525584753713, 0.7521438586022875
1005.7376438780293, 0.734001575504584
975.9904741438622, 0.7180444581473161
916.4961346755276, 0.7050427778536461
848.5026038545734, 0.704282162469131
837.1703487177479, 0.5616846667836652
796.0909238467552, 0.7210376844236164
757.8445627599685, 0.7289218292290373
743.6792438389366, 0.5600267039132535
685.6014362627047, 0.693739651319424
670.0195854495696, 0.576043008715235
606.2756503049254, 0.6523767694917045
548.197842728694, 0.7745966300246663
505.70188596559774, 0.828971623016455
460.3728654182951, 0.8560559727543938
443.37448271305675, 0.8127669077389905
424.95956811571523, 0.6999130231909549
399.4619940578573, 0.8145586231072297
381.04707946051576, 0.8734173161211806
##END=

##END=

