##TITLE=LSH-R373A
##JCAMP-DX=4.24
##DATA TYPE=INFRARED SPECTRUM
##DATE=19/5/2021
##SAMPLING PROCEDURE=Diamant-ATR
##ORIGIN=Angelika Moesle
##XUNITS=1/CM
##YUNITS=TRANSMITTANCE
##RESOLUTION=4
##FIRSTX=3997.453
##LASTX=373.96442
##DELTAX=-1.4165319
##MAXY=0.85550368
##MINY=0.39407974
##XFACTOR=1
##YFACTOR=7.9674989e-010
##NPOINTS=2559
##FIRSTY=0.78179556
##XYDATA=(X++(Y..Y))
3997+981230838+981046432+981129396+981321433+981567631+981818618+981965918
3988+981989558+981951031+981874800+981784131+981757798+981794305+981742387
3978+981581621+981626881+982092945+982592151+982601801+982292912+982277052
3968+982672272+982988942+982885330+982656936+982912636+983806313+984705526
3958+984871678+984291603+983549117+983085296+982968518+983266261+984081612
3948+985006410+985182886+984454389+983833394+984233775+985147950+985467388
3938+985053840+984572364+984482742+984784375+985292109+985665260+985429759
3928+984410326+983103101+982431908+982802590+983511188+983771975+983867731
3918+984646501+986133868+987242548+987122030+986016940+984682484+983536250
3908+982524822+981683512+981476289+982281017+983704571+985096257+986322688
3898+987219058+987205667+986098184+984695501+984320106+985234206+985676481
3888+984469725+983101530+983742724+985950060+987462713+988018250+988507057
3878+988310981+986719404+984786919+983885611+984112434+985023018+986512929
3869+987643453+987152253+985592993+984748317+985455418+986753442+987351097
3859+986638011+984636401+982453453+982866777+987584578+992167721+992925768
3849+991327234+989062744+986796607+985070373+984318909+984265944+984459252
3839+985113239+986258875+986988045+986842466+986406474+986231270+986294484
3829+986530958+987055748+987433612+986817778+985564491+985446516+986873362
3819+987649812+987273968+987520915+988505860+988394618+986776932+984828962
3809+983863467+984737993+986620655+987207687+986114717+985382030+986096388
3799+986734066+986561106+986548538+986941140+987006374+986648110+986469464
3789+986797505+987541637+988495237+989190519+989025862+988180064+987748411
3779+988431499+989463050+989668254+988907887+987683103+986552204+986037887
3769+986143967+986318423+986590955+987404436+988203105+988035681+987280402
3759+987231177+988053037+988420726+987543657+986001829+985329888+986954456
3750+989396844+989479135+987475281+986520260+988471522+990558714+989974225
3740+987570738+985210342+984214624+985124460+987412591+989630923+990435203
3730+989551999+987877458+986774015+986906877+987640611+988162259+988577378
3720+989141817+989439037+988887614+987574479+986478666+986978021+989326597
3710+991478125+991685947+990568439+989414499+989044939+989716655+990808653
3700+991204546+990654246+989761990+988980378+988330880+987736367+987453736
3690+988287191+990619459+992962276+993540555+992265348+990235087+988724379
3680+988227568+988305145+988916715+990817929+992911555+992667301+990832368
3670+990430714+992398734+994210476+994280199+993378667+992490675+991886063
3660+991353717+990880770+991000764+991802725+991925562+990277055+987696493
3650+986234113+987314739+989494022+990422186+990049484+989454298+989369838
3640+989892533+990747159+991652582+992418708+992847218+992672837+991853521
3631+991157117+991947781+993952906+994982213+994499990+993314629+991971121
3621+991016175+991172228+992168470+992877067+993094988+993124613+992612091
3611+991443563+990778206+991597447+993010827+993609455+993461855+993454374
3601+993844582+994081504+993862162+993680524+994022554+994460640+994092426
3591+992859263+991833172+992167347+993498886+994163645+993675287+992898912
3581+992517981+992548204+992759691+993053095+993371859+993478612+992975292
3571+991684525+990085243+989295551+990076864+991556302+992396938+992594885
3561+992834052+993360937+993768051+993536141+992678896+991812300+991490394
3551+991571937+991650188+991796142+992235200+992711738+992823129+992685480
3541+992625482+992677774+992712710+992655780+992450353+992054983+991596699
3531+991364863+991524133+991886212+992119768+992146775+992124855+992157547
3521+992257568+992462472+992792009+993113690+993125810+992589499+991691782
3512+991022908+990976676+991245168+991183450+990614971+990011032+989966670
3502+990569412+991362769+991928555+992184329+992166973+991911573+991555329
3492+991274942+991087619+990905906+990741249+990669432+990663522+990648336
3482+990629484+990604722+990461087+990125191+989699449+989337669+989110622
3472+989040675+989131194+989313506+989408290+989194035+988671938+988300283
3462+988660941+989735059+990789577+991071460+990408047+989278719+988444965
3452+988258614+988370080+988428432+988721536+989537860+990301593+990214888
3442+989483249+989133962+989696083+990601729+991042508+990965903+990907477
3432+991155022+991492264+991576425+991236116+990550784+989877272+989619627
3422+989834930+990232169+990602477+990980267+991289306+991194821+990580035
3412+989936297+989915425+990549213+991193025+991207688+990507619+989487663
3403+988655105+988414966+988975964+990166561+991354016+991873196+991639415
3393+991134449+990818229+990784415+990906280+991085524+991347882+991730758
3383+992066130+992010097+991449772+990735938+990298002+990145390+989941758
3373+989474047+988878038+988465537+988399555+988475338+988305968+987864666
3363+987589141+987764121+988170937+988543190+988901603+989246850+989388166
3353+989313431+989349265+989712765+990108509+990024497+989410758+988822006
3343+988792082+989312758+990038487+990712822+991289904+991846563+992439430
3333+993007386+993453102+993715310+993647682+993098729+992289661+991763749
3323+991761953+991971271+992032765+991987954+992078249+992323999+992487982
3313+992376964+992039273+991696345+991586300+991823522+992274101+992632514
3303+992729842+992725503+992914472+993361610+993805381+993957544+993818473
3293+993612821+993516466+993564718+993703266+993820493+993863882+993944752
3284+994142324+994316481+994390393+994585572+995045278+995506255+995673979
3274+995625951+995582711+995645551+995939030+996588752+997385251+997881614
3264+997978343+998047617+998342292+998645047+998640185+998327255+997928968
3254+997651125+997645963+997980961+998543904+999131684+999659168+1000166752
3244+1000619500+1000808171+1000552022+1000047954+999832726+1000171914
3235+1000724234+1001092373+1001376500+1001831268+1002342743+1002576224
3227+1002375360+1001854310+1001345978+1001237279+1001612076+1002120483
3218+1002377754+1002400570+1002541288+1003051340+1003758442+1004228097
3210+1004250840+1004067331+1004040175+1004231239+1004431954+1004517611
3201+1004616809+1004939762+1005558738+1006330400+1006913617+1006966059
3193+1006513385+1006035351+1006026748+1006593132+1007522045+1008501154
3184+1009243043+1009667289+1009929422+1010135448+1010230681+1010268759
3176+1010442243+1010745072+1010935014+1010867910+1010554756+1009870472
3167+1008444149+1005768953+1001105764+993317023+981305124+965088768+946449251
3157+928298091+913383574+903478691+899290393+900651107+906666558+915768059
3148+925987742+935686449+944132094+951230640+956971763+961448826+965049194
3138+968156117+970873057+973231359+975303289+976969676+977982824+978405574
3128+978651698+979002705+979314662+979278977+978834009+978243611+977885422
3118+978075887+979004650+980616201+982528263+984283973+985756677+987119262
3108+988366190+989186928+989447340+989419661+989316049+988995116+988394543
3098+987800329+987383639+986883461+986047238+985041047+984201906+983697090
3088+983557421+983768234+984252927+984950677+985864328+986861617+987569990
3078+987723949+987506252+987313767+987273444+987171254+986752469+985943253
3068+984897562+983995058+983690507+984228539+985523346+987289977+989166579
3058+990812468+992096054+993106808+993884680+994336081+994494005+994578764
3048+994673249+994547943+993925002+992772558+991279431+989652095+988074731
3038+986841867+986328223+986731223+987995882+989963976+992362601+994747086
3029+996782360+998529541+1000260264+1002102154+1003933946+1005506072+1006676395
3019+1007577628+1008434499+1009226659+1009775763+1010160958+1010773350
3010+1011881731+1013326532+1014705574+1015735704+1016405551+1016919344
3002+1017557022+1018499176+1019722016+1021010464+1022015832+1022456760
2993+1022486609+1022656577+1023253708+1023898418+1023930587+1022847117
2985+1020281443+1016014969+1010154898+1002992914+994627391+984856716+973412174
2975+960268703+945836559+930944410+916709315+904283195+894288764+886255022
2965+878750334+870172501+859436930+846236828+830986939+814526629+797883933
2955+782438267+770133562+763061948+762393224+767399865+775457098+783286086
2945+788583437+790727784+790116139+786973158+780924342+771755063+760345008
2935+748567264+738245615+730238805+724235847+719134273+713763607+707677910
2925+701537827+696749780+694627128+695730198+699846379+706485668+715297955
2915+726010259+738107741+750703007+762731962+773251707+781633015+787666719
2905+791657968+794391141+796884699+800055584+804431206+809993683+816287276
2895+822747471+828962139+834755180+840188836+845404794+850352560+854817729
2885+858713969+862022579+864379460+865019083+863145922+858187384+849938713
2876+838941084+826767222+815679223+807753880+803971874+803656252+804458511
2866+803036378+796548280+784524336+769630392+756209452+747714358+745292019
2856+748133517+754515535+762713185+771671725+781202934+791520393+802597844
2846+814036251+825359003+836164671+846062821+854755637+862221947+868666207
2836+874333269+879461401+884241294+888673920+892604648+895955450+898792909
2826+901191982+903227555+905092187+907041280+909197371+911497022+913786499
2816+915879825+917616757+919010163+920305644+921777076+923468599+925194609
2806+926782446+928274226+929817028+931342323+932548256+933329120+933991485
2796+934840052+935796345+936631970+937326129+938002259+938717440+939433594
2786+940086309+940666907+941275634+942004954+942792551+943541471+944294431
2776+945069161+945668237+945939722+946090164+946452393+947059698+947707700
2766+948333483+949077092+949999122+950933047+951678750+952229574+952675216
2757+952949169+952902562+952633921+952481384+952639457+952989491+953299129
2747+953415458+953313717+953103053+952953433+952968694+953166491+953532460
2737+954021342+954537903+954983769+955335375+955667380+956070530+956547517
2727+957058019+957640712+958367937+959190320+959959738+960613201+961214223
2717+961789884+962241136+962448957+962385145+962118822+961837537+961818311
2707+962165952+962636505+962955718+963175659+963460460+963752741+963932734
2697+964066419+964297057+964723996+965457131+966517260+967654144+968478921
2687+968779432+968612007+968199881+967823214+967691623+967807653+967963407
2677+967927723+967677260+967423281+967397846+967658632+968085796+968466802
2667+968589490+968389897+968045922+967823139+967816630+967902736+967907599
2657+967783340+967665440+967760748+968095147+968455206+968724671+969113457
2647+969826693+970687155+971361714+971771821+972041585+972236389+972385036
2638+972599366+972990397+973539425+974130123+974654614+975055295+975322440
2628+975500039+975649359+975758656+975757983+975665742+975627066+975780051
2618+976177890+976777041+977378735+977727723+977799540+977836870+978027710
2608+978317373+978561926+978729051+978904854+979126515+979255263+979135866
2598+978880316+978803038+979070109+979590111+980230931+980938631+981644685
2588+982233737+982651325+982942485+983149483+983247634+983230652+983183821
2578+983225640+983431965+983827933+984331327+984686898+984651064+984339706
2568+984181932+984406736+984784525+984998032+985035661+985114510+985427440
2558+985997564+986607787+986961114+987048641+987192351+987614352+988143033
2548+988463069+988498603+988432920+988440327+988566979+988797618+989009255
2538+988954943+988600419+988311280+988354520+988481846+988345842+988007253
2529+987773099+987803696+988045331+988394319+988866368+989537935+990290895
2519+990865658+991262748+991726643+992287492+992718097+992923075+993018682
2509+993120797+993312385+993652545+994033775+994197908+993994276+993513698
2499+992978809+992649346+992776673+993406645+994194841+994649609+994653724
2489+994527744+994523181+994535001+994444855+994435204+994746488+995336512
2479+995908657+996097701+995688866+994928350+994412462+994353138+994291196
2469+993877498+993437542+993364752+993465371+993352408+993120573+993224035
2459+993798648+994422187+994592080+994197309+993415473+992486935+991771005
2449+991576500+991725372+991708165+991389102+991120460+991162802+991424861
2439+991778112+992299686+993052496+993741793+993881538+993464249+993162541
2429+993546091+994340944+994793169+994587592+994135741+994004001+994227682
2419+994357103+994216610+994267855+994931193+995926761+996688324+997043895
2410+997102845+996917316+996659372+996739045+997369841+998244890+998836785
2400+998898428+998601433+998255064+997975201+997706634+997462754+997355103
2390+997434551+997631824+997795807+997799398+997691971+997631151+997624268
2380+997573921+997555443+997725037+998018216+998317680+998741926+999377659
2370+999974042+1000232959+1000163161+999965963+999795247+999690812+999660589
2360+999847389+1000496812+1001630629+1002915261+1003902376+1004222412
2351+1003692310+1002528196+1001306329+1000585612+1000480728+1000578205
2343+1000530327+1000460006+1000411155+1000112889+999475211+998790777+998462511
2333+998689110+999238438+999582039+999468104+999156147+999045130+999399503
2323+1000267595+1001363708+1002231351+1002709460+1002971219+1003177844
2315+1003386787+1003662162+1004027981+1004392006+1004666108+1004925923
2306+1005330868+1005812942+1005950068+1005373060+1004300812+1003439453
2298+1003262827+1003566106+1003811931+1003730164+1003440351+1003139616
2289+1002822647+1002277209+1001416748+1000694909+1000872507+1002118239
2281+1003654980+1004517237+1004323106+1003320506+1002103651+1001214387
2272+1000800914+1000854029+1001536743+1002716941+1003607551+1003643459
2264+1003301953+1003430102+1004242685+1005406351+1006603157+1007653560
2255+1008398590+1008754535+1008792164+1008630874+1008262811+1007568876
2247+1006498199+1005232044+1004252485+1004149472+1004979935+1005827455
2238+1005599360+1004435769+1003644507+1003932150+1004483199+1004231688
2230+1003158019+1001829024+1000614189+999847688+999885243+1000678002+1001947672
2220+1003662685+1005779352+1007844026+1009182671+1009250748+1008115884
2211+1006872547+1006739759+1007484789+1007765027+1007077301+1006395709
2203+1006993888+1009178108+1011831160+1013195016+1012601925+1011060096
2194+1009798804+1009117063+1008885901+1009120504+1009745016+1010474411
2186+1011090992+1011472148+1011464069+1010997780+1010312822+1009947825
2177+1010395786+1011591844+1012622647+1012360888+1010923194+1009833142
2169+1009887454+1009779353+1008247101+1006437079+1006158263+1007220861
2160+1008768450+1011300385+1014918333+1018094979+1020011080+1021334839
2152+1022399381+1022601891+1021616348+1020217331+1019655510+1020365529
2143+1021470618+1021744497+1020939918+1019883156+1019434597+1019743636
2135+1020414903+1020948222+1020917924+1020165787+1019126530+1018558949
2126+1018623360+1018686948+1018293673+1017671182+1017116916+1016678831
2118+1016508788+1016652647+1016556442+1015699721+1014603309+1014363694
2109+1015296197+1016673743+1017670658+1018098794+1018277140+1018442769
2101+1018489899+1018379779+1018422795+1018663907+1018463716+1017418774
2092+1016194213+1015734807+1016253238+1017432763+1018881753+1020054994
2084+1020534374+1020663496+1021179234+1022174727+1023057707+1023449111
2075+1023571575+1023755307+1023934327+1023730171+1022949008+1021925461
2067+1021413912+1022087424+1023942631+1026229714+1028159506+1029376660
2058+1029635502+1028741152+1027021949+1025124475+1023370486+1022007677
2050+1021606099+1022312003+1023310264+1023914203+1024379445+1025117593
2041+1026078524+1027043345+1027826677+1028210302+1028101902+1027867449
2033+1028405854+1030482198+1033547228+1035748355+1035864983+1034606010
2024+1033339406+1032484481+1031868797+1031608683+1031775659+1031948320
2016+1031928271+1032317431+1033489849+1034525440+1034164034+1032672702
2007+1031707731+1032141927+1033129939+1033601166+1033701411+1034447039
1999+1036400396+1038810167+1040147915+1039631428+1037984717+1036454409
1990+1035166485+1032863018+1028536547+1023066983+1018802604+1017420045
1982+1018721061+1021417279+1024169753+1026051966+1027454275+1030154457
1973+1034857071+1039573152+1041933474+1041934521+1041051093+1039845609
1965+1038047108+1036162052+1035314383+1035750000+1036573805+1036970596
1956+1036949948+1036911421+1037016005+1036978227+1036404286+1035286255
1948+1033981947+1032773845+1031717157+1030782410+1029836366+1028712948
1939+1027552799+1026803729+1026812931+1027494148+1028342116+1028792845
1931+1028704046+1028500863+1028805638+1029956286+1031803712+1033726996
1922+1034989784+1035458691+1035675565+1036011086+1036151803+1035759501
1914+1035192818+1035064818+1035506046+1036196689+1036893542+1037460600
1905+1037565408+1036918154+1035710501+1034429833+1033342698+1032502660
1897+1032069885+1032155393+1032444009+1032495927+1032328877+1032227584
1888+1032203121+1032206638+1032615323+1033841230+1035658957+1037373671
1880+1038529780+1039123096+1039286556+1039077088+1038591573+1038112192
1871+1038047781+1038679924+1039750002+1040520467+1040719386+1040747290
1863+1040775120+1040344814+1039067288+1037292128+1035723593+1034745381
1854+1034337069+1034314102+1034556785+1035121000+1036039664+1037207144
1846+1038678577+1040567373+1042357794+1043339822+1043618712+1043752547
1837+1044064354+1044457404+1044608595+1044403616+1044173801+1044307934
1829+1044675774+1044967831+1045242532+1045436364+1045118423+1044214572
1820+1043185414+1042365649+1041617851+1040561239+1038929190+1036817760
1812+1034793184+1033577451+1033333122+1033519324+1033619270+1033716223
1803+1034367068+1035958346+1038131942+1040069290+1041360132+1042173837
1795+1042899417+1043915408+1045147748+1045824028+1045548130+1044899380
1786+1044631112+1044975387+1045664235+1046449587+1047243393+1047869401
1778+1048138941+1048068545+1047857656+1047816137+1048164077+1048738765
1769+1049301185+1049791562+1049994596+1049703960+1049166303+1048815744
1761+1048641812+1048342498+1047885560+1047230377+1046134264+1044700311
1752+1043535823+1043147187+1043239053+1043024424+1042275055+1041299536
1744+1040352669+1039471934+1038626509+1037739341+1036653777+1035410963
1735+1034467313+1034206227+1033967359+1032956979+1031446795+1029985237
1727+1028864737+1028248305+1028172523+1028344211+1028437723+1028668287
1718+1029642310+1031087035+1031300542+1029532863+1026577579+1023225056
1710+1019771465+1016288922+1012857325+1009555523+1006447552+1003817317
1701+1002395483+1002676992+1003635380+1004099350+1003948384+1003012140
1693+1001217081+998922666+996352279+993464847+990743569+990069009+993689351
1683+999738990+1004216577+1007026879+1009354659+1011790089+1014572563
1674+1017201152+1018759289+1019410433+1020207456+1021447652+1022238690
1666+1022318437+1022500150+1023495718+1024877079+1025620464+1025496728
1657+1024836158+1024049384+1024154941+1026478382+1029199735+1030221786
1649+1031056288+1033713530+1037982472+1041256670+1042784434+1043643100
1640+1044419251+1045159942+1046225906+1048092035+1049615984+1049032767
1632+1046643195+1043492583+1040191155+1036987802+1033970875+1031108805
1623+1027895876+1023258346+1016426123+1007120017+995537376+984438455+978488687
1613+978748427+983496974+991040040+999524585+1007197969+1013324886+1018090864
1604+1021849829+1024628487+1026054360+1025515805+1022325993+1016199525
1595+1008243136+1001396399+999045429+1002797661+1011576059+1022667125
1587+1033624581+1043262917+1051358377+1057941185+1062890746+1066235115
1578+1068646682+1071046802+1073147909+1073741823+1072620500+1069955777
1570+1065421709+1058346654+1047766164+1033316739+1017203995+1003619296
1561+997270269+1005622925+1029360352+1048774524+1056968808+1059605477
1553+1059756967+1058797682+1057674787+1056422921+1054288600+1050197854
1544+1043050383+1030995244+1007914871+968839429+927800531+898873404+882261379
1534+879075906+891563521+913230214+935025206+954329932+970535515+981752112
1524+987333965+988923523+988894048+989382854+991385885+994919971+999054930
1514+1002130208+1003327912+1002821151+1000497037+994746562+981744108+960972737
1504+938391644+914406821+884645940+845480053+795508873+737610331+682875492
1494+643453831+621519057+614587187+621979960+641271781+664879413+686809287
1485+706286300+724733257+742877011+758979431+769495884+771295806+763179175
1475+747457312+730974708+720769838+715794691+709675031+697960874+679360482
1465+657941858+642499109+637250160+640192501+649766127+665684216+682456408
1455+693774522+702411305+713180540+728523717+749091306+772841151+794000934
1445+807062488+810711782+806720757+798662777+791566924+791344889+801819673
1435+818842253+835368097+849908714+862832095+871943921+873797257+865558012
1425+844333519+809840248+766969410+721296573+678706496+650837103+645371279
1415+657200119+678914541+705540671+732505839+755740769+773046354+783929524
1405+788286069+786465275+780464637+773367737+768332219+768270950+775063898
1395+788789613+806651035+823746779+837154179+846694290+852158542+852674954
1385+848873497+842993976+836365909+828594225+818707072+806461242+792621143
1375+778763763+767625117+762291034+763656461+769744178+776693777+780200035
1366+778051275+771330219+763721246+759831514+762237994+770578231+782858398
1356+795848360+805569660+809459916+808369040+805757208+804241488+802668838
1346+797606688+788218665+778475969+774251464+779004425+791530866+807649969
1336+824147235+839833041+854082648+866152824+875435665+881503108+883790116
1326+881637990+875058998+865431210+855004753+845511174+837167046+828975530
1316+820423656+813101354+809889473+811762110+816055216+819056807+819809543
1306+820672847+824415129+831295904+839227905+846359666+852871329+860249289
1296+869447146+880026513+890695129+900318728+908454062+915118187+920140613
1286+922442209+919764320+910177827+895393704+882098519+877792246+884606440
1276+898242459+912662857+924448606+933045816+938788809+941533054+940529407
1266+935081837+925355824+912415686+897427481+881614574+867550794+859310427
1256+859759211+867836268+879488931+891264506+902136829+911721825+917606060
1247+914947546+899033123+869411836+832346681+798166040+774670174+762559002
1237+756877877+752358920+747584413+745096541+748484449+759423577+776741281
1227+797354579+817755642+835198129+848372122+857382431+863084429+866216113
1217+866590162+862581034+851770579+833287713+810179511+788970129+776201679
1207+775085069+784742407+801453629+820081102+835033697+841784752+839623648
1197+833449227+831184213+837804425+851903965+868050897+881617268+891461555
1187+899366774+907576095+916241306+922297602+919879527+902185679+866036495
1177+817657342+772831800+747733958+748088182+767458142+794497895+819786427
1167+836980246+841162559+828939696+801241842+765584757+733771021+715513930
1157+713477086+723844144+740623293+759247400+777490800+794639285+810515855
1147+825109737+838568083+851111580+862856034+873768006+883805377+893016849
1137+901345716+908245268+912128940+909444767+895008658+866606994+831409166
1128+804918965+799607923+814902773+839911666+864000399+882707919+896025771
1118+904823171+909283776+909113435+904451591+896285212+885626321+872558108
1108+856924371+840455457+827770271+824118658+831405051+846688455+864762635
1098+881755890+896343862+908698166+919275289+928452124+936621945+944167329
1088+951242160+957698764+963269471+967653171+970412453+971194439+970439534
1078+969733480+971031279+975345856+982212641+990289474+998248630+1005139953
1068+1010263746+1013154320+1013987326+1013891420+1014344917+1015881508
1060+1017424758+1017123948+1014161633+1009965480+1007388434+1008288545
1051+1012060676+1016630429+1020142895+1021023331+1016339269+999767418+961852425
1041+896294338+809840996+723836438+660832207+628767709+619810403+622187519
1031+629492091+640610687+656020071+675761461+699001927+724228815+749850400
1021+774621847+797410986+816243812+827629404+828685867+821968477+816875056
1011+823080897+842179298+867372522+890441674+906804058+915073376+915019438
1001+906397243+888262242+859960075+824271345+788825522+762499155+749588790
992+746973741+746276590+739516782+724646852+706558757+692281843+684943832
982+682410924+680975774+679280885+678806142+681705692+688814338+699324132
972+711685318+724586406+737307202+749496924+760880047+771262292+780666548
962+789257847+797136808+804264754+810421595+815110220+817798508+818664430
952+819047232+820720725+824436749+829218737+833033210+834020025+831579881
942+827257600+824546345+826543690+833081387+840586674+844925863+844046100
932+838293381+829388031+819612120+811302554+806216839+805064620+807651166
922+813278429+820837054+828601556+833850731+832735243+821955984+802536799
912+781708797+768933315+769089742+779965730+795767640+811709295+825565254
902+836817161+845688548+852766596+858715914+863965912+868629625+872621996
892+875821084+878275442+880301664+882266466+884243239+885943140+887070747
882+887807997+888858326+890886268+893927433+897357684+900384411+902483123
873+903046365+900607643+893624454+883175779+874033431+871424816+876634940
863+886376438+896036170+902881185+906597508+907976476+907760650+906276575
853+903237878+896768034+881498993+849506537+799112832+745133123+713181288
843+716590667+742003308+763009432+765010816+752900842+739417734+732999134
833+735699616+746545306+763592648+783837059+803559373+819932156+832053876
823+840465856+846266603+850581927+854081451+856523017+856612788+852626028
813+844225045+834362803+828650557+831635615+843372588+859830430+876362108
803+890362450+901270906+909477534+915631532+920309609+923914390+926867430
793+929669129+932637280+935751908+938806240+941611904+944075463+946160635
783+947906694+949518769+951197125+952699529+953315213+952451759+950003611
773+945924311+939389456+927591962+903628684+855935237+775403908+669462631
764+567559771+504567172+494609099+523057370+563733964+599830033+628589063
754+652698593+672630823+685758285+687912731+674516178+644399426+606029328
744+577253878+573509127+594784341+626041418+651149359+665325578+674695347
734+687217299+705338461+724611243+737840221+742707043+745640034+755474296
724+773809189+794735939+812478638+825300801+833120289+835730699+834245277
714+831908670+832184045+836272023+842790793+849391704+854215511+856391950
704+856031143+853803084+850555669+847799454+847997999+853050349+862370669
694+873190026+882723554+889801153+894925320+899239672+903369992+907197333
684+910517763+913423298+916055852+918411312+920491920+922443930+924312453
674+925647657+925690149+923898306+919855139+913283778+904375659+891436643
664+870826787+843066317+817951493+809565397+821922095+844773924+863105151
654+866735143+854840247+836037718+821498073+813905110+805911915+792402848
645+779522857+777041568+784040317+784625554+759348992+705621915+648185547
635+622365043+642501354+692215861+745630982+788735600+820378770+843374608
625+859973092+871920505+880634193+886443617+887767151+882522016+872534543
615+865173116+867360403+878636399+892269126+902534517+908923493+913581895
605+917580175+920885269+923910201+927103679+928863428+924640793+910039130
595+886615979+863034231+846975350+837048697+827810069+820887701+823968964
585+839557516+860839014+879323452+891523198+897857562+899830968+899626439
575+899871440+902132041+906223011+911331319+916918708+922293488+926354160
565+928560523+929587287+930416403+931182081+931304320+930540138+929636587
555+929824808+931619493+934304639+936697503+938190855+939042040+939849087
545+940813085+941694643+942509396+943599972+944725410+944979239+944157754
535+943426489+944063194+946057248+948251492+949482935+949465205+948789374
526+948262564+948180572+948212067+947942228+947495016+947639099+948972284
516+951208795+953798633+956498367+958768693+959587560+958521147+956329447
506+954179041+952821693+952472032+952738430+952942960+953064151+953794220
496+955530778+957845840+959861289+960789528+960484678+959658255+958950256
486+957517799+952588511+940571450+919117067+889144698+856461373+831156608
476+822498653+833380926+858883787+888151524+911539664+927485358+939206921
466+948403804+954997385+959891287+964555824+968632879+969228739+960228156
456+932254628+879914823+813415555+761314393+749757711+775835410+814987158
446+847590211+870274766+887894253+902473847+912156171+916144203+916571591
436+917001223+919848032+924432971+928387563+930698660+932569652+935763503
426+940838371+946742654+951456041+953129386+950768465+945509865+941877104
416+942050812+942665225+940092892+932848767+921597159+908864468+897981522
407+891259494+888857353+889147914+889319902+886446161+880089503+874895314
397+877346455+888040656+903283512+919475181+933323434+942688266+947381529
387+948042025+944814882+938374887+931498227+926631629+923737465+921975247
377+921780966+924064159+926914634
##END=
