##TITLE=NiW-X13784
##JCAMP-DX=4.24
##DATA TYPE=INFRARED SPECTRUM
##DATE=28/11/2019
##SAMPLING PROCEDURE=Diamant-ATR
##ORIGIN=Marie
##XUNITS=1/CM
##YUNITS=TRANSMITTANCE
##RESOLUTION=4
##FIRSTX=3997.453
##LASTX=373.96442
##DELTAX=-1.4165319
##MAXY=0.98208213
##MINY=0.42045516
##XFACTOR=1
##YFACTOR=9.1463526e-010
##NPOINTS=2559
##FIRSTY=0.95610398
##XYDATA=(X++(Y..Y))
3997+1045339082+1045565019+1045794018+1046022300+1046220019+1046304346
3989+1046201381+1045930088+1045672545+1045665312+1045877823+1045931717
3980+1045568668+1045045698+1044780204+1044789654+1044780009+1044623085
3972+1044487602+1044597670+1044993498+1045479779+1045843871+1046106041
3963+1046403987+1046687988+1046779548+1046637027+1046364039+1046097960
3955+1046023147+1046285187+1046820930+1047386259+1047700693+1047537448
3946+1046864918+1045979681+1045389392+1045433966+1045907540+1046278670
3938+1046320182+1046268504+1046410374+1046723765+1046955110+1046920311
3929+1046657815+1046274304+1045767429+1045150552+1044690925+1044704284
3921+1045049217+1045198451+1044904675+1044560850+1044669485+1045201579
3912+1045772904+1046077367+1046071632+1045977074+1046081994+1046414023
3904+1046620148+1046470914+1046347682+1046617867+1046950939+1046841849
3895+1046300175+1045724679+1045549509+1045963389+1046641458+1047076518
3887+1047066547+1046606398+1045802424+1045059578+1044961045+1045623409
3878+1046288966+1046267070+1045680105+1044938366+1044264207+1043969975
3870+1044616047+1046038853+1047102715+1047228228+1046912099+1046796622
3861+1046816694+1046574596+1046004184+1045318098+1044816307+1044961175
3853+1045995712+1047080297+1047500238+1047507993+1047452079+1047401704
3844+1047253578+1046984761+1046798838+1046935299+1047365927+1047716985
3836+1047618908+1047118811+1046554264+1046247650+1046332759+1046711188
3827+1047126045+1047246735+1046886945+1046217347+1045710668+1045849997
3819+1046668568+1047841325+1048886354+1049154649+1048538489+1047624252
3810+1046914315+1046592322+1046703758+1047105517+1047367426+1047104018
3802+1046300436+1045455667+1045155440+1045361109+1045627645+1045651301
3793+1045511255+1045460034+1045641917+1046095744+1046769773+1047418778
3785+1047694307+1047551916+1047392581+1047611805+1048165143+1048632721
3776+1048699583+1048357127+1047731453+1047065048+1046731976+1046954328
3768+1047482708+1047853055+1047784629+1047239567+1046368145+1045379942
3759+1044443548+1043696662+1043195718+1042854109+1042585748+1042536938
3751+1042961896+1043590895+1043867727+1043926443+1044396888+1045513145
3742+1046526763+1046800728+1046470393+1045911711+1045489946+1045410832
3734+1045582223+1045828101+1046037289+1046052733+1045830772+1045670199
3725+1045981440+1046664984+1047130346+1047107928+1046895873+1046837222
3717+1046971272+1047153741+1047274497+1047385803+1047577396+1047650058
3708+1047397990+1047054100+1046907473+1046901542+1046813761+1046632986
3700+1046550745+1046627903+1046733410+1046726241+1046611416+1046512361
3691+1046444000+1046252081+1045998253+1046104542+1046761171+1047822361
3683+1049064848+1050088241+1050364878+1049779281+1048918156+1048560776
3674+1048671822+1048542334+1048185932+1048284074+1049115027+1049980324
3666+1050202610+1049778499+1049079315+1048495022+1048116854+1047772834
3657+1047495741+1047651948+1048303690+1048912421+1048914897+1048079839
3649+1046820539+1046066484+1045954070+1045940515+1045843219+1045868700
3640+1046164757+1046597535+1046953872+1047156087+1047194862+1047040675
3632+1046733866+1046512231+1046662116+1046988671+1047016042+1046834224
3623+1046753872+1046857228+1047155110+1047740967+1048427704+1048732949
3615+1048602353+1048491112+1048657224+1048707664+1048121677+1047067915
3606+1046317119+1046253906+1046548855+1046753612+1046779092+1046878017
3598+1047248756+1047687464+1047725978+1047153415+1046279582+1045590108
3589+1045473979+1046143773+1047190496+1047698347+1047376354+1046672739
3581+1046083753+1045855732+1045889423+1045715686+1044941755+1043814224
3572+1042918820+1042422112+1042192787+1042427196+1043364176+1044443092
3564+1044988806+1045160653+1045265769+1045119598+1044512300+1043738890
3555+1043196109+1042889365+1042672747+1042561571+1042587247+1042737915
3547+1043125923+1043810379+1044480629+1044746969+1044578315+1044200799
3538+1043849545+1043675873+1043652478+1043546776+1043159810+1042572976
3530+1042075290+1041841990+1041755969+1041724102+1041994026+1042736155
3521+1043456845+1043406405+1042502269+1041416119+1040848770+1040944110
3513+1041273793+1041213578+1040514068+1039603806+1039114202+1039204198
3504+1039610193+1040061609+1040402892+1040543264+1040481419+1040317001
3496+1040189859+1040189599+1040240886+1040145350+1039871515+1039722672
3488+1040021596+1040656395+1041142089+1041133683+1040753103+1040367571
3479+1040128276+1039898429+1039595269+1039362034+1039359297+1039535120
3471+1039645905+1039447860+1038890025+1038163927+1037565232+1037305669
3462+1037430400+1037848059+1038398726+1038821403+1038765750+1038135905
3454+1037376180+1037069240+1037332909+1037899085+1038455487+1038594750
3445+1037945615+1036761975+1035912710+1035953374+1036460835+1036533888
3437+1035794756+1034678108+1033855758+1033676416+1034118514+1034912842
3428+1035626950+1035933238+1035871198+1035698764+1035572274+1035474522
3420+1035326853+1035070678+1034700265+1034293619+1034036924+1034124248
3411+1034473417+1034692185+1034558852+1034332785+1034345688+1034516167
3403+1034498506+1034175796+1033854194+1033948687+1034488992+1035043504
3394+1035199385+1034951943+1034610073+1034488862+1034640246+1034798082
3386+1034702155+1034437314+1034243245+1034146666+1034038097+1033961329
3377+1034071006+1034313169+1034349533+1033939824+1033289907+1032798934
3369+1032598217+1032584076+1032682609+1032808644+1032809100+1032689126
3360+1032690886+1032993003+1033464295+1033804862+1033863122+1033728746
3352+1033546733+1033389092+1033279545+1033161331+1032938001+1032715389
3343+1032754229+1033050416+1033298053+1033294012+1033039989+1032629498
3335+1032309394+1032302160+1032433669+1032379254+1032242728+1032388768
3326+1032849569+1033334938+1033654520+1033831124+1033961394+1034149794
3318+1034462403+1034829428+1035026234+1034856472+1034400168+1033998736
3309+1033925031+1034133046+1034365369+1034415874+1034256734+1033959439
3301+1033583617+1033219786+1033037903+1033084042+1033115779+1032895773
3292+1032574627+1032514412+1032818419+1033277004+1033675830+1033898703
3284+1033844809+1033536892+1033254456+1033268206+1033499291+1033684562
3275+1033776644+1033909521+1034085800+1034169540+1034124248+1034063317
3267+1034083779+1034139563+1034145689+1034207533+1034559894+1035183093
3258+1035691596+1035768298+1035512059+1035244676+1035153181+1035208117
3250+1035281691+1035287426+1035232294+1035133305+1034969603+1034857254
3241+1035132197+1035933889+1036796579+1037062072+1036699023+1036334214
3233+1036487749+1037104822+1037746398+1037978329+1037712054+1037326979
3224+1037292700+1037630855+1037940206+1037913031+1037619777+1037342032
3216+1037293548+1037496284+1037796642+1037957215+1037769923+1037218670
3207+1036587977+1036301891+1036538319+1037047083+1037434440+1037614042
3199+1037844540+1038332907+1039017363+1039726517+1040281680+1040465258
3190+1040203935+1039741962+1039371093+1039100973+1038808631+1038556171
3182+1038541899+1038838803+1039313354+1039741571+1039941831+1039874969
3173+1039705729+1039676077+1039821466+1039957341+1040031111+1040241798
3165+1040711917+1041282851+1041684545+1041735441+1041484871+1041287152
3156+1041521561+1042143260+1042719668+1042927618+1042834493+1042712760
3148+1042733614+1042862320+1042973301+1042986139+1042911522+1042821199
3139+1042732636+1042580014+1042459388+1042723969+1043488646+1044303568
3131+1044753160+1045039963+1045515882+1046022691+1046133346+1045776553
3122+1045259447+1044788220+1044184898+1042979948+1040636323+1036986673
3114+1032956444+1030597114+1031514218+1035127635+1039150956+1041830977
3105+1043147624+1043991806+1044934782+1045870460+1046409722+1046421713
3097+1046203075+1046123897+1046245369+1046431879+1046696786+1047149831
3088+1047619364+1047665829+1047129629+1046379028+1045841851+1045615524
3080+1045711190+1046285773+1047318290+1048361363+1048938032+1049034219
3071+1048982411+1048998116+1049021772+1048911183+1048632852+1048321024
3063+1048156476+1048102257+1047884988+1047400010+1046962409+1046932041
3054+1047252535+1047581502+1047725913+1047758888+1047799031+1047856444
3046+1047888376+1047890266+1047870064+1047818647+1047747614+1047674626
3037+1047584304+1047494568+1047483424+1047509557+1047312946+1046647845
3029+1045588153+1044516732+1043793045+1043447591+1043264274+1043129833
3020+1043090277+1043068641+1042824327+1042246811+1041473141+1040677835
3012+1039877836+1038917526+1037556108+1035554157+1032665014+1028558930
3003+1022783380+1014823345+1004391631+991994200+979146720+967530258+957672215
2993+948632091+939089720+928655334+918192274+909025921+901702183+895335758
2983+888205829+879077338+868080881+856583806+846288162+837992644+830759033
2973+822408383+811361095+798501494+787497348+782916908+787156455+798566271
2963+812393025+823580554+829163598+829163598+826084686+823241877+822665404
2953+824012681+825240896+824320858+820787077+816264701+813465164+814074612
2944+817275843+820368765+820799328+817563297+811131184+802735177+793869507
2934+785979267+780101795+776508189+774606075+773404058+772359355+771826805
2924+772646940+775372447+779943372+785933258+792894403+800446554+808227573
2914+815938928+823420567+830615077+837468826+843878261+849743026+855141776
2904+860456199+866179810+872531767+879280270+885894136+891833778+896805289
2894+900848356+904191914+907026055+909435565+911500858+913328486+914922682
2884+916081428+916425970+915418282+912405581+906960823+899364619+890647792
2874+882099293+874754311+869195378+865617217+864182681+865424842+870014797
2864+877773528+887023948+895304347+900875010+903492860+903915342+903031147
2854+901577191+900400329+900662759+903644114+910202718+920201133+932363439
2844+944829818+956032922+965217914+972406429+978098694+982902659+987201965
2834+991097949+994593021+997671281+1000251138+1002251264+1003712323+1004809551
2825+1005807790+1006948876+1008247798+1009464478+1010384710+1011011623
2816+1011440883+1011727816+1011909243+1012021462+1012082393+1012122602
2808+1012216574+1012516801+1013255998+1014531394+1016041394+1017304083
2799+1018196163+1018984040+1019816492+1020530208+1020955688+1021117564
2791+1021177649+1021381493+1021911046+1022661973+1023354770+1023867705
2782+1024207424+1024274416+1023961546+1023387680+1022835254+1022591461
2774+1022848157+1023541802+1024352422+1025062228+1025774381+1026619931
2765+1027446648+1027969944+1028091026+1027943877+1027696827+1027414325
2757+1027109471+1026861964+1026799468+1026957239+1027207352+1027368968
2748+1027400966+1027465677+1027754565+1028252577+1028729213+1028954432
2740+1028881966+1028623446+1028308686+1028005526+1027775810+1027731300
2731+1027907579+1028101648+1028002919+1027547658+1027008917+1026680341
2723+1026633551+1026819865+1027219278+1027790994+1028405395+1028898258
2714+1029152868+1029198094+1029256484+1029566683+1030122889+1030738984
2706+1031326405+1031919822+1032482675+1032911217+1033202778+1033464556
2697+1033752858+1033995086+1034065207+1033898768+1033527378+1033054717
2689+1032648005+1032467817+1032473291+1032381926+1031970978+1031330576
2680+1030724060+1030346088+1030275251+1030470623+1030753646+1030938918
2672+1030981603+1030940091+1030917608+1031077204+1031508614+1032033018
2663+1032350580+1032417572+1032488996+1032749341+1033069119+1033211771
2655+1033170194+1033181859+1033420763+1033755856+1033867423+1033611705
2646+1033234775+1033129529+1033376449+1033659603+1033653738+1033341976
2638+1032966024+1032830475+1033109327+1033683845+1034224281+1034517470
2629+1034602775+1034613983+1034677587+1034898180+1035218544+1035402903
2621+1035355200+1035318446+1035546793+1035922094+1036101305+1035968624
2612+1035776379+1035868070+1036342491+1036946399+1037272238+1037123590
2604+1036717726+1036481428+1036662725+1037169729+1037722872+1038128215
2595+1038416256+1038709836+1038992208+1039142745+1039156170+1039120784
2587+1038983541+1038585105+1037946984+1037342554+1037042391+1037088139
2578+1037314466+1037532387+1037726326+1038082076+1038765229+1039661545
2570+1040445968+1040911917+1041107746+1041185426+1041293604+1041529185
2561+1041803280+1041908200+1041899728+1042119409+1042661669+1043188484
2553+1043438924+1043545864+1043726769+1044039835+1044545145+1045362347
2544+1046401250+1047238068+1047483099+1047223405+1046901151+1046804377
2536+1046889747+1047039893+1047191017+1047234354+1047050646+1046666352
2527+1046225754+1045826015+1045465833+1045143058+1044920315+1044837422
2519+1044778184+1044539996+1044107088+1043783139+1043926443+1044536152
2510+1045188154+1045430578+1045191608+1044818197+1044775773+1045242308
2502+1045877628+1046102065+1045724223+1045183201+1045113342+1045795647
2493+1047015977+1048242172+1048916722+1048825813+1048325195+1048034352
2485+1048156541+1048285704+1048065437+1047753610+1047828683+1048324283
2476+1048875992+1049175438+1049120176+1048760450+1048313400+1048059116
2468+1048039109+1047947223+1047450059+1046617998+1045916338+1045707997
2459+1045922137+1046300631+1046758760+1047311903+1047825750+1048112423
2451+1048224316+1048425293+1048833568+1049274558+1049548848+1049648359
2442+1049588927+1049265434+1048696912+1048203266+1048014932+1047838588
2434+1047222754+1046310406+1045769841+1045916729+1046349116+1046565538
2425+1046580135+1046749050+1047223796+1047732560+1047871563+1047547224
2417+1047059835+1046764690+1046775247+1047022363+1047428684+1047961690
2408+1048589580+1049189905+1049517698+1049406196+1049015125+1048712878
2400+1048644256+1048596618+1048380131+1048116528+1047997076+1047958692
2391+1047800726+1047503431+1047267459+1047257488+1047359410+1047255468
2383+1046809069+1046274629+1045975445+1045909365+1045888837+1045960195
2374+1046479191+1047779937+1049771461+1051847377+1053323751+1053940367
2366+1053833622+1053370997+1053107785+1053355292+1053891948+1054501200
2357+1055158937+1055491488+1055070244+1054227040+1053646917+1053532743
2349+1053711629+1053967281+1054052325+1053926030+1054059624+1054798821
2340+1055576466+1055546164+1054769691+1054197910+1054487841+1055249260
2332+1055627493+1055306803+1054568844+1053682629+1052817398+1052292081
2323+1052336395+1052688040+1052758356+1052246659+1051459825+1051021833
2315+1051247704+1051792832+1052017465+1051681851+1051120497+1050775565
2306+1050736594+1050765659+1050669341+1050540831+1050596744+1050880028
2298+1051193876+1051280418+1051019031+1050533206+1050152953+1050195051
2289+1050697885+1051416098+1052066080+1052486933+1052644247+1052664775
2281+1052761288+1052949753+1053054087+1053122122+1053500420+1054305436
2272+1055075848+1055141733+1054386896+1053557637+1053451610+1053814789
2264+1053731374+1053173213+1053176667+1054240204+1055547337+1056168189
2255+1056203510+1056190476+1056071285+1055542123+1054893575+1054621304
2247+1054547860+1054119643+1053232711+1052192440+1051279245+1050646728
2238+1050101926+1048936794+1046521028+1042951404+1038652359+1033633080
2230+1027422927+1018987690+1005638745+982399695+944279738+890315306+825334216
2220+758970984+704455364+675862790+681317063+716887856+768885918+822960940
2210+870726623+909654724+940025332+963122708+980680897+994129744+1004067943
2200+1010891585+1015534455+1018991339+1021525058+1022987094+1023855649
2191+1025559588+1029288026+1034390067+1038771485+1041254894+1042523970
2183+1043549904+1044499658+1045325462+1046124353+1046937059+1047867132
2174+1048920306+1049404046+1048317245+1045624973+1042536156+1040303446
2166+1039218535+1039128213+1040331469+1043127161+1046864266+1050246273
2157+1052429194+1053423131+1053787744+1054134893+1054639225+1055196343
2149+1055823973+1056296048+1055924201+1054475524+1052815834+1052081264
2140+1052453958+1052869923+1052112219+1050468429+1049713332+1050926623
2132+1053168717+1054787677+1055113581+1054517036+1053546494+1052387943
2123+1050967548+1049420273+1048266349+1048001964+1048650903+1049746958
2115+1050613688+1050810690+1050557839+1050499840+1050953342+1051750994
2106+1052741412+1053797911+1054388721+1053869856+1052306744+1050514438
2098+1049346307+1049209195+1049996029+1051199676+1052258324+1052870314
2089+1052957052+1052612902+1052238904+1052399934+1053331245+1054667378
2081+1055664899+1055744599+1054996279+1054062752+1053363829+1052781621
2072+1052326685+1052497359+1053531701+1054824953+1055481191+1055077022
2064+1053811531+1052398044+1051712089+1052069403+1053003843+1053936001
2055+1054553073+1054519121+1053751251+1053065752+1053665294+1055767017
2047+1058349155+1060334032+1061338135+1061370263+1060624549+1059711355
2038+1059654855+1061186360+1063975862+1066890160+1068894000+1069338118
2030+1067978916+1065581332+1063860059+1063880326+1065072308+1066412285
2021+1067792211+1069549522+1071453656+1072942542+1073741823+1073520905
2013+1071753883+1068592404+1065134673+1062393852+1060669059+1059941592
2004+1060083332+1060688349+1061242600+1061395483+1061069579+1060561141
1996+1060392618+1060826699+1061622983+1062349277+1062880263+1063379578
1987+1063794696+1063798475+1063207665+1061890757+1059629895+1057148571
1979+1056745835+1060022530+1065141711+1068579241+1069151999+1068323848
1970+1067454838+1066461617+1064928027+1063329659+1062529400+1062669706
1962+1063216267+1063517016+1063058301+1061751298+1060069777+1058586431
1953+1057618691+1057284902+1057273237+1056817845+1055828470+1055595886
1945+1057282426+1060043710+1061659282+1061135008+1059557690+1058402332
1936+1058270758+1058869780+1059428788+1059367726+1058839868+1058433743
1928+1058398943+1058526151+1058617907+1058656030+1058651794+1058637913
1919+1058673755+1058721849+1058668021+1058480338+1058213932+1057968250
1911+1057916116+1058154369+1058461244+1058489722+1058255900+1058075125
1902+1058032049+1057884314+1057538274+1057248604+1057295199+1057702627
1894+1058262613+1058702559+1058849969+1058684508+1058334232+1058049384
1885+1058034786+1058200312+1058241563+1058061049+1057869130+1057858508
1877+1058047624+1058331821+1058520025+1058517223+1058480012+1058549872
1868+1058558213+1058342182+1058058768+1057806504+1057469001+1057063462
1860+1056854795+1056999077+1057325436+1057579069+1057686596+1057707710
1851+1057660789+1057508232+1057268415+1057065678+1057025665+1057127848
1843+1057210611+1057191517+1057126088+1057064505+1057035766+1057084120
1834+1057171119+1057071999+1056533910+1055688555+1055192564+1055457666
1826+1056086925+1056434790+1056380244+1056318335+1056528110+1056916249
1817+1057207939+1057219865+1057039285+1056958412+1057181025+1057587997
1809+1057860984+1057834396+1057600314+1057342575+1057199923+1057236482
1800+1057430617+1057659551+1057806765+1057923610+1058168576+1058526476
1792+1058660135+1058374766+1058015888+1057945441+1058140488+1058357692
1783+1058420774+1058282619+1057967338+1057647821+1057544530+1057612500
1775+1057569163+1057228467+1056729999+1056390932+1056270698+1056110907
1766+1055685883+1055089534+1054640724+1054528701+1054605012+1054624041
1758+1054549033+1054396150+1054089340+1053622284+1053144800+1052754772
1749+1052248549+1051318411+1049933142+1048258398+1046513013+1044992977
1741+1044036446+1043842051+1044298550+1045164433+1046262182+1047219170
1732+1047583457+1047583392+1047719853+1048145528+1048751457+1049384235
1724+1049867192+1050014732+1049841125+1049640083+1049808672+1050402675
1715+1050894561+1050978757+1050887718+1050861456+1050932684+1051070709
1707+1051292996+1051526166+1051574911+1051427958+1051309744+1051290454
1698+1050986317+1049884397+1047461267+1043439380+1038340662+1033416462
1690+1030581669+1031235105+1034731090+1039610584+1044638139+1048178829
1681+1049770614+1050355820+1050644969+1050970025+1051409972+1051712936
1673+1051677615+1051553862+1051714500+1052132942+1052414466+1052437992
1664+1052424828+1052601628+1052963178+1053346299+1053688233+1054008532
1656+1054361350+1054869593+1055402729+1055418891+1055069201+1054835966
1647+1054886536+1055104587+1055278390+1055371579+1055412374+1055381224
1639+1055289664+1055293248+1055617131+1056101262+1056289270+1056151962
1630+1055907974+1055696962+1055556395+1055463922+1055429057+1055519119
1622+1055659751+1055625733+1055387024+1055195822+1055292140+1055518793
1613+1055567930+1055360371+1054973535+1054555811+1054249718+1054113843
1605+1054112540+1054112670+1053988787+1053807034+1053739194+1053817656
1596+1053938282+1054004231+1053988005+1053921664+1053820915+1053640335
1588+1053387615+1053151578+1052952556+1052761875+1052620070+1052546235
1579+1052488366+1052471488+1052590875+1052807558+1052999998+1053173213
1571+1053414594+1053815310+1054281780+1054569626+1054645286+1054634794
1562+1054549163+1054283670+1053651805+1052370934+1050685438+1049031352
1554+1047350091+1045412461+1043078416+1040357796+1037417757+1034184333
1545+1029750912+1022320820+1007362821+972237579+909091414+844661642+800391748
1536+767904363+739895561+726140426+739709247+776646149+825300328+874920814
1526+915575206+944033730+964690056+981147563+992542586+999080988+1004021935
1516+1009423487+1014541626+1018268890+1020494757+1021293713+1020397983
1507+1017232464+1012107678+1006523200+1000319564+991793157+978829223+959270191
1497+932706873+904481845+882532137+869024509+861972781+860604781+865971013
1487+877204028+890702077+903094686+912162832+916298763+914301439+905440526
1477+889704034+868434937+843804101+817167078+790759250+769343786+756288292
1468+753413159+762817440+782705765+804024519+819504968+829452486+836912229
1458+844245221+851866970+858688200+864243287+867911380+868408088+865491965
1448+861543326+859786471+860365681+859926386+854832751+844170082+829978520
1438+816213740+808238847+807509230+808201832+804126050+792624674+775456122
1428+757872778+743071312+729235434+712158703+688646926+657412520+622266947
1418+597486877+595334649+611881306+636566036+659831609+674988044+681376105
1408+683340714+683284996+676906646+657403983+623144169+577332473+526552263
1398+483088591+459697081+460412361+478507011+501237981+520303303+536700987
1388+555532129+576634592+591017682+592345343+587048711+589572589+609969482
1378+645759043+686192777+720460021+739549912+737124241+712711195+671134680
1368+621450982+576162648+545088163+530030783+524187492+515716184+499072851
1358+480579017+470086175+472692654+487862904+512928670+545201718+580966938
1349+615202837+644044938+666707189+684782223+701012361+718442561+738762491
1339+760580104+780590161+796656989+808565272+817185325+824175274+831308787
1329+838600202+842972952+840294822+830386600+819604218+816682296+825539233
1319+842463276+860185818+874270766+885055559+894697506+904129027+912616724
1309+919022836+922876070+924645242+925539538+927125719+930717239+936396340
1299+942456738+946678104+948779826+950950757+955253712+961191008+966452971
1289+969239345+969073689+965917814+959208673+947505863+928538163+899503752
1279+857756433+802352512+736314598+667712205+607763296+566727673+549909463
1269+555939818+578524519+610260521+645529588+681160856+715664659+748247253
1259+778256964+805010180+827530301+844013484+851339764+845356916+822906264
1249+785192693+739247273+694689142+658505838+633333589+619758448+618186538
1239+628117634+647125739+671512522+697717353+722953076+744940516+761454654
1230+769989272+767621861+751807624+722583770+684527483+646005377+616094330
1220+601683935+605613806+625739666+656018323+689616100+721652850+749917305
1210+774144167+794940538+812960831+828613648+842148777+853737412+863460884
1200+871262953+876739383+878886332+876329152+868238065+855374750+840456829
1190+827263439+818343810+812402474+804081802+787888940+763364783+736130369
1180+713613115+699861304+693962197+692258388+691543303+690834670+690952624
1170+692444703+693623846+690869796+681556684+667076690+652891644+645421018
1160+648477642+661860018+682469683+706445389+730727448+753573667+774353942
1150+793046635+809792705+824679281+837671041+848650750+857511467+864014028
1140+867346181+865712297+856197883+835613242+803536413+766200945+736155067
1130+725134498+735884947+761123993+789767333+812950339+825054451+822544192
1120+805080235+778117309+751985140+735433922+729155408+727051731+724542450
1111+723839421+729685547+741230064+749816817+745058143+723468747+692108698
1101+663856755+648510357+648089634+659390229+678517981+702338067+727889787
1091+752533852+774668180+793737543+809728580+822897336+833716016+842726423
1081+850320281+856687031+862009470+866656316+871088369+875602924+880218945
1071+884739952+888919220+892666882+896079908+899239562+902157705+904991325
1061+908065024+911573781+915408051+919276860+922901876+926166190+929154649
1051+931931964+934213158+935241830+933755486+927815388+915395604+896731259
1041+876137103+859151151+846879363+835683167+823808184+815343817+815561738
1031+824822584+838752303+851483524+855979897+843393740+807580588+753835707
1021+700670100+666469653+652764111+645751418+635579006+627997530+634621498
1011+657879773+689740375+721088629+747891699+770131924+788798290+804628949
1001+818121719+829702209+839758948+848567401+856274846+863046744+869136923
992+874726549+879832371+884478760+888810324+892950752+896899000+900643469
982+904237792+907681773+910842795+913602385+916007724+918192796+920242058
972+922203214+924106435+925859576+927142532+927367686+925881733+922727292
962+919300776+917362755+916712186+914250543+906097612+891202499+873217266
952+858022643+848140422+840480745+831676463+824536303+825937929+838525064
942+857517789+875743165+889163077+897509752+902175561+904438117+904563500
932+901778494+895161956+885042786+874203122+867578894+869410888+879709725
922+893934719+906614782+914856993+918304493+916796513+908627030+890639190
912+860902402+823498899+790431196+775426080+783720034+808620534+838182542
902+863767433+882396262+893732243+896969121+890869753+876970337+862109307
892+855017762+858549654+866637287+870047576+864246285+852110176+841241643
882+838522261+844878064+854249826+857770118+849624029+831444922+813152098
873+807498608+820465800+846677995+875014004+897693590+913377231+923902982
863+930893583+935244306+937588257+938159712+936379788+930665170+919023683
853+899814732+870819422+829804196+782201628+747575961+748078534+785854471
843+839082052+883574624+911406561+927463874+937485227+943940540+947942356
833+950239842+950642123+947635417+938986103+923668248+904378228+888131408
823+882667034+890551344+907051797+924498224+938026184+946944379+952547169
813+956206268+958888439+961176476+963268423+965048934+966354503+967198685
803+967752414+968345440+969490045+971447486+973782770+975831902+977373704
793+978313030+978267739+977119550+975311408+972908936+968414192+958087724
783+937089464+904765128+869861261+845291813+834855668+830681027+826886770
773+828608370+842850111+867121808+892354924+912247810+925849019+934737497
764+940870101+945623952+949471060+952619309+955462249+958175114+960540700
754+962302638+963418830+964134957+964831404+965592693+966115077+966134823
744+965654016+964762783+963488364+961727077+959109292+954973361+948671648
734+940106466+929886742+918760927+907374833+897280427+891476464+892417420
724+899423074+909106012+918328214+925909755+931497100+933954638+931001240
714+918193382+888621925+840213167+787513900+758955409+773218395+820620508
704+873652065+912335787+934183181+945328286+951188814+954797604+957842172
694+961006388+964183963+966902367+968766684+969750716+970193986+970638625
684+971462279+972402193+972756705+972282610+971453938+970756057+970253941
674+969922563+969934358+970430284+971042209+970415426+967176072+961815445
664+954170561+942124383+925243742+908407154+898225618+894910409+892500183
654+888789992+889966138+901745585+920543459+937594122+948285855+954033708
645+957657617+960288110+961881590+962420657+961895992+959836563+955666875
635+949090220+939216862+924441397+905360761+887414433+878018754+879507836
625+885548031+886554350+879480530+871236364+872018898+885694919+906944466
615+927476842+942970455+953346385+959850705+963917428+966949093+969622792
605+971831454+973404471+974372732+974735977+974306652+972553642+968563882
595+961237733+949514526+933259364+914918772+899466997+891547953+893000996
585+902564351+916812349+931799218+944712712+954590501+961842489+967106668
575+970386231+971121322+968875514+963380185+953377405+936001685+909301710
565+876743163+848264436+834876130+840773935+860624983+884603556+905141081
555+919137987+926221778+926721353+920927231+909609953+895289489+882537937
545+875785980+875767472+877780501+873534176+855447347+820919171+774133479
535+724967995+685947617+667712466+674464487+702328617+742426152+785507257
526+824259340+854458232+875241504+887162560+890781125+887699737+881843380
516+878633546+882337807+893505720+908430940+921973498+931790485+939148957
506+945717337+951189205+954438400+955638397+956341621+957800986+960100688
496+962614270+964702959+966289466+967959843+970118718+972105680+972808643
486+972135722+971332335+971635039+973035622+974765042+976395928+978032288
476+979752584+981154210+981461932+980182365+977744768+975299221+974009423
466+974186157+974707890+974028973+972065211+970466387+970842796+973054521
456+975537539+977370966+978706969+979365293+978600289+976405638+974124313
446+973309196+973787722+972865339+967634266+958865044+950750561+946662138
436+946935255+949955842+954057364+957629530+958342790+953951793+944400233
426+932912738+924664597+922550166+923382814+920021270+908652380+896830574
416+895527742+905043590+919800352+934121924+944411637+951002304+956317314
407+961384621+965665746+969347589+973683324+978817298+982745930+983770562
397+983944690+986371208+991132618+996312535+998955019+996741794+990828871
387+985021455+981141698+976869957+970461043+964283214+960781234+959321934
377+958112879+957795056+960580061
##END=
