##TITLE=X8882
##JCAMP-DX=4.24
##DATA TYPE=INFRARED SPECTRUM
##DATE=2/11/2018
##SAMPLING PROCEDURE=ATR platinum Diamond 1 Refl
##ORIGIN=ComPlat
##XUNITS=1/CM
##YUNITS=TRANSMITTANCE
##RESOLUTION=4
##FIRSTX=3997.453
##LASTX=373.96442
##DELTAX=-1.4165319
##MAXY=1.0710794
##MINY=0.099910527
##XFACTOR=1
##YFACTOR=9.975204e-010
##NPOINTS=2559
##FIRSTY=1.0112385
##XYDATA=(X++(Y..Y))
3997+1013752155+1013497967+1013203505+1013028190+1012970469+1012897929
3989+1012739703+1012491012+1012101424+1011497204+1010663293+1009603159
3980+1008280829+1006710884+1005086205+1003739497+1002992706+1003043496
3972+1003903578+1005341230+1006949178+1008416349+1009668409+1010675124
3963+1011336230+1011631647+1011614678+1011267394+1010715398+1010432887
3955+1010690541+1010966121+1010496464+1009271053+1007993777+1007109913
3946+1006322371+1005178942+1003699462+1002345703+1001598792+1001632672
3938+1002345225+1003462124+1004642840+1005637843+1006311257+1006643125
3929+1006847001+1007209701+1007750583+1008219404+1008443238+1008531074
3921+1008620106+1008697187+1008846569+1009404421+1010515943+1011785810
3912+1012732772+1013305802+1013778088+1014207471+1014151304+1013066312
3904+1011223177+1009876468+1009660880+1009901206+1010135557+1010665325
3895+1011532697+1012244233+1012435442+1012453129+1012995565+1014038849
3887+1014777633+1014480900+1013473468+1012681863+1012281997+1012181015
3878+1012650313+1013527126+1014032635+1013732317+1013087584+1012757510
3870+1012865782+1013221192+1013413715+1012873191+1011558988+1010530642
3861+1010821758+1012121620+1013671847+1015176662+1016280416+1015761044
3853+1013074319+1011050014+1011244688+1012323226+1013336634+1014122742
3844+1014514123+1014197433+1013288712+1012369356+1011861935+1011787841
3836+1011937343+1012047049+1011930889+1011628062+1011409845+1011475454
3827+1011770991+1012189022+1012636212+1012785116+1012232402+1011455138
3819+1011521224+1012237063+1012740062+1012990187+1013558795+1014514123
3810+1015456664+1015923692+1015645363+1015007681+1014649762+1014277143
3802+1013193825+1012023745+1012160101+1013412998+1014692664+1015461205
3793+1015869795+1016172263+1016482261+1016829425+1017077518+1016981436
3785+1016555876+1016162464+1015982010+1015789606+1015492157+1015501478
3776+1016146211+1017140139+1017915372+1018057584+1017525186+1016734776
3768+1016260578+1016329055+1016796083+1017287968+1017339953+1016744934
3759+1015863939+1015425473+1015645602+1016004836+1015883657+1014881603
3751+1013247363+1012318088+1012851441+1013915878+1014159550+1013194661
3742+1012401383+1012662025+1013272938+1013341534+1012643382+1011922166
3734+1012101065+1013003452+1013977184+1014810975+1015363330+1015301306
3725+1014652630+1014242726+1014778828+1015889035+1016697490+1016854640
3717+1016653871+1016471147+1016319972+1015805142+1014708678+1013834255
3708+1014094658+1015202953+1016268107+1016568424+1015935164+1015049628
3700+1014875149+1015475785+1016239186+1016739676+1016812216+1016260817
3691+1014921039+1013120448+1011920014+1012045256+1013034524+1014232687
3683+1015311345+1016058374+1016255678+1015631859+1013866283+1011304919
3674+1009730672+1009879098+1010273825+1010023819+1010100422+1011516922
3666+1013565009+1015178694+1015984759+1016216719+1016235123+1016057418
3657+1015425473+1014407524+1013581621+1013164187+1012698833+1011665109
3649+1010286014+1009688486+1010276693+1011479039+1012832201+1014104697
3640+1014990233+1015111651+1014439193+1013480877+1012952543+1013237205
3632+1013914444+1013762552+1011857274+1009697449+1009511259+1010699862
3623+1011798716+1012098914+1011400882+1009996333+1008860193+1008587122
3615+1008712245+1008747618+1008752877+1008745945+1008452918+1008031541
3606+1008134913+1008806774+1009337618+1009265914+1008866287+1008633610
3598+1008582701+1008493310+1008504185+1008932972+1009688008+1010240005
3589+1009991074+1008684878+1007026977+1006159485+1006234535+1006732515
3581+1007203008+1007290964+1006829792+1006125307+1005803717+1006204419
3572+1006964595+1007232287+1006249593+1003977552+1001657768+1000965950
3564+1001958743+1003550319+1005005420+1006090770+1006746616+1006893489
3555+1006436141+1005425840+1004221582+1003338914+1002948728+1002794685
3547+1002700634+1002837349+1003303899+1003812754+1004102435+1004268906
3538+1004511383+1004775132+1004793656+1004444819+1003899276+1003414680
3530+1003208414+1003470370+1004178919+1004940169+1005333104+1005329160
3521+1005138310+1004853289+1004523812+1004340968+1004430239+1004570658
3513+1004393790+1003872745+1003454476+1003633734+1004434063+1005394171
3504+1005916650+1005703452+1005128271+1004883882+1005097080+1005291396
3496+1005199019+1005091464+1005186590+1005258413+1005080589+1004793775
3488+1004634355+1004641047+1004781466+1005078796+1005509375+1005976761
3479+1006402201+1006679574+1006667504+1006376268+1006010581+1005749103
3471+1005639277+1005686363+1005900517+1006303251+1006902810+1007557342
3462+1007989714+1008135033+1008271030+1008601702+1008951136+1009051282
3454+1008902020+1008660857+1008358628+1007986009+1007724053+1007781176
3445+1008054844+1008259796+1008267325+1008077789+1007706724+1007257622
3437+1006866241+1006545608+1006300143+1006238837+1006344121+1006390609
3428+1006269191+1006058742+1005679073+1004812896+1003297445+1001459150
3420+999990904+999405207+999605379+1000135446+1000786991+1001684060+1002793849
3410+1003770807+1004364391+1004492621+1003777738+1001581046+997979326+994385732
3400+992699628+993826147+997068574+1000791771+1003658950+1005397517+1006584089
3390+1007766716+1008873697+1009542092+1009804168+1010107592+1010691377
3381+1011328223+1011744102+1011923958+1011935311+1011831939+1011774457
3373+1011874005+1011902328+1011546918+1010930388+1010519289+1010559204
3364+1010886291+1011225806+1011425261+1011475573+1011532577+1011849267
3356+1012448707+1012905697+1012743408+1012075252+1011526243+1011490870
3347+1011794653+1012100348+1012263952+1012182329+1011656983+1010683012
3339+1009686455+1009182619+1009224804+1009438002+1009516996+1009404899
3330+1009107211+1008673405+1008247129+1007918966+1007663463+1007457436
3322+1007293355+1007140387+1007002836+1006852618+1006472829+1005547975
3313+1003931184+1001762814+999339121+996826156+994129691+991107813+987781553
3303+984256138+980556722+976548802+971986257+966679909+960330157+951722108
3293+937528127+911164292+864610999+797452966+727402419+685336502+691633970
3284+738184037+797364532+845906458+876882852+893938753+902063940+904285489
3274+902263096+897330979+890956311+884427420+878253222+871913211+863970449
3264+852478968+835645168+812390630+782571231+747052847+707810131+668012371
3254+631888094+604051591+588336423+586581125+597951905+619416846+647086698
3244+677354005+707520569+736021881+762049368+785088437+805088777+822656342
3234+838513363+852921498+865818723+877192610+887167744+895967002+903918248
3224+911396253+918630465+925554561+931943212+937773174+943275810+948519537
3214+953198241+957037240+960204617+963111889+965966102+968691965+971141293
3204+973176891+974690131+975806732+976996112+978659271+980596338+982183731
3194+983119639+983691533+984271614+984879419+985422393+986087501+987134012
3184+988391151+989370201+989886943+990197718+990563405+991041368+991631964
3174+992293846+992892151+993317770+993572019+993718891+993899404+994296462
3165+994942389+995690076+996405497+997017784+997466826+997821459+998321470
3155+999119170+1000116803+1001100693+1001812947+1001971770+1001573935
3146+1001117245+1001128359+1001528165+1001835832+1001913989+1002109858
3138+1002705295+1003561792+1004301053+1004673791+1004753741+1004795329
3129+1004947340+1005212881+1005562435+1005882710+1006010103+1006020261
3121+1006197130+1006564490+1006808042+1006767530+1006643125+1006666428
3112+1006861222+1007128556+1007348925+1007409634+1007268856+1007009051
3104+1006768247+1006580384+1006364915+1006153390+1006155781+1006427297
3095+1006694512+1006771952+1006909144+1007394934+1008035126+1008358867
3087+1008210202+1007831249+1007465084+1007199901+1007159986+1007484205
3078+1008028553+1008377988+1008280949+1007899248+1007580527+1007513125
3070+1007628926+1007754407+1007833878+1007979317+1008247129+1008481121
3061+1008546012+1008575769+1008779526+1009133024+1009438241+1009547708
3053+1009397729+1008991888+1008443118+1007922432+1007566903+1007457197
3044+1007545153+1007655935+1007737198+1007969398+1008392209+1008654882
3036+1008383604+1007558299+1006363123+1004970763+1003586410+1002402767
3027+1001497810+1000995588+1001155427+1002021783+1003178418+1004126336
3019+1004701278+1004953913+1004923080+1004721474+1004556795+1004481626
3010+1004302129+1003766863+1002716289+1001148854+999314383+997630310+996350285
3000+995332695+994077049+991915969+988270749+982785382+975283118+966055313
2990+956627395+949671631+947018606+947585182+948044203+945630309+939767304
2980+931510960+922776354+916235393+914474179+918100338+924930503+931579377
2970+935874648+937913294+939360208+941939617+946243672+951660921+957252708
2961+962449350+966954712+970464652+972794473+974098997+974754605+975061136
2951+975079779+974677523+973720642+972267932+970554281+968793186+967117479
2941+965749498+965046745+965234070+966189398+967594485+969166104+970682271
2931+972002569+973191352+974448013+975838999+977208115+978387097+979385328
2921+980331991+981291143+982204943+983003002+983643731+984004937+983851432
2911+982976292+981372885+979401102+977834025+977446947+978339773+979846201
2901+981212867+982166403+982829599+983392112+983959883+984518691+984928655
2891+985002868+984630668+983857108+982915524+982176501+981984276+982519661
2881+983837928+985905435+988441523+990857030+992642982+993804935+994677744
2871+995407983+995914747+996253784+996618037+996990716+997181208+997228532
2861+997411495+997819607+998199575+998299242+998182067+998149681+998443784
2851+999074416+999927745+1000911277+1001899588+1002724535+1003389704+1004084031
2842+1004835722+1005438508+1005821882+1006185418+1006707180+1007383462
2833+1008123919+1008814542+1009373350+1009853523+1010379587+1010944012
2825+1011391322+1011621489+1011723667+1011879502+1012140502+1012332906
2816+1012262398+1012013826+1011912605+1012151019+1012591875+1012993055
2808+1013279869+1013517805+1013767691+1014060958+1014408480+1014742498
2799+1014928449+1014914108+1014794722+1014682506+1014586543+1014487234
2791+1014457597+1014590367+1014814082+1014900007+1014717999+1014456402
2782+1014487951+1014967169+1015628513+1016089924+1016288064+1016448441
2774+1016709680+1016988128+1017179457+1017281992+1017322027+1017314617
2765+1017325373+1017468421+1017770770+1018069654+1018141238+1017950865
2757+1017692016+1017561038+1017556975+1017496744+1017200370+1016721272
2748+1016375423+1016409840+1016688528+1016878780+1016874478+1016828230
2740+1016856194+1016935904+1017016929+1017056963+1017020992+1016940923
2731+1016885114+1016826318+1016675023+1016439000+1016202020+1015969223
2723+1015705116+1015495383+1015495383+1015708701+1015957990+1016089685
2714+1016087892+1015988703+1015819124+1015644885+1015564816+1015626959
2706+1015813627+1016061482+1016221022+1016130795+1015867404+1015746584
2697+1015904451+1016110359+1016183736+1016294876+1016598062+1016887265
2689+1016922042+1016819864+1016839941+1017005576+1017202880+1017440457
2680+1017774834+1018112915+1018302809+1018353360+1018398892+1018486370
2672+1018537040+1018505969+1018442033+1018385866+1018316672+1018218558
2663+1018088536+1017883703+1017572750+1017275420+1017233712+1017548968
2655+1018014801+1018313206+1018355392+1018295639+1018214375+1018008945
2646+1017677915+1017447747+1017439142+1017476428+1017438425+1017504751
2638+1017825026+1018249510+1018595359+1018871895+1019065972+1019022592
2629+1018737332+1018507164+1018561778+1018724545+1018680089+1018437492
2621+1018244371+1018191311+1018241264+1018485414+1018990684+1019537183
2612+1019816109+1019746676+1019465599+1019198504+1019165042+1019406683
2604+1019784201+1020250990+1020897993+1021613832+1021991948+1021766560
2595+1021168793+1020703797+1020662209+1020952966+1021334428+1021650042
2587+1021852246+1021973544+1022126272+1022411532+1022797774+1023155813
2578+1023397334+1023530224+1023628458+1023780947+1023991755+1024126199
2570+1024080667+1023992233+1024095486+1024376204+1024588446+1024603862
2561+1024474796+1024207701+1023800307+1023462464+1023457326+1023754656
2553+1024101700+1024372858+1024604938+1024805588+1024954492+1025069337
2544+1025110686+1024986280+1024781209+1024760295+1024981381+1025120605
2536+1024877411+1024399388+1024075050+1023984465+1023843687+1023511701
2527+1023198835+1023061882+1023002607+1023060089+1023535841+1024450895
2519+1025282296+1025518439+1025177728+1024626927+1024188102+1024016970
2510+1024073377+1024147471+1024095127+1024035733+1024170655+1024482564
2502+1024725280+1024682378+1024402137+1024135281+1024012429+1023910969
2493+1023727050+1023581372+1023622841+1023840819+1024117236+1024274146
2485+1024126677+1023688808+1023230982+1023034395+1023181148+1023537514
2476+1023823132+1023821340+1023618300+1023511581+1023684625+1024098473
2468+1024640790+1025212027+1025623843+1025574846+1024963335+1024189895
2459+1023838907+1024037286+1024419824+1024663257+1024750376+1024839647
2451+1025099811+1025506608+1025724467+1025456894+1024911828+1024601592
2442+1024739143+1025118573+1025503501+1025827122+1026057170+1026155404
2434+1026199501+1026348644+1026675134+1027131526+1027583974+1027816890
2425+1027736822+1027629984+1027920860+1028625346+1029308201+1029575416
2417+1029422687+1029169336+1029119741+1029210684+1029081977+1028582085
2408+1028004156+1027713757+1027773988+1028014911+1028262049+1028451346
2400+1028622956+1028834122+1029105042+1029449815+1029838089+1030113669
2391+1030129444+1029979584+1029917082+1030028103+1030126815+1029999900
2383+1029696236+1029547451+1029890313+1030696498+1031502563+1031888327
2374+1032076190+1032711004+1033845829+1034665518+1034636359+1034346319
2366+1034689300+1035782776+1037075588+1037941406+1037914278+1036924533
2357+1035515562+1034458415+1034002621+1033727041+1033211493+1032547162
2349+1032054679+1031894303+1032021696+1032296439+1032574290+1032799797
2340+1032995905+1033054822+1032727735+1032018588+1031322588+1030946026
2332+1030760553+1030497999+1030118688+1029757662+1029559043+1029643534
2323+1030020096+1030451392+1030573646+1030271416+1029799847+1029434518
2315+1029142805+1028732901+1028235877+1027915483+1027915961+1028152582
2306+1028533805+1029050666+1029627520+1030084151+1030280021+1030187404
2298+1029860915+1029470490+1029314176+1029598241+1030208317+1030847075
2289+1031321393+1031551082+1031501846+1031315656+1031260086+1031362981
2281+1031406600+1031378038+1031543195+1032021935+1032647546+1033200379
2272+1033490061+1033330521+1032654358+1031596853+1030426296+1029467980
2264+1029045528+1029325529+1030137690+1031069236+1031820090+1032324881
2255+1032549074+1032513820+1032506649+1032762750+1032953959+1032493384
2247+1031322588+1030042444+1029292546+1029170770+1029311069+1029543269
2238+1030209990+1031497305+1032796450+1033314866+1033055897+1032519078
2230+1031686124+1030169120+1028326821+1027285808+1027629745+1028878220
2221+1030321131+1031435042+1031628522+1030770472+1029765549+1029519367
2213+1029737704+1029639112+1029211999+1028809026+1028054348+1026290923
2204+1024040991+1022870314+1023367935+1024266140+1024286217+1023882646
2196+1024182247+1025152752+1025922009+1026206074+1026353664+1026402900
2187+1025987857+1025025956+1023956023+1023321089+1023185689+1022836494
2179+1021517869+1019808102+1019381706+1020702602+1021959323+1021132702
2170+1018241742+1015027519+1013233979+1013452793+1014956652+1016348654
2162+1016566034+1015577006+1014334028+1013554254+1012415365+1009576509
2153+1005353898+1001628609+999498720+998036390+995577622+991256119+985244807
2143+978466807+971836277+965065926+956728138+945798812+932135317+915385051
2133+894774157+869865064+840393843+805905359+766598349+724031285+680135200
2123+635594979+589872608+543725156+501823380+471587444+458723769+464585669
2113+487438758+524493954+572376807+626950958+683660794+738405361+788308456
2104+831742055+867923516+896800434+919033139+935683737+947944775+957147543
2094+964743201+972046787+979801207+987860188+995396571+1001530077+1005829411
2084+1008529043+1010367517+1011949054+1013287039+1014090834+1014111150
2075+1013147457+1011342324+1009586070+1009059289+1010277051+1012775436
2067+1015607958+1018186411+1020719093+1023576114+1026384616+1028397449
2058+1029598958+1030630053+1031657801+1032132477+1031690067+1030570419
2050+1029203395+1028086973+1027924326+1029184871+1031626012+1034555693
2041+1037220907+1038907131+1039331735+1039017315+1038723212+1038538217
2033+1038067843+1037458962+1037564964+1039023769+1041530040+1043783916
2024+1044137175+1042137487+1039533341+1038562357+1039220594+1039539913
2016+1038602750+1037603086+1037638579+1038294784+1038868770+1039658463
2007+1041069107+1042224607+1042019296+1041062773+1040971471+1042190189
1999+1043796464+1044998930+1045743091+1046166141+1046297000+1046039465
1990+1045182132+1043882628+1042999601+1043224271+1044010618+1044131080
1982+1043265501+1042270975+1042024196+1042727009+1044134904+1045735921
1973+1046858676+1047256271+1047418560+1047934346+1048785346+1049535961
1965+1049953394+1049986019+1049467125+1048408306+1047156126+1045825311
1956+1044299583+1042914035+1042141312+1041694719+1040950438+1039968580
1948+1039284530+1039034166+1038860285+1038422416+1037670607+1036721612
1939+1035752422+1035110796+1035148919+1035718841+1036261277+1036528611
1931+1036700818+1036809210+1036536020+1035607342+1034278320+1033354422
1922+1033407244+1034058908+1034542069+1034513627+1034155946+1033956133
1914+1034279396+1034957590+1035451148+1035470389+1035270217+1035354707
1905+1035926542+1036516182+1036422848+1035607581+1034632057+1033930081
1897+1033728236+1034114478+1034728378+1035008858+1034802711+1034382170
1888+1034184628+1034478612+1035058572+1035507674+1035627299+1035398446
1880+1034919826+1034535855+1034489367+1034579474+1034587362+1034551151
1871+1034454471+1034254180+1034191559+1034535257+1035134458+1035581529
1863+1035559540+1035123105+1034647592+1034383485+1034365320+1034577323
1854+1034808686+1034772237+1034501437+1034171124+1033800059+1033486117
1846+1033454568+1033715329+1033974895+1033908450+1033452178+1032923843
1837+1032723074+1032862059+1033097007+1033170623+1032753667+1031923701
1829+1031433011+1031468385+1031438867+1031250765+1031207504+1031178105
1820+1030912922+1030411955+1029752523+1029105639+1028537390+1027718776
1812+1026428355+1025020220+1023920649+1023198237+1022705994+1022098069
1803+1021088485+1019822443+1018585918+1017532715+1016866352+1016519666
1795+1015962411+1014837864+1013438811+1012372463+1011883685+1011632125
1786+1011074034+1010181686+1009451267+1009021167+1008715949+1008531433
1778+1008274854+1007658683+1006803023+1005925493+1005178942+1004957259
1769+1005186590+1005206548+1004755055+1003780846+1001967467+999457790+997069350
1759+994892615+992293010+989176064+985861038+982485602+978950566+974987700
1749+970859020+967431838+964433562+960866976+956711228+952175273+946720738
1740+940431934+934090249+926628857+914479378+893848526+864733194+827020747
1730+776621584+713294184+642097518+565056550+482332253+402070280+337064244
1720+295645211+283301596+298024538+318358240+323874529+312392310+290069886
1710+264376238+239784970+214883839+186731617+159141983+140706883+138824535
1700+156517371+187675906+228156476+278514410+329110937+371524406+410878800
1690+452918157+493935382+529275194+565180238+610371944+652286268+674679768
1680+684149154+692200666+706371462+729182754+753872913+769103366+771971501
1670+769097689+770954687+781835315+798013686+816390901+835403289+852412404
1660+865188809+873843704+879511736+883456377+887709881+895071905+903483188
1650+908853950+912453339+917192932+924210780+931324412+937158138+942163392
1640+946452448+949794841+952465971+955597376+959994287+964413067+967691584
1630+970056241+972129664+974165561+976044488+977792617+979672141+981780638
1621+983813130+985394010+986582374+988050919+990112869+992168425+993832362
1611+995150508+996254860+997272211+998174240+998709445+998704844+998244808
1601+997550420+996981813+997015692+997949091+999683476+1001794602+1003781921
1591+1005381743+1006643125+1007656054+1008418022+1009015909+1009642237
1582+1010348157+1010921904+1011021930+1010492878+1009881727+1010222557
1574+1011278867+1011948696+1011865042+1011553730+1011769557+1012480974
1565+1013224418+1013741519+1013748211+1012587453+1009730672+1007335421
1557+1007944541+1009793651+1011543333+1012896375+1013607075+1013655236
1548+1013320740+1012681624+1011488480+1009676416+1007612793+1005907926
1540+1005657920+1007058885+1008539679+1009086536+1008646278+1007853955
1531+1007285706+1006616714+1005316015+1003449934+1001625203+1000077964
1523+998416358+996616962+995248085+994379817+993838695+993886916+994493586
1513+994950516+994602276+993179562+990391257+986204378+982754430+981659281
1503+981734270+982038711+982311363+982546669+982896283+983423243+983837748
1493+983635127+982279515+979556519+975715967+970137684+960574128+943360420
1483+912886069+865196636+806207111+751770451+716993241+709880506+731856334
1473+776283562+823151752+852633549+864132260+865035722+859940062+852908113
1463+849013664+849572651+852220000+855269126+859397148+866215302+875398413
1453+886485187+899729218+914608982+929747356+943520019+954514058+962405372
1443+968040301+972264765+975351834+977416293+978782123+979925493+981085415
1434+982035484+982524979+982627694+982665398+982713081+982365200+981243461
1424+979492703+977472521+974959796+971434380+967512564+964444377+962056416
1414+959462128+956167418+951850218+945641722+935509438+919391358+899758138
1404+885728597+884250492+892968726+904511295+912293202+913687295+909069060
1394+899064528+884229878+865259138+843418889+822869480+810633718+809154299
1384+812474762+813212291+807610704+795785504+781179528+769890549+769451725
1374+784802878+812110330+841404622+865774088+883197708+894813414+904074861
1364+914341887+926139899+937173554+945611846+951738480+956422802+960151078
1354+963140631+965539168+967483763+969091293+970460589+971656362+972634455
1344+973203661+973076029+972033701+970293759+968680971+967933344+968002358
1334+968423974+968832803+968981886+968668184+967791968+966392199+964538607
1324+962173950+959104567+955059601+949640440+942490538+934043702+926065806
1315+920967577+920222579+923176459+927611193+931552488+934169840+935406664
1305+935453510+934420443+932094804+927948916+921245308+910832903+894915950
1295+871570349+840269139+803703349+768326042+742302738+731539046+736468474
1285+752126936+771172008+787142141+796225165+797486906+792004586+781648647
1275+768196020+752970407+736896483+720711180+704988962+689927131+675229554
1265+660239905+644119673+626034529+605475321+582465650+557338101+530450293
1255+502302060+473807111+446304716+421234619+399676911+382285259+369729372
1245+362667576+360657192+361319761+361202019+357553661+349290117+336902314
1235+322039909+306798850+292484527+278599139+263107985+243844920+219990553
1225+192824835+165365537+140986272+122016182+109278878+102369422+100158881
1215+101378869+105008352+110276115+116608568+123747736+131802699+141068656
1205+151746408+163735525+176606788+189764117+202667273+214983656+226632018
1196+237666001+247999189+257212295+264711272+270121471+273515102+275306252
1186+276023256+276183572+276288259+276846739+278390542+281465960+286560006
1176+293936938+303490307+314787203+327290717+340511294+354004733+367406272
1166+380516397+393263792+405622644+417652916+429506439+441265284+452879527
1156+464362821+475928575+487833186+500148808+512749420+525474079+538211765
1146+550796064+562924988+574313574+584897052+594808907+604218839+613254718
1136+622006055+630534274+638865310+646910547+654396737+660985142+666465609
1126+670745703+673769374+675680568+677066953+678846451+681797104+686205667
1116+691933212+698664067+706013244+713546102+720878189+727744026+733956585
1106+739417693+744222177+748707582+753374455+758677457+764753541+771364950
1096+778170257+784946464+791482406+797403013+802225005+805561303+807246929
1086+807311044+805952624+803673174+801365879+800050480+800436006+802747901
1077+806873893+812517127+819187930+826218087+832970752+839017856+844041215
1067+847718462+849891194+850699410+850385051+849083634+846892141+843954872
1057+840334569+835865716+830425701+824650950+820194705+818717736+820492812
1047+824279646+828512535+832336536+835660345+838685331+841580773+844434687
1037+847247550+849927942+852434871+854902303+857448729+859943707+862153665
1027+863968716+865221972+865376612+863585701+858941234+850449643+836919994
1017+817396481+792286858+764504312+739376643+722199384+714257877+711009057
1007+705145096+691954843+671934844+649453268+630253914+619642174+620893278
997+633767558+654211862+675803719+691974262+697428738+688110228+660582527
987+612478768+544968672+465859271+389687198+332712418+305597251+309123712
977+335747800+375006979+418512281+461860224+503672132+543695399+581667532
967+617199300+650008013+679957315+706907744+730724855+751526659+769714518
958+785606135+799233241+810625712+820049685+827800879+833955120+838440166
948+841185090+842048160+840650840+836477107+829592149+821778394+816706098
938+817907368+826032854+838492031+851810095+863764720+873513271+880837651
928+885712763+888003267+887093471+881965366+872128321+858848020+845197790
918+833880489+823952679+809725416+784666881+748753352+712175014+689309885
908+687184358+700389549+717722823+732508595+745982853+762682508+784738584
898+810411259+836205052+859224523+878040204+892454672+902934598+910048408
888+914023942+914399668+909858454+898554657+879008080+851209878+817534092
878+783064669+754868216+739936646+742190522+760173130+787639882+817152451
868+843694170+865561666+882996221+896709431+907397774+915841025+922771753
858+928453050+932655286+935197349+936362649+936823283+937312121+938286032
849+939881790+942204023+945354431+949097346+952927800+956575948+960098735
839+963483731+966419984+968468430+969394778+969303057+968442198+967045716
829+965359013+963549280+961645376+959750914+958026687+956381931+954684473
819+953276219+952799750+953575819+955392424+957772379+960363440+963048312
809+965615831+967632189+968845410+969277722+968655337+965965206+959836719
799+950067433+939342880+932418366+932346125+937895667+945100840+950522511
789+952775789+952076860+949250612+945028359+939729241+933260343+925442226
779+916259115+905525599+892563303+876498282+856304582+830195593+795706690
769+751063575+696766856+636367224+575999082+522740388+482375036+457371235
759+446318280+444571496+443343008+428533126+387648193+324994028+266854396
749+243754857+266840982+324177775+396117944+468831435+535976113+594402588
739+641090385+673533172+691996849+700268848+703528185+705534863+707551162
730+708848575+707728628+702641931+692820183+677941973+657598831+631551506
720+600484408+566358623+532021194+500412736+473820077+453402573+439197179
710+430601559+426844511+426976087+429425773+431761928+431317726+426416233
700+417364698+406706590+398311321+395485819+399502523+409677559+424390493
690+441818505+460286216+478682552+496688732+514243240+530711712+544810566
680+554913810+558952801+554714773+540674775+516984819+486611570+453504421
670+419304872+388018780+373370827+381739776+404537593+434800448+468679364
660+502618212+534525674+563793435+590317707+614601308+637328706+658828723
650+679241357+698574797+716862562+734263117+750551314+765237837+778370250
640+790374708+801479469+811854170+821692649+831094753+840235917+849231642
630+857866222+865870708+873070264+879092032+883240730+884488069+882058759
620+877126344+873405955+874663214+881337065+890007974+895891953+894621249
611+881430638+851526748+805960870+758022028+728529178+729812907+755113561
601+785434525+805261284+811266620+808854160+804566896+802582446+804957202
591+812291859+823747787+837093995+849594103+859621401+867372595+873697131
581+879161704+884419652+889857636+894516084+896616874+895427793+891770443
571+886736149+880561234+872747897+863152971+852677646+842686977+833904390
561+825673620+816168621+803614496+787347631+767924324+747062587+727681943
551+713238853+706532795+708868293+719866455+737771921+759957721+783463579
541+805642268+824788681+840332477+852449570+861561993+867926384+871210159
531+870515831+864743053+852518047+832916317+808500065+786650077+775050802
521+777278207+792609583+816912962+844080532+868928020+889303548+905291726
511+917557305+927153008+935662406+943932314+951116274+956193530+959659432
501+962843779+966452370+970553743+975168931+980001797+984025193+986094911
492+986197566+985585578+985307249+985330732+985121239+983856690+980114730
482+972373694+959757964+942753630+924751483+912031544+910413498+921258991
472+939245363+956188451+968622532+977970082+985751392+992139086+997525683
462+1002634189+1007331835+1011079292+1014068845+1016720316+1019259093
453+1022634171+1027649344+1032708136+1034833065+1033532605+1031830009
445+1032854530+1036315532+1039453869+1040999316+1042329413+1044699210
436+1047185763+1047628412+1045326973+1042281492+1041731646+1045388877
428+1051948540+1058605481+1063279226+1065360058+1064997239+1061722068
419+1055359350+1049852292+1049049095+1050364134+1050259089+1049439520
411+1052069719+1059838420+1068833369+1073741823+1072905523+1068330967
402+1063241343+1060909430+1063249947+1067194947+1066079003+1060758494
394+1057616452+1057881635+1057503758+1052848417+1043602746+1029591907
385+1008191559+980708494+957643253+948467970+954516807+973572096+1003051981
375+1033825035+1050281198
##END=
