##TITLE=X7714
##JCAMP-DX=4.24
##DATA TYPE=INFRARED SPECTRUM
##DATE=30/10/2018
##SAMPLING PROCEDURE=Diamant-ATR
##ORIGIN=ComPlat
##XUNITS=1/CM
##YUNITS=TRANSMITTANCE
##RESOLUTION=4
##FIRSTX=3997.453
##LASTX=373.96442
##DELTAX=-1.4165319
##MAXY=0.94910634
##MINY=0.35372543
##XFACTOR=1
##YFACTOR=8.8392416e-010
##NPOINTS=2559
##FIRSTY=0.89902955
##XYDATA=(X++(Y..Y))
3997+1017089018+1017111743+1017433595+1017692736+1017681070+1017330694
3989+1016763187+1016405529+1016694946+1017543576+1018363211+1018727073
3980+1018721341+1018561056+1018244665+1017768731+1017342427+1017184030
3972+1017309048+1017613773+1017945470+1018040145+1017660908+1016926979
3963+1016385839+1016604992+1017598803+1018740627+1019311235+1018999498
3955+1017988087+1016838104+1016214832+1016425421+1017163868+1017803863
3946+1017936030+1017623348+1017315387+1017450116+1017899549+1018175345
3938+1018147429+1017925241+1017391518+1016546664+1016016447+1016415509
3929+1017350519+1017937176+1017875341+1017534473+1017401295+1017486327
3921+1017367377+1016857525+1016365137+1016462846+1017152472+1017939334
3912+1018588500+1019306245+1020099513+1020320825+1019260054+1017093132
3904+1015021490+1014209543+1014781433+1016240253+1017961991+1019306447
3895+1019954333+1019982182+1019702272+1019518588+1019503281+1019292826
3887+1018623160+1017596173+1016485436+1015441321+1014719665+1014883929
3878+1015865130+1016648958+1016497978+1015521228+1014359377+1013612030
3870+1013727945+1014810294+1016134453+1016811941+1016628661+1016104109
3861+1015838292+1015896621+1016075113+1016213753+1016161763+1015747327
3853+1015295533+1015744629+1016977486+1018227335+1019008129+1019054050
3844+1018257343+1016802163+1015326956+1014629913+1015017849+1015997769
3836+1016880721+1017534608+1017981074+1017991931+1017549848+1017200753
3827+1017555377+1018563888+1019428634+1019355470+1018224233+1016786654
3819+1015893923+1015637413+1016065672+1017269398+1018627274+1019271383
3810+1018871916+1017763000+1016910594+1017080117+1017517817+1016955908
3802+1015522711+1014859789+1016006198+1018286473+1020713480+1022432386
3793+1022996049+1022744393+1022318493+1022040337+1021831028+1021565549
3785+1021325762+1021149090+1020695206+1019628434+1018369279+1017886872
3776+1018408525+1019287836+1019948196+1020151368+1019841856+1019166998
3768+1018443117+1017965902+1018018769+1018680612+1019512856+1019863165
3759+1019452977+1018669756+1018113578+1017801099+1017244853+1016105997
3751+1014828433+1014340766+1014539150+1014661471+1014381292+1013836443
3742+1013450530+1013244593+1012708106+1011411728+1009671514+1008711757
3734+1009387019+1011222784+1013521266+1015845170+1017697456+1018678522
3725+1018767195+1018308523+1017785454+1017639127+1018036503+1018736850
3717+1019345558+1019544145+1019097139+1018080671+1017336021+1017823958
3708+1019112985+1020098300+1020334918+1020048939+1019781370+1020013807
3700+1020705793+1021425965+1021872229+1021969534+1021836828+1021752066
3691+1021941010+1022325102+1022513978+1022279450+1021772430+1021056978
3683+1019994724+1018549457+1016979779+1015556764+1014397948+1014160992
3674+1015605450+1017414309+1017870216+1017367444+1018109936+1020810785
3666+1023542314+1024717854+1024279681+1023106839+1021947551+1020932432
3657+1020182320+1020141793+1020681315+1020828115+1019896139+1017970757
3649+1015853869+1014816632+1015613474+1017893480+1020568030+1022477700
3640+1023228621+1023371442+1023354651+1022830369+1021421447+1019472869
3632+1017493340+1015574094+1014242652+1014765249+1016660084+1018165163
3623+1018669688+1018600975+1018635096+1019086417+1019632817+1019818323
3615+1019688853+1019657093+1019942060+1020259259+1020524469+1021361433
3606+1022931314+1024132073+1024029577+1022810409+1021221377+1019911176
3598+1019238476+1019162750+1019282104+1019365585+1019503146+1019481298
3589+1018853036+1017951809+1018114859+1019725536+1021466020+1022253759
3581+1022233664+1022285317+1022784043+1023071100+1022667723+1022217480
3572+1022333396+1022436297+1021706414+1020492776+1019984272+1020310373
3564+1020552183+1020639036+1021168645+1022245060+1023307786+1023822763
3555+1023669019+1022994093+1022163670+1021639792+1021539521+1021587869
3547+1021557525+1021469257+1021548287+1022198532+1023655262+1025417661
3538+1026401897+1026016996+1024876790+1023989792+1023555935+1023076562
3530+1022249983+1021327313+1020715301+1020569513+1020939782+1021952473
3521+1023423769+1024606389+1024858719+1024429448+1024123105+1024220139
3513+1024232547+1023799701+1023336107+1023508396+1024263767+1024806189
3504+1024586092+1024007122+1023891948+1024316904+1024672067+1024679755
3496+1024625270+1024723383+1024790343+1024582450+1024140839+1023794779
3488+1023908739+1024509354+1025142944+1025234382+1024654603+1023905367
3479+1023575153+1023718581+1024062416+1024542059+1025196552+1025736614
3471+1025730141+1025110172+1024187030+1023360316+1022972515+1023133070
3462+1023551755+1023803545+1023843195+1024056684+1024756087+1025725892
3454+1026376610+1026379509+1025991911+1025649964+1025441060+1025123996
3445+1024565255+1024016360+1023890869+1024206450+1024343405+1023691878
3437+1022466574+1021441475+1020987389+1020856099+1020780170+1020750298
3428+1020776057+1020761087+1020510038+1019686830+1018076153+1016099456
3420+1014717710+1014548051+1015286700+1016135599+1016626436+1016935948
3411+1017452746+1018259635+1019209683+1020241457+1021333719+1022334272
3403+1023047769+1023393155+1023413587+1023214663+1022902251+1022557000
3394+1022290577+1022256186+1022527060+1023011963+1023511970+1023822156
3386+1023838677+1023622625+1023408732+1023543528+1024188379+1024992504
3377+1025397162+1025356096+1025291362+1025316176+1025021769+1024113799
3369+1022950532+1022376620+1022911085+1024043400+1024774092+1024968768
3360+1025412604+1026375935+1027052344+1026713499+1025646121+1024652984
3352+1024262621+1024588587+1025401815+1026170875+1026422261+1026156242
3343+1025712743+1025327033+1024987851+1024556489+1023928361+1023249592
3335+1022922008+1023213854+1023974755+1024789264+1025265670+1025283135
3326+1025156565+1025396083+1026125966+1026851600+1026911412+1026184159
3318+1025317525+1025104373+1025656235+1026429476+1026880326+1026754498
3309+1026049498+1025136201+1024646511+1024899650+1025604920+1026177618
3301+1026240937+1025851923+1025275582+1024626551+1023976238+1023651149
3292+1023966798+1024773485+1025664395+1026440131+1027008311+1027113842
3284+1026615116+1025952463+1025922726+1026789225+1027847096+1028189043
3275+1027770224+1027368667+1027584382+1028247709+1028780488+1028771385
3267+1028146291+1027160775+1026427453+1026589762+1027605892+1028631261
3258+1028925669+1028547039+1027910145+1027127126+1026121650+1025087178
3250+1024541250+1024907000+1026028055+1027175677+1027749522+1027925452
3241+1028256610+1028675969+1028429910+1027224093+1025913488+1025550165
3233+1026144307+1026861310+1027112224+1027006423+1026977293+1027325983
3224+1027974003+1028490329+1028528225+1028252429+1028111024+1028231660
3216+1028363759+1028370030+1028362208+1028325728+1028042379+1027525581
3207+1027208112+1027515129+1028342923+1029036999+1028991752+1028342788
3199+1027900502+1028320940+1029494254+1030751858+1031503791+1031649106
3190+1031418962+1030880788+1029925346+1028837333+1028317029+1028641376
3182+1029320415+1029796147+1029987114+1029989002+1029685963+1028975838
3173+1028122623+1027545406+1027388627+1027604544+1028208194+1029042191
3165+1029651505+1029842540+1029939709+1030166280+1030266888+1029902689
3156+1029000990+1027825923+1026985519+1026992128+1027651814+1028299969
3148+1028573742+1028551692+1028398621+1028205631+1027924508+1027422478
3139+1026894621+1026921392+1027706433+1028605367+1028805573+1028236650
3131+1027576762+1027521198+1028141099+1028807124+1028743468+1027763144
3122+1026455370+1025639310+1025656640+1026184092+1026693270+1026972033
3114+1027101300+1027070753+1026712218+1026030954+1025415976+1025350432
3105+1025855496+1026350311+1026246803+1025551514+1024640509+1023676908
3097+1022623488+1021599198+1020792173+1020112663+1019266663+1018162466
3088+1017057730+1016251177+1015747461+1015335048+1014932413+1014713057
3080+1014918657+1015639166+1016729809+1017936097+1019122830+1020262361
3071+1021206205+1021738849+1021855978+1021727386+1021530754+1021535744
3063+1022014039+1022856262+1023684460+1024367950+1024922644+1025050360
3054+1024482449+1023664096+1023405562+1023871247+1024441990+1024630529
3046+1024675709+1024982861+1025385362+1025450770+1025279156+1025393656
3037+1025921782+1026508979+1027011818+1027676763+1028580890+1029358716
3029+1029609697+1029325202+1028819396+1028353509+1027970362+1027730641
3020+1027789509+1027941366+1027445135+1025805260+1023462542+1021233245
3012+1019320271+1017283694+1014686893+1011391161+1007391171+1002562983
3003+996455545+988308766+977450686+963961348+949352237+936643086+929056598
2993+927994479+932354150+939791142+948163211+955995421+962513654+967564098
2983+971235492+973501607+974205798+973194523+970433121+965953218+959520354
2973+950631892+939459849+927759007+918224075+912687313+911056136+911879884
2963+913555835+914785185+914299946+910935029+904274785+895055771+884993050
2953+876301894+870928317+869670915+871964003+876487668+881796578+886556391
2944+889878556+891768536+892901526+893732893+894053532+893412255+891488828
2934+887932338+882414794+875216106+867433459+860382110+854945147+851397489
2924+849602521+849442033+851100789+854723903+859897544+865828311+871978568
2914+878247505+884622850+890883088+896635093+901607720+905875887+909671154
2904+913019010+915758227+917811662+919245398+920220935+921073813+922277606
2894+924175138+926844294+930208806+934099624+938197121+942092322+945451507
2884+948056737+949737947+950337484+949613199+947087876+942192390+934733214
2874+925181761+914673451+905046272+898625209+897239889+901109803+908793056
2864+918205666+927631965+936014014+942706828+947263603+949549071+949888793
2854+948894308+947098125+944768624+942051593+939306712+937250917+936651110
2844+937865423+940691425+944561069+948899635+953383583+957812305+961837178
2834+965135404+967798423+970168990+972328900+974099323+975502243+976901521
2825+978615437+980584312+982538285+984344380+986011632+987527365+988945592
2815+990463618+992166812+993892123+995508397+997094260+998749172+1000408805
2805+1001853533+1002782878+1002980723+1002553880+1001988464+1001878752
2796+1002502699+1003623754+1004738132+1005490537+1005853927+1006064382
2788+1006457308+1007224817+1008244926+1009192209+1009787295+1009935577
2779+1009754388+1009513656+1009443392+1009530177+1009539685+1009298751
2771+1008942239+1008790315+1009026731+1009637866+1010540441+1011540253
2762+1012317810+1012709994+1012889969+1013124227+1013502992+1013920733
2754+1014168005+1014094100+1013788027+1013485865+1013284850+1013111011
2745+1012934002+1012803184+1012684437+1012464609+1012161705+1011987124
2737+1012125697+1012539526+1013027126+1013415668+1013635428+1013674134
2728+1013573593+1013463275+1013482628+1013643925+1013861662+1014103405
2720+1014402196+1014749133+1015098902+1015426418+1015691830+1015835527
2711+1015884146+1015969177+1016186308+1016465139+1016619086+1016565545
2703+1016482064+1016612612+1016924484+1017138985+1017123543+1017058539
2694+1017138311+1017305002+1017455308+1017741084+1018333473+1018979875
2686+1019235037+1019123168+1019127011+1019485411+1019913873+1020051165
2677+1019855612+1019513126+1019205839+1019055264+1019119054+1019331060
2669+1019530051+1019620882+1019647180+1019710297+1019896409+1020189535
2660+1020403496+1020380704+1020279556+1020423456+1020910247+1021585644
2652+1022232046+1022603258+1022541356+1022207905+1021971624+1022026851
2643+1022284980+1022544795+1022658620+1022617689+1022510742+1022377699
2635+1022250320+1022367247+1023063480+1024288650+1025516449+1026334802
2626+1026848835+1027235489+1027300628+1026916199+1026526848+1026627119
2618+1026986531+1026966234+1026416125+1025709439+1025061958+1024409420
2609+1023869426+1023725324+1023939960+1024195998+1024379481+1024569031
2601+1024680496+1024583394+1024458376+1024693915+1025446252+1026434669
2592+1027193344+1027522412+1027575413+1027492270+1027247694+1026993004
2584+1027160033+1027969283+1029049204+1029791224+1030040520+1030162301
2575+1030347807+1030319822+1029998847+1029832223+1030049421+1030313416
2567+1030527108+1031190570+1032465234+1033540907+1033473071+1032327606
2558+1031002907+1030096623+1029491152+1028989055+1028704425+1028745423
2550+1029042393+1029478610+1029824198+1029810172+1029545233+1029431003
2541+1029553729+1029612732+1029369303+1028819801+1028166453+1027798680
2533+1027994974+1028670304+1029636198+1030783888+1031835286+1032410749
2524+1032473259+1032237112+1031760099+1031171554+1031036488+1031829689
2516+1033180214+1034177194+1034410036+1034365059+1034796353+1035892998
2507+1037066716+1037528220+1037054848+1036058880+1034911932+1033593841
2499+1032167051+1031149302+1031035274+1031673652+1032381619+1032551884
2490+1032051337+1031235479+1030734124+1031098660+1032442172+1034297155
2482+1035808101+1036230764+1035506950+1034398573+1033814208+1033896003
2473+1034019808+1033789191+1033602944+1033976652+1034699858+1035048279
2465+1034636000+1033775300+1033072121+1032853777+1033011028+1033274754
2456+1033445356+1033368956+1033039349+1032829434+1033254996+1034347392
2448+1035532305+1036215659+1036250589+1035866834+1035430213+1035219151
2439+1035166554+1034844432+1033963907+1032895517+1032391666+1032676296
2431+1033104151+1032923164+1032072444+1031008774+1030051848+1029205174
2422+1028421885+1027820056+1027651948+1028013518+1028597141+1028973950
2414+1029154128+1029576454+1030525287+1031787814+1032884391+1033550820
2405+1034021629+1034691295+1035455702+1035742018+1035320771+1034660680
2397+1034344088+1034548204+1035189886+1036180055+1037392884+1038588519
2388+1039385631+1039280774+1037978732+1035845998+1033696135+1031945874
2380+1030337827+1028611369+1026928944+1025412199+1023797409+1021814912
2371+1019491076+1017033792+1014653447+1012342085+1009980892+1008035685
2363+1007391508+1007973310+1008736841+1009402191+1010657435+1012468790
2354+1013859235+1014459715+1014958104+1015933506+1017162182+1018002046
2346+1018039066+1017561109+1017249101+1017253147+1017206350+1017049705
2337+1017271556+1018303129+1019885957+1021232638+1021843841+1021835614
2329+1021369592+1020415566+1019318180+1018837459+1019305706+1020322578
2320+1021544511+1023023224+1024473818+1025183066+1024949954+1024396945
2312+1024176848+1024422367+1025099383+1026359280+1028196596+1030059400
2303+1031263464+1031783431+1032246890+1033106376+1034206932+1035125825
2295+1035512412+1035207013+1034474973+1033969976+1034114213+1034731416
2286+1035490767+1036345263+1037284859+1038054458+1038457836+1038698567
2278+1039106395+1039656909+1039998991+1039899326+1039479024+1039036401
2269+1038765392+1038697421+1038891827+1039541938+1040689088+1041872180
2261+1042402734+1042102123+1041469747+1041028136+1040900892+1041106694
2252+1041610477+1041959774+1041814121+1041986747+1043665328+1046344328
2244+1048071595+1048209358+1048220687+1049042344+1049515176+1048428849
2235+1046594028+1045688756+1046165769+1047262885+1048182318+1048626222
2227+1048899456+1049663054+1051053971+1052329310+1052673280+1051796531
2218+1049824756+1047446637+1045958685+1046300160+1048136937+1050236225
2210+1051640291+1052384199+1053034445+1053660145+1053812878+1053508558
2201+1053240854+1053036063+1052572132+1052006244+1051731526+1051632267
2193+1051165908+1049914912+1048022168+1046248845+1045355642+1045456790
2184+1046254037+1047456954+1048635797+1049432302+1050116533+1050921602
2176+1050827265+1048464992+1044716793+1042734903+1044336477+1047675905
2167+1049642285+1049610660+1049338302+1050270076+1052549138+1055275610
2159+1056431189+1054579039+1051256671+1049417063+1050353556+1052991288
2150+1055130766+1055365429+1054219897+1053133569+1052575841+1051982103
2142+1050795168+1048609364+1045417073+1042740028+1043097822+1047159242
2133+1052559590+1056356610+1057491083+1056544475+1054518687+1052306585
2125+1050619508+1050069871+1051054376+1053096347+1054701765+1054845462
2116+1054307558+1054429475+1054966704+1054503987+1052774562+1051186677
2108+1050994226+1052000242+1053178816+1053899595+1054285171+1054602707
2099+1054683153+1054241879+1053528653+1053141931+1053315163+1053874578
2091+1054661575+1055462194+1055801848+1055438525+1054848834+1054573172
2082+1054396096+1053992449+1053937290+1054874997+1056127948+1056509613
2074+1056114597+1055866515+1055884047+1055711017+1055564892+1056092344
2065+1057158442+1057705786+1056859786+1054809386+1052537135+1051041092
2057+1050985865+1052435650+1054191238+1054116119+1051312303+1047674421
2048+1046396183+1048835126+1053434046+1057706461+1060510817+1062176114
2040+1062921438+1062121224+1059736025+1057498299+1057271188+1058802228
2031+1060494633+1061618183+1062254335+1062340041+1062434917+1063980118
2023+1067064046+1069191184+1068050102+1064611011+1061948127+1061984000
2014+1064647289+1068638041+1071657032+1071823117+1069922685+1068281596
2006+1067292371+1065524308+1062917392+1061294847+1061941518+1064029343
1997+1065416889+1064875546+1063363858+1062721300+1063558602+1064974198
1989+1065684458+1064573990+1061090461+1056108663+1051829370+1050416133
1980+1052837881+1058445446+1065036775+1070001648+1072344635+1072991711
1972+1072885169+1071828107+1069610138+1067372277+1066622503+1067144695
1963+1067425009+1067004841+1067070520+1068486454+1070178387+1070230444
1955+1068081391+1065103668+1063292515+1063627180+1065399424+1066992973
1946+1067478348+1067192706+1066781440+1066524457+1066744824+1067870734
1938+1069751476+1071447387+1072001339+1071368491+1070304821+1069475275
1929+1069062120+1068975740+1068956993+1068766768+1068530420+1068479104
1921+1068448288+1068293329+1068369055+1068867849+1069231171+1068945328
1912+1068295892+1067968038+1068143563+1068285912+1068007418+1067596623
1904+1067357645+1067140784+1066831541+1066603217+1066504497+1066404226
1895+1066334164+1066429648+1066628504+1066653656+1066358709+1066310968
1887+1067569718+1070245077+1072858601+1073741823+1072946599+1072005857
1878+1071984616+1072582400+1073004928+1072990700+1072803576+1072648618
1870+1072320022+1071490611+1070535910+1070353237+1071080018+1071880030
1861+1071897899+1071024791+1069685527+1068311671+1067178613+1066365115
1853+1065738067+1064998069+1063815922+1062202952+1060666314+1059707096
1844+1059423478+1059708512+1060430033+1061403614+1062470251+1063481729
1836+1064218085+1064485790+1064107834+1062870864+1061091675+1059904065
1827+1059812357+1060042368+1059932926+1059691789+1059766234+1060353431
1819+1061543873+1063241402+1064954643+1066069359+1066352775+1066052501
1810+1065606979+1065393962+1065669353+1066373409+1067056629+1067372412
1802+1067487249+1067724474+1068090629+1068367976+1068276067+1067547533
1793+1066212045+1064788963+1063839320+1063238975+1062230329+1059938185
1785+1056060314+1051181350+1045995233+1040836157+1036073715+1032042706
1776+1028673271+1025500805+1021866093+1017659222+1013730710+1010281975
1768+1006524605+1002235062+997723264+992906404+987779561+983072885+979082537
1758+974993672+970001961+963654466+954785154+940797563+919675883+895130418
1748+875589813+865269301+863307371+867549981+875215432+883143462+888891084
1738+891188689+888685889+877655386+853338515+818009079+776522709+727572983
1728+673055273+621241310+579179275+550182364+534459784+527352602+520938686
1718+507304572+483457769+456371337+433391371+415975206+404689541+400176226
1708+402530373+412179669+428225484+446487244+464594348+484937258+508484933
1698+531174336+552864129+576148348+597883118+615003392+629661863+644358770
1689+658728566+671907313+685868943+703174654+719694514+729974501+735993535
1679+741667926+750089018+763105861+778742027+792224891+802209256+810862651
1669+819220897+826056531+831128755+835496451+840034143+844819647+849201638
1659+852661095+855291274+857693669+861436676+868828624+877461047+883501188
1649+888585213+895780731+905615128+914647287+921119329+925901461+929646289
1639+932528731+934874281+937386118+940476519+943456266+945749556+947422540
1629+948482097+948377240+946013214+940347118+932112542+925216219+923047408
1619+925577114+931793724+939800111+945693992+947479992+946011933+942473918
1609+937895430+933273112+928885995+923646473+915350062+901294297+878918384
1599+846730666+805454212+759429274+717396167+689331367+680036762+687097889
1589+704637453+726858137+749162842+767801276+778556050+776770252+760647498
1579+732707581+697077331+662734558+647108304+655411593+677143464+706131811
1570+739044018+768121577+788898950+803939827+815449905+823565194+829300475
1560+836753448+849931723+863574131+874274690+883880627+892939894+901083437
1550+908307344+914461040+919292870+923168044+926627837+929773870+933525037
1540+939855270+946995359+951852341+954754338+957451680+961196238+965326978
1530+968556560+970831171+972789190+974599330+975824635+976531927+977559049
1520+979148486+980703869+982306252+984421994+986654527+988033981+987884215
1510+985943526+982649480+980669613+983231215+987429252+989947630+990658564
1500+990272516+989689500+989795368+990602663+991051017+990108994+987216909
1490+982632285+978289808+976224843+975993956+975878513+974602432+971695850
1480+967110821+960407892+950737220+937659689+921091884+900984650+879321357
1470+859227069+839960440+817862819+790269704+759835955+734669443+718910956
1460+709696056+702283542+693352261+684957669+681718041+683125748+687152171
1451+693643499+704743726+722771565+745837305+768167903+784716556+792683495
1441+792020303+785597823+777737090+773453144+775336651+780868220+787345589
1431+794593367+803107516+812510618+822594445+834012950+846617515+858908184
1421+870367486+882305756+895093398+906800984+916326880+924090444+930665657
1411+936409839+941316855+945126418+947844731+949793107+951035134+951023199
1401+948857625+943701448+934982644+922012127+904682815+886564280+874173744
1391+871308295+878162743+893022633+910807178+924038724+928093401+921219263
1381+901863421+870695609+833608292+799400517+775550679+766959389+774338524
1371+793190245+817356541+841464170+861345171+875192909+881951672+878617976
1361+864870643+849583370+844493884+854006023+873281621+893859193+911002258
1351+925051146+937589627+949095389+959388188+968329651+975826523+981835510
1341+986635579+990869962+994945881+998480389+1000836121+1001743147+1001169908
1332+999383234+997380643+996570854+997553471+999456937+1000612180+999536709
1322+995085532+986030985+971049920+948863761+917464725+874030654+818361208
1312+757063832+701631341+661352205+639174812+632927318+638077291+648393151
1302+655195541+649622636+628971024+601190381+581264133+581108231+602148857
1292+636867631+675602241+711675653+742673739+769340543+793567189+816586064
1282+838346189+858085448+875213004+889686375+901811499+911935313+920381760
1272+927485166+933422878+937949511+940368224+939830994+935832285+927976137
1262+913665210+886315187+841016895+785926351+743566874+734774300+761377110
1252+806637236+851012116+884680571+907466941+922582263+932287528+937302098
1242+938110605+935883466+931977004+926587850+917519277+899967238+868550467
1232+821672112+765410344+712734603+677219864+666031975+677641111+704545072
1222+737589512+769370280+795828314+815899271+830148296+839625641+845193489
1213+847200194+845572321+839901370+828993998+810194064+779564493+734402009
1203+678003355+622415164+583803482+571874180+582659973+602419124+619656999
1193+633572371+650987591+676770700+708983167+742078923+771906729+797106553
1183+817669829+833594131+844648302+850558030+850876443+844716543+831089780
1173+809959266+783312693+755576825+732777171+720160671+719535510+728630381
1163+743110968+759304255+775376435+790925209+806428534+822868286+840745212
1153+858923828+874754265+885536282+889854078+887777244+880264527+868671912
1143+854866454+841533221+831739418+827493639+828332761+831276363+832233694
1133+827400920+813538549+788043105+750010258+701424393+646942287+592502798
1123+543921957+505794537+480698087+469098392+470052249+481941800+502556594
1113+528887587+557320060+584221627+606711566+623644109+636293449+647704739
1103+660685641+676056057+692637955+708585319+722559559+734081910+743480427
1094+751737457+760045331+769156049+779109328+789554185+800162429+810756783
1084+821276220+831697543+841872875+851485825+860306653+868347767+875525618
1074+881280725+884766075+885262778+881999076+873358021+856534718+828769247
1064+790072601+745572163+704821340+677037056+665016317+662909408+660108491
1054+648130841+625714739+599633582+581125089+579431942+596309731+625883252
1044+659632827+691340836+718334212+740228593+757606861+771279141+782016720
1034+790671194+798250399+805663115+813451495+821679664+829751122+836296463
1024+839400688+836667675+824822730+800432629+763223260+719554324+681263348
1014+659283530+657409059+671595643+694365694+719483857+743472267+764675607
1004+782215307+795653868+804765935+809105579+807629765+798620263+780324450
994+752839766+720360067+691118918+673653191+672061192+684447952+705367943
984+729297013+752504495+773217739+790996080+806030214+818761079+829707966
975+839291853+847780917+855366528+862175999+868294024+873894644+879230864
965+884441728+889441125+893990685+897883054+901134888+903992245+906763357
955+909718895+913021168+916593168+920176092+923622737+927006197+930408067
945+933710407+936613483+938841634+940311042+941032630+940875581+939419930
935+935805313+928579383+915810082+895241546+864348923+821407644+768374379
925+713204131+667815278+642009984+638435691+652662262+677255940+705742459
915+734101263+760348572+783536701+802963549+817964169+827975642+832149673
905+828979297+817811571+802023144+789544138+787887809+798341702+816060973
895+835132319+852175653+866163582+877165359+885798052+892878869+898969449
885+904206948+908564260+912156692+915232596+917983546+920422623+922387318
875+923818963+925103945+926772546+928859090+930970988+932821116+934213853
866+934596799+932743232+926734110+914670619+896345540+874600116+853618425
856+833654213+809150286+777706611+750699479+746805694+771947121+811593275
846+844482757+858707237+853902246+832037871+788902861+718436708+627459201
836+538982877+474655147+439727740+429686563+442301445+475850074+522778969
826+572635351+618722663+659098160+693862517+723508258+748544829+769477429
816+786883074+801349769+813460396+823890620+833249824+841811242+849571974
806+856465735+862447952+867597453+872267513+876974392+881948435+886905081
796+891514183+895894826+900260297+904424348+908132966+911442386+914474797
786+917376457+920379737+923203243+924469748+920337187+901508258+856423657
776+787331699+721708704+694359423+714712312+760792274+805386308+837751912
766+860312790+876891518+889064181+897660124+903535394+907808753+911812789
756+916281094+920825057+924485864+926735728+927907761+928725507+929646896
747+930674760+931476592+931662637+931006997+929059497+924446215+914901977
737+898436332+875596961+851595334+834940948+831789655+841410562+857789624
727+874859661+889629193+901721073+911584330+919446682+925333820+929335091
717+931522581+931958528+931281040+931093647+932933457+936662034+940758857
707+944386960+947978583+951608103+954312929+955371205+955168032+954679691
697+954549075+954229651+951142283+939818924+912765736+866881731+812791741
687+773399131+765992686+787061364+818470313+845253638+864281491+879131469
677+892524919+904415043+913428659+918159071+916481434+901315470+861704313
667+808383249+776651639+778798804+805479027+842849895+877189432+901481083
657+916451022+925397408+931390549+936368976+940601538+943791469+946458264
647+949468153+952545068+953637869+949356755+935715291+909727729+873119447
637+835402991+810615446+807947774+824949502+850939762+876079571+896081275
628+910826059+921537609+929342441+934917437+938661726+941226025+943764497
618+947329619+951967312+956705614+960461231+962580007+962642247+960327918
608+955438636+947332249+933466709+907948742+863046342+796412072+719399702
598+654937008+623303039+629811562+664221295+708966039+749735001+781826157
588+807606569+829620372+847925221+862341679+874028496+884225541+893127625
578+900344452+905715331+909845465+913969732+918805203+923700283+927388199
568+929598413+931430536+933829559+936321571+937777425+937903253+937093666
558+934908469+929474675+918274649+899245987+872437509+842343751+817820202
548+806757939+810014763+821913653+836266590+850603479+864981029+878878330
538+890918760+900767249+909282207+916804028+922730344+926776794+929703134
528+932687196+936243013+939671248+941884699+942682755+942392865+941122786
518+939511772+939286280+941495685+944992768+947867455+949439292+950201676
509+950491498+950119005+949210900+948132125+946250372+942567649+938321263
499+936534858+938284310+941202963+941979441+939752639+936561156+934906716
489+935287166+935873419+934057614+928391315+919356930+908225617+895828675
479+883141035+872350589+866158052+866180844+872379113+882839682+894628253
469+906055997+916718119+925834299+932368985+936324740+938796050+941113009
459+944383049+948904220+953385741+956386998+957880883+957809540+955071065
449+949568424+943736984+940263705+938952627+936961364+931587315+922573093
439+912437545+904868792+902475096+905315056+911681432+919657946+927365137
429+933546885+938349247+942262385+944742663+944723985+941534323+934776775
419+926103150+920648385+918749639+913536010+900285044+881436425+864759853
409+855817984+854294564+857906956+865814420+877387951+890099125+900072027
399+904695694+906891006+913859076+924522480+929714396+924275410+909836631
390+890725500+872111678+861423662+866519689+886689703+909591179+925052899
380+932460221+934329836+932012945+928696984+930913873
##END=
