##TITLE=HMS-Q45
##JCAMP-DX=4.24
##DATA TYPE=INFRARED SPECTRUM
##DATE=10/3/2020
##SAMPLING PROCEDURE=Diamant-ATR
##ORIGIN=Angelika Moesle
##XUNITS=1/CM
##YUNITS=TRANSMITTANCE
##RESOLUTION=4
##FIRSTX=3997.453
##LASTX=373.96442
##DELTAX=-1.4165319
##MAXY=0.73380244
##MINY=0.36738145
##XFACTOR=1
##YFACTOR=6.8340678e-010
##NPOINTS=2559
##FIRSTY=0.7331742
##XYDATA=(X++(Y..Y))
3997+1072822556+1072455024+1072362400+1072719815+1073000392+1072777553
3989+1072463397+1072670973+1073286551+1073729264+1073703622+1073324752
3980+1072882126+1072592653+1072297947+1071650710+1070803136+1070379348
3972+1070671176+1071442000+1072390745+1073257333+1073741823+1073735805
3963+1073441012+1073132700+1072953644+1072896342+1072871747+1072806421
3955+1072656932+1072356905+1071847297+1071197443+1070679985+1070589803
3946+1070848750+1071058071+1071122960+1071381558+1071831947+1071867618
3938+1071211747+1070449122+1070305476+1070790140+1071263728+1071227097
3929+1070823457+1070438656+1070197065+1070052111+1070010334+1070053157
3921+1070051413+1069941432+1069849942+1069938729+1070196716+1070465780
3912+1070603496+1070578029+1070435865+1070175261+1069673153+1068867007
3904+1068037574+1067617363+1067553956+1067364346+1066865029+1066322191
3895+1065991726+1065935733+1066149327+1066590470+1067167846+1067808891
3887+1068422724+1068788424+1068724756+1068368911+1068045162+1068048214
3878+1068443133+1068981784+1069281898+1069019985+1068214014+1067350392
3870+1067019665+1067378824+1068096096+1068815374+1069288352+1069401472
3861+1069317046+1069181860+1068862995+1068181394+1067124936+1065879042
3853+1064975213+1064799907+1064982103+1065169794+1065338035+1065553112
3844+1065843283+1066197820+1066548519+1066736384+1066611926+1066265936
3836+1066052691+1066281461+1067048795+1068201280+1069288352+1069776854
3827+1069423974+1068505405+1067668733+1067450953+1067997105+1068927884
3819+1069550875+1069512238+1068812409+1067712778+1066805111+1066572416
3810+1066979196+1067506946+1067541309+1066945356+1066057575+1065201890
3802+1064848138+1065559217+1067033707+1068361323+1069041615+1069036382
3793+1068610415+1068201106+1068103597+1068184447+1068041062+1067520726
3785+1066899306+1066457028+1066113394+1065702340+1065373620+1065344576
3776+1065403797+1065189766+1064757083+1064492467+1064639515+1065035741
3768+1065335157+1065407460+1065317452+1065079524+1064668209+1064197150
3759+1063943349+1064039637+1064200901+1064009460+1063267418+1062090425
3751+1061034577+1060778595+1061195144+1061576543+1061557966+1061627303
3742+1062590353+1064160432+1065412606+1065884885+1065888810+1066025217
3734+1066175492+1065832119+1065201628+1064779585+1064696119+1064846655
3725+1064984894+1064680245+1063838776+1063177759+1063492002+1064546803
3717+1065341611+1065293642+1064727865+1064499619+1065213053+1066316348
3708+1066688938+1066149240+1065283612+1064501363+1063811477+1063302566
3700+1063275616+1063686408+1064132435+1064403855+1064543140+1064443102
3691+1063771619+1062434845+1061048183+1060528108+1061034752+1061995010
3683+1062782841+1063104235+1063091152+1063043445+1063059144+1062974195
3674+1062658556+1062259277+1061960298+1061798074+1061831914+1062233287
3666+1063064464+1064059871+1064639166+1064337046+1063401034+1062647742
3657+1062519184+1062484384+1061866627+1061064929+1060995853+1061726207
3649+1061950442+1060911252+1060075976+1060562385+1061800603+1062706439
3640+1062817989+1062478105+1062190376+1062134034+1062274540+1062543692
3632+1062831769+1062930063+1062628031+1062157931+1062122260+1062690478
3623+1063628932+1064567212+1064947914+1064352833+1063354722+1062983876
3615+1063157176+1063019286+1062401877+1061935877+1061860347+1061861394
3606+1061882936+1062008005+1061900031+1061228460+1060391091+1060211075
3598+1060835374+1061632973+1062180259+1062619745+1063005418+1063083826
3589+1062907386+1063029665+1063722603+1064391906+1064484617+1064127028
3581+1063666261+1063256516+1062866394+1062477756+1062109613+1061641084
3572+1060928696+1060292274+1060539359+1062017338+1063571107+1063577997
3564+1062198487+1060646636+1059503222+1058848136+1058825111+1059443042
3555+1060296024+1060885872+1061028559+1060854736+1060515811+1059931545
3547+1059003120+1058137492+1058040158+1058715740+1059380246+1059454904
3538+1059086064+1058800515+1058988206+1059606051+1060222413+1060426501
3530+1060226599+1059979427+1059918898+1059842583+1059452985+1058978612
3521+1059025797+1059595934+1059812319+1059011755+1057621953+1056544126
3513+1056101326+1056012364+1056034169+1056208254+1056589653+1057007684
3504+1057152813+1056880522+1056387397+1055965006+1055675445+1055475195
3496+1055463944+1055732224+1056075684+1056159848+1055960121+1055819004
3488+1056023615+1056421848+1056582414+1056278812+1055632883+1054872613
3479+1054259478+1054186914+1054887789+1056020039+1056935904+1057323845
3471+1057286604+1057026261+1056770454+1056718298+1056794439+1056656810
3462+1056164296+1055702919+1055772867+1056273841+1056518920+1056019342
3454+1054975878+1053998438+1053603258+1053820603+1054010648+1053395595
3445+1052052977+1050816241+1049984715+1048799349+1046459145+1043192783
3437+1039898251+1036951975+1033847576+1030028695+1025575398+1020887488
3428+1016203153+1011716627+1007737878+1004431222+1001647257+999217045+997238790
3418+995862769+994871810+993718802+992018769+989915533+987938674+986507357
3408+985561228+984742958+983978502+983666614+984151191+985242624+986519044
3398+987934749+989844015+992451976+995551666+998858932+1002246874+1005539924
3388+1008472942+1011020985+1013428347+1015789920+1017936328+1019791694
3380+1021531672+1023354681+1025303107+1027250923+1028878216+1029804373
3371+1030010030+1030044656+1030552084+1031671862+1033066025+1034332153
3363+1035231708+1035807427+1036391432+1037211533+1038078469+1038730067
3354+1039179409+1039480133+1039574065+1039571274+1039765768+1040260201
3346+1040849875+1041269475+1041404225+1041365152+1041419488+1041732684
3337+1042167112+1042434693+1042440014+1042354018+1042332301+1042317299
3329+1042209848+1042107019+1042245345+1042715968+1043215896+1043177258
3320+1042382014+1041374920+1040922265+1041166298+1041648956+1042004540
3312+1042213337+1042306833+1042246479+1042139987+1042268022+1042751640
3303+1043354134+1043728295+1043737104+1043453649+1043020181+1042622384
3295+1042450654+1042549122+1042776148+1043017041+1043348116+1043793708
3286+1044044980+1043769287+1043150221+1042742395+1042825774+1043172810
3278+1043335470+1043062830+1042582962+1042375037+1042517113+1042604592
3269+1042455277+1042389951+1042661981+1043083587+1043366258+1043451120
3261+1043410040+1043317765+1043280872+1043366519+1043469086+1043474755
3252+1043507636+1043691751+1043778968+1043433327+1042763676+1042226507
3244+1042131702+1042446729+1042902002+1043199499+1043255754+1043233513
3235+1043328318+1043630699+1044089548+1044488129+1044614332+1044498159
3227+1044358089+1044381724+1044610582+1044891595+1044986487+1044839090
3218+1044582759+1044249503+1043738848+1043102775+1042672621+1042876709
3210+1043868976+1045267151+1046426961+1047051609+1047280815+1047215926
3201+1046734837+1045834148+1044849730+1044229618+1044197173+1044611803
3193+1045076843+1045263488+1045237497+1045314073+1045516155+1045453184
3184+1044849469+1043860254+1042784957+1041848160+1041298518+1041318404
3176+1041753268+1042181328+1042287907+1042055213+1041654189+1041301745
3167+1041210255+1041473301+1041928312+1042370415+1042901304+1043679279
3159+1044386608+1044464493+1043782980+1042667388+1041522579+1040764838
3150+1040716171+1041262411+1041942005+1042468882+1042858655+1043087861
3142+1042989219+1042542668+1042053817+1041901885+1042111206+1042244124
3133+1041819727+1040927672+1040294913+1040481993+1041154262+1041536970
3125+1041460044+1041398033+1041568280+1041619651+1041209819+1040465597
3116+1039856648+1039702012+1039722683+1039306571+1038361575+1037451554
3108+1036888132+1036291830+1035310378+1034124489+1032930751+1031497166
3099+1029628980+1027677588+1026188184+1025216937+1024280924+1022943889
3091+1021242374+1019464456+1017592519+1015173994+1011855215+1007832770
3082+1003590887+999500325+995937339+993357985+991804565+990698131+989555676
3072+988617222+988351123+988610855+988684466+988016559+986582363+984704408
3063+982728334+980802235+978859565+976828545+974767172+972743914+970801244
3053+969127900+967997830+967450980+967254131+967174764+967148250+967295995
3043+967866917+968947448+970151042+970781446+970371352+968977799+967031117
3033+965034286+963377513+962275003+961745946+961618173+961553981+961121734
3023+960038848+958557556+957474671+957477113+958589477+960460455+962892412
3013+965771966+968747547+971347920+973348676+974861192+976149037+977458861
3003+978915210+980462787+981957424+983411243+985055369+987014698+989092554
2993+991066448+992935943+994641383+995876636+996450262+996536781+996385634
2983+996084736+995759417+995715285+996136019+996752294+997054152+996839773
2973+996366708+995982779+995829539+995865647+995940741+995849076+995465757
2963+994840324+994143112+993531547+992996035+992333012+991371358+990196720
2953+989025833+987868726+986484768+984792149+983188229+982223697+982050310
2944+982443745+983127613+983710659+983626930+982599515+980955214+979194653
2934+977436185+975363038+972593377+969132871+965454671+962014835+958817375
2924+955670327+952732686+950606598+949850689+950444026+951879268+953825252
2914+956367364+959464176+962622999+965336667+967471825+969118829+970367078
2904+971259830+971773015+971845841+971474646+970774294+970049347+969752024
2894+970124702+970888199+971489909+971633468+971435398+971182992+971079204
2884+971094990+970954920+970377980+969390510+968292361+967304979+966403417
2874+965485110+964553371+963755685+963301023+963197759+963051757+962366494
2864+961048995+959406875+957738153+956157520+954660093+953133535+951456004
2854+949714718+948183276+947046403+946285610+945802515+945555430+945653462
2844+946349278+947810860+949900316+952301660+954808362+957365824+959947271
2834+962541015+965188311+967920294+970712806+973569509+976548229+979585559
2825+982355918+984490378+985980479+987212593+988560880+990062842+991500090
2815+992656761+993507214+994223701+994979610+995742584+996367929+996863234
2805+997421859+998207683+999193060+1000192305+1001003684+1001530736+1001794480
2795+1001862422+1001814627+1001772937+1001865213+1002103140+1002373600
2786+1002619029+1002938679+1003429274+1004050520+1004720782+1005376566
2778+1005881029+1006113201+1006215506+1006510561+1007063080+1007502741
2769+1007410465+1006812768+1006161955+1005845445+1005872831+1006053195
2761+1006268447+1006473755+1006620454+1006693629+1006735842+1006784073
2752+1006845736+1006964002+1007237514+1007705346+1008230828+1008586847
2744+1008616676+1008245131+1007475180+1006512741+1005719155+1005278447
2735+1005072354+1004950512+1004907601+1004935423+1004915712+1004788201
2727+1004743197+1005115613+1005995807+1007012931+1007687990+1007951559
2718+1008110556+1008381539+1008707294+1008951850+1009022234+1008876146
2710+1008611704+1008456720+1008523441+1008702061+1008886699+1009114074
2701+1009365171+1009468262+1009371364+1009291735+1009381045+1009433462
2693+1009201640+1008872134+1008913998+1009489892+1010263506+1010774946
2684+1010836434+1010579580+1010261064+1010070233+1010078257+1010235422
2676+1010337989+1010156578+1009729651+1009389766+1009413053+1009782940
2667+1010285397+1010671943+1010825183+1010914057+1011248098+1011866117
2659+1012431195+1012622811+1012517889+1012501580+1012802827+1013200100
2650+1013308598+1013100585+1012913156+1012971592+1013178557+1013375144
2642+1013531437+1013633743+1013630603+1013558474+1013515215+1013450761
2633+1013213619+1012861437+1012677758+1012823584+1013176813+1013492800
2625+1013538589+1013186320+1012574231+1012064012+1011893677+1011945572
2616+1011914173+1011662901+1011372818+1011313685+1011568707+1012081543
2608+1012806839+1013617171+1014231004+1014446081+1014351712+1014215741
2599+1014215218+1014267112+1014101923+1013604263+1013039882+1012788959
2591+1012857948+1012817479+1012335780+1011694736+1011566527+1012274118
2582+1013514517+1014770441+1015659356+1015930949+1015563504+1014921762
2574+1014544636+1014720814+1015325228+1015980053+1016349940+1016373924
2565+1016228098+1016070060+1015903912+1015690667+1015454745+1015238883
2557+1015052239+1014910337+1014862280+1014955254+1015260687+1015888126
2548+1016809486+1017715844+1018252926+1018342672+1018101866+1017601067
2540+1017007817+1016808613+1017419394+1018504372+1019127014+1018800212
2531+1018037587+1017624964+1017691336+1017741747+1017350405+1016618306
2523+1016006218+1015759917+1015644529+1015426138+1015330025+1015642261
2514+1016147771+1016416835+1016392763+1016278596+1016094220+1015717966
2506+1015224667+1014905540+1014997467+1015532542+1016327525+1016977204
2497+1017037907+1016484864+1015883155+1015833441+1016316884+1016814021
2489+1017006160+1017061630+1017185391+1017220016+1016945282+1016490882
2480+1016103988+1015784687+1015527833+1015605107+1016171058+1016835912
2472+1017028400+1016697586+1016341828+1016300226+1016321943+1016093696
2463+1015810067+1015724594+1015596124+1015287812+1015371278+1016284265
2455+1017387211+1017660374+1016947550+1015921356+1015201729+1014978802
2446+1015181233+1015607026+1015995141+1016248070+1016584466+1017203793
2438+1017824604+1017957871+1017663863+1017509140+1017723694+1017965197
2429+1017974878+1017878155+1017779600+1017563040+1017170128+1016747387
2421+1016478236+1016406892+1016413870+1016328571+1016126664+1015960342
2412+1015908535+1015857862+1015776227+1015880276+1016261938+1016552196
2404+1016326217+1015745439+1015390989+1015504371+1015788001+1015957899
2395+1016088987+1016305895+1016464281+1016317757+1015834487+1015242633
2387+1014856175+1014890539+1015309267+1015762534+1015815213+1015401717
2378+1014992495+1015140066+1015852367+1016548533+1016692528+1016415440
2370+1016372354+1016877340+1017404392+1017263188+1016481288+1015562283
2361+1014860100+1014669793+1015143991+1015704883+1015511174+1014657408
2353+1013927228+1013566149+1013237254+1012812246+1012579639+1012886904
2344+1013646476+1014189489+1013899056+1012850796+1011684880+1011056569
2336+1011195506+1011811781+1012411310+1012736891+1012827422+1012661884
2327+1012038458+1010964032+1009966968+1009740553+1010305893+1010798931
2319+1010497334+1009721365+1009328889+1009758171+1010850737+1012172423
2310+1013263332+1013897225+1014208938+1014367237+1014275834+1013881090
2302+1013517221+1013500213+1013543473+1013062733+1012036713+1011156956
2293+1011039126+1011574987+1012150095+1012347206+1012370580+1012772388
2285+1013729943+1014744625+1015246471+1015259030+1015191088+1015235133
2276+1015266705+1015089829+1014612927+1014034156+1013911877+1014690812
2268+1016087853+1017314908+1018021627+1018556354+1019055234+1018958947
2259+1018012730+1017030755+1016855536+1017154690+1017037383+1016231325
2251+1015016916+1013799193+1013237080+1013773464+1014694300+1014832278
2242+1014443726+1015026597+1016964732+1018782333+1019199579+1018629005
2234+1018064712+1017593130+1016770761+1015890655+1015949614+1017310111
2225+1019144109+1020616418+1021845740+1022880744+1022556907+1019653892
2217+1014663077+1009169544+1003892483+998307023+991780057+984177880+975692893
2207+966994399+959588635+955405274+955714458+960381000+967823396+975650854
2197+982048914+986990277+991585737+996061623+999323624+1000917252+1002206841
2187+1004613505+1007572776+1009431979+1009791837+1009739681+1009982231
2179+1009887077+1008634555+1006659964+1005570362+1006706101+1009826898
2170+1013099888+1014383023+1012897370+1009919260+1007494106+1006527132
2162+1006890914+1008894025+1012723111+1016541381+1017928828+1016834517
2153+1014897603+1013242226+1012218037+1012076223+1013024271+1015318774
2145+1019273364+1024158733+1027697037+1028084717+1026062156+1023747593
2136+1022063870+1020500506+1018806753+1017581879+1017233796+1017350754
2128+1017382065+1017300255+1017204840+1016831813+1015976215+1015001566
2119+1014517599+1014792768+1015550858+1016088376+1015855332+1015187251
2111+1015014299+1015661100+1016464368+1016632261+1015981797+1014861583
2102+1013772854+1013113319+1013157102+1014135240+1016038401+1018263130
2094+1019737096+1019735963+1018656043+1017755092+1017853560+1018473759
2085+1018578943+1017863153+1017023778+1017038953+1018238535+1019839489
2077+1020694913+1020715322+1020826872+1021358547+1021467132+1020464660
2068+1018844170+1017721949+1017782739+1018809719+1019969617+1020655840
2060+1021051368+1021636420+1022271185+1022132422+1020548912+1017772099
2051+1015102389+1014265891+1016014503+1019146987+1021914642+1024126550
2043+1026424717+1028253569+1028253394+1026307672+1023894117+1022455125
2034+1022112886+1022228012+1022920951+1024966013+1027906881+1029828270
2026+1029588685+1027976219+1026471901+1025924528+1026173619+1026130534
2017+1024972816+1023654184+1023914962+1025772945+1027465825+1027903218
2009+1027829782+1028168358+1028412478+1027694857+1026558071+1026430037
2000+1027726778+1029382679+1030104138+1029467192+1027901125+1026301566
1992+1025711980+1026558856+1027845219+1027783644+1025619966+1022324997
1983+1019277638+1017266241+1017178762+1020074364+1025237171+1029409629
1975+1029720121+1026594266+1022904031+1021009330+1020985258+1021306652
1966+1020902664+1020138992+1019836960+1020259177+1021008022+1021252752
1958+1020444077+1019140009+1018412707+1018266270+1017582140+1015841639
1949+1013860245+1012654558+1012543095+1013358137+1014664298+1015787041
1941+1016367645+1016662351+1016829982+1016543038+1015670345+1014753957
1932+1014336275+1014244697+1014001449+1013578534+1013307028+1013322029
1924+1013439162+1013439859+1013298481+1013166085+1013120733+1013016421
1915+1012818177+1012805879+1013004211+1012797332+1011634382+1009753723
1907+1007624234+1005273214+1002736597+1000516141+999100697+998419882+998033337
1897+997615655+997172331+996983419+997339613+998212306+999104709+999437791
1887+999289348+999344556+1000037843+1001137562+1002215825+1003181316+1004161896
1877+1005153902+1006012814+1006716306+1007493845+1008590859+1009871378
1868+1010767184+1010912225+1010611065+1010399651+1010608361+1011306620
1860+1012281357+1013117244+1013546002+1013775906+1014280892+1015188210
1851+1016049564+1016358836+1016191379+1016151957+1016710146+1017695348
1843+1018522077+1018911239+1018968018+1018839721+1018685347+1018633366
1834+1018695552+1018903564+1019265253+1019414045+1018857514+1017782827
1826+1016855623+1016380204+1016151870+1015925629+1015738636+1015754248
1817+1015944381+1016027673+1015770296+1015161260+1014266589+1013190855
1809+1012161957+1011327465+1010545478+1009623944+1008646940+1007909521
1800+1007611849+1007727499+1008155385+1008866988+1009928069+1011395058
1792+1012954671+1013887544+1013937868+1013635923+1013631911+1014065118
1783+1014470938+1014381104+1013877078+1013499690+1013707266+1014457594
1775+1015338572+1015964528+1016284614+1016585600+1017056048+1017488295
1766+1017530857+1017189577+1016924786+1017139602+1017632901+1017852600
1758+1017594089+1017030406+1016438203+1016021393+1015827597+1015755905
1749+1015682817+1015650111+1015803962+1016165040+1016575046+1016863473
1741+1017024039+1017173965+1017466491+1018176088+1019603742+1021325840
1732+1022122044+1021942289+1021754424+1021945429+1022265254+1022494198
1724+1022632786+1022624500+1022357093+1021972641+1021992788+1022816203
1715+1023870656+1024319736+1024109630+1023622873+1023120590+1022516700
1707+1021517369+1020089802+1018755644+1018172425+1018620109+1019502309
1698+1019716426+1019359186+1019158412+1018953365+1018227807+1017082300
1690+1015888911+1014770092+1013752183+1013271443+1013890073+1014877892
1681+1014972261+1014243476+1013305545+1012630748+1012457535+1012629614
1673+1012780761+1012878357+1013156579+1013551148+1013670984+1013524460
1664+1013621532+1014433696+1015786082+1017025173+1017799572+1018079015
1656+1017999125+1018178704+1019494285+1021058956+1021536992+1021416284
1647+1021542225+1022092128+1022503618+1022541295+1022425384+1022262637
1639+1022090035+1022254788+1023304182+1024957117+1026220193+1026960578
1630+1027564293+1028134692+1028444312+1028293340+1027705149+1026635607
1622+1024845567+1022239176+1018819225+1014461955+1009568648+1005325370
1613+1001874545+997520065+989029322+972052371+943624360+905646181+865274159
1604+831393258+809059704+795122177+780592271+759863335+737946155+727925409
1594+739429890+769761236+807652459+842810653+870456241+889785345+900631905
1584+901712348+891510496+870627186+841457133+804956060+763089053+727045041
1574+707795478+704184043+714235184+738789107+772391612+805927134+835878563
1564+860919243+879926168+895756129+915387964+938779284+954782633+963315065
1554+969765979+975725861+980963500+985281436+988532883+990905184+993012955
1544+995185093+997364993+999776716+1002165326+1003082674+1002098169+999529369
1534+995200879+989089676+981811510+973425165+963012074+950094025+936024450
1524+922091981+906377757+885560644+859028816+826212136+784828049+737637494
1514+691816682+650036019+611414180+577103953+550323862+537573618+545600018
1504+567329202+594087532+625558194+662582655+703533056+744195946+777161942
1494+795166570+794851019+774468508+738467451+708296322+706988242+732304789
1485+768015327+803122499+833619906+857935203+875347192+886353882+891897739
1475+892709991+890218552+887383740+886600706+887578146+887896837+882250064
1465+863065565+828915861+788018880+748076402+711730532+682720697+670566188
1455+677809773+696641828+720108329+743042589+761213104+771824440+773139846
1445+765276454+752046604+740484953+736350957+739958424+747931709+757038378
1435+766011082+775644193+787638178+802990452+820248155+836348924+849911419
1425+861316080+870601893+877418245+882155957+885510930+887319199+887250995
1415+886167761+885653007+887177908+891440025+897870355+905100465+912104857
1405+918518441+924047821+928479313+932110765+935408873+938493126+941365005
1395+944233483+947100827+949534179+951259156+952475832+953544850+954531884
1385+955019252+954517231+952904765+950537435+948238048+947038903+947731405
1375+950504642+954597994+958434580+960799293+961497901+960756469+958688730
1366+955135425+949686198+942456874+935208536+930531789+929829955+932979620
1356+938945694+946217493+953347391+959515024+964582938+968722079+972109760
1346+974862152+977034725+978593205+979384960+979107174+977295940+973290241
1336+966002132+953559241+933260371+902374412+859989860+809063629+756806730
1326+712325962+682845373+671099738+675483043+692111344+716334932+743072592
1316+767649976+787204187+801145814+810524862+816782241+820370084+820146111
1306+814237076+802195906+786979429+774480632+770029341+774832290+785953671
1296+799197039+811297604+820047207+823941705+822496607+816531143+807518581
1286+796313821+782677018+766577818+750034771+737023661+731131983+733531321
1276+743170275+758107222+776180926+794955679+811908733+825091049+833649037
1266+837838328+838751489+837959472+837055730+837162135+838644997+841297788
1256+844844115+849225633+854471644+860451848+866779872+872922997+878434759
1247+883065368+886639081+889001003+890203376+890607103+890667544+890692489
1237+890880005+891488343+892814302+894962368+897726796+900752439+903732990
1227+906463840+908890825+911142854+913367758+915502392+917256674+918305719
1217+918579144+918516871+918950252+920559405+923480474+927433669+931989359
1207+936619270+940779343+944181152+946942964+949389050+951723586+953910899
1197+955834556+957523250+959183686+960991170+962854909+964339690+964673818
1187+962821156+957920349+950040909+940371604+930450590+921565016+915196261
1177+913338279+917287025+925926212+935728000+942603834+943485423+936307382
1167+919530507+893092699+860624276+830197165+811287574+809481398+823379504
1157+846235138+870199561+889343330+900347839+902463024+897736041+890613034
1147+886083684+887261374+894152995+904402991+915178643+924661217+932300025
1137+938203478+942581245+945639681+947630495+948774083+949162024+948745651
1128+947341807+944701053+940736345+935770649+930543564+925921589+922428464
1118+919902487+917675490+915218501+912583590+910213470+908573356+908125758
1108+909392846+912636357+917483351+923111721+928819372+934297468+939509988
1098+944557057+949579706+954568515+959243692+963236396+966375072+968767694
1088+970665011+972259598+973549101+974377138+974588988+974039347+972402198
1078+968999168+962656141+951692013+934772800+912817419+890137963+872738795
1068+864719198+866171185+874211889+885416911+897362753+908776048+919035289
1058+927777827+934853040+940342822+944332997+946574560+946326951+942489929
1048+934226299+922085963+908665195+897694526+892047316+892418599+897595535
1038+905632314+914771689+923650286+931088844+935898160+936908394+933544611
1028+926879842+919577865+913499456+907681301+900607571+894581230+895333563
1018+906010050+923178268+940060501+952488217+960607590+966156942+970035043
1009+972376643+973486741+973931983+973920121+972944600+970407285+966830344
999+964057892+963626343+965100222+966641170+967087285+966828687+966786038
989+967343790+968422489+969945733+971913434+974225032+976599513+978707982
979+980454850+982010277+983427204+984394963+984529451+983744760+982300012
969+980712576+979577186+979236343+979693970+980943614+983111653+986126393
959+989531430+992805117+995676299+998045024+999803840+1000858729+1001204544
949+1000907309+1000073341+998829540+997269839+995392059+993055604+989977370
939+985920561+981004928+975725948+970701642+966629135+964354342+964545871
929+967251863+971921807+977641581+983200178+987297019+989024176+988066796
919+984466917+978518983+971045800+963590584+958097923+956210635+958584157
909+964587299+972616403+980962017+988611814+995315308+1001069532+1005773055
899+1009328976+1011840213+1013567632+1014738781+1015538212+1016219201
891+1016919815+1017383547+1017242082+1016522978+1015437738+1013799106
882+1011176057+1007638886+1004016244+1001344353+1000132386+1000158552
874+1000923531+1002109158+1003568908+1005201784+1007002901+1009023630
866+1011199343+1013276938+1014799833+1015057123+1013199315+1008767997
857+1002521607+996627574+993294840+992936292+994139362+995282602+995454419
847+994158637+991262162+987365310+983609836+980963325+979812498+980163895
837+982023796+985348767+989700282+994352259+998802154+1002799916+1005954466
827+1007760118+1008005546+1006951617+1005130266+1002834629+999629145+994554951
817+986839217+975903609+960627039+939401141+911532888+878545263+844130681
807+813116077+790182384+778525230+778849677+789475752+807523901+829937346
798+853710502+876225292+895995627+912763257+926756343+938202257+947433995
788+954930291+961169005+966764844+972651900+979581286+987357373+995055925
778+1002006853+1008003889+1012664762+1015456925+1016445617+1016127536
769+1014169429+1008757531+997165790+976387925+943512460+897003768+838828589
759+775101703+713879078+661944445+623043511+597524141+582418997+572683712
749+564003490+555198286+548375000+547304194+555442537+574540996+604100255
739+641302203+681484833+719719865+752966917+781160315+806194541+829717385
730+851804201+871468219+887927712+901172301+911709938+920190303+927183880
720+933029333+937869699+941860659+945198364+948019134+950465481+952714893
710+954749839+956206536+956505342+955087892+951650760+946022912+937484113
700+924421981+904984466+877646492+841130157+795359581+744346919+698277015
690+670910041+672365212+702582653+751136932+803630189+848974448+882684229
680+905899459+921973715+933463587+941451873+946309507+948465772+948846125
670+948876825+950119841+952948897+956108853+959134322+962543806+966718532
660+971477350+975953497+978959342+980070660+980277102+981032663+982824534
650+984979578+986606959+987265098+986864423+985768717+985209220+986567711
640+989802849+993391302+996011910+997470613+998026359+997748660+996692202
630+995175325+993709470+992682839+992067873+991506195+990708684+989675425
620+988550326+987450172+986491134+985852968+985710543+986145668+987093891
611+988248992+989197912+989927482+990963968+992657808+994574662+995938560
601+996520820+996886521+997761569+999151981+1000306384+1000660572+1000339003
591+999499540+997903907+995434795+992276495+988382608+983393712+977405659
581+971705160+968502205+969527266+974594483+981538346+987812122+992236725
571+995290015+998262107+1001961326+1005462388+1006244026+1002405870+994744211
561+985617831+975477990+961293202+939017038+908193962+875213488+851849292
551+848188536+865127896+894024437+923824458+947819058+964776211+976457349
541+984844566+990663680+993970684+995511197+996345078+996442064+995100841
531+992503085+989054179+983163721+971861017+955013496+937458907+925187135
521+921394594+926359593+937786232+950985382+961302535+966898286+968152204
511+965435832+958795484+949381375+940102016+934056226+932376515+934244876
501+938579819+944886040+952572643+960247122+966339662+970481332+973519970
492+975812467+976294777+973592360+967221425+957288201+943700849+926354796
482+906057234+884694231+864648814+848469985+838567897+836696484+843072914
472+855147488+868904651+882502208+896528959+911399359+926399800+940310029
462+951773125+960001432+965627186+969801476+972557880+973428131+972994226
452+972515929+972497177+972310882+971320446+969634107+967878255+967190375
442+968760106+971912475+973884799+972921924+970572474+970322859+974222066
432+980936201+986452323+987610651+985880965+985225006+986435228+987433339
422+988817123+993527797+999813434+1000418109+994048482+985727986+978352922
412+972989168+970507061+970691002+972585005+975819881+979544916+981329287
402+979856193+977773889+979616870+985843287+990720109+990580475+987191399
392+982447932+977941956+976116506+977572767+979346149+978704668+977431475
382+978360423+979744556+977451186+969567473+958802025+953142431+958125047
##END=
