##TITLE=X9685
##JCAMP-DX=4.24
##DATA TYPE=INFRARED SPECTRUM
##DATE=19/11/2018
##SAMPLING PROCEDURE=Instrument type and / or accessory
##ORIGIN=Default
##XUNITS=1/CM
##YUNITS=TRANSMITTANCE
##RESOLUTION=4
##FIRSTX=3996.5625
##LASTX=399.65625
##DELTAX=-2.0390625
##MAXY=1.0074635
##MINY=0.60221982
##XFACTOR=1
##YFACTOR=9.3827346e-010
##NPOINTS=1765
##FIRSTY=0.98373955
##XYDATA=(X++(Y..Y))
3997+1048457190+1049525314+1049666786+1049181258+1048639890+1048540980
3984+1049135328+1049907994+1050049402+1049611201+1049608406+1049926861
3972+1049572514+1048424410+1047168250+1046662838+1047601814+1049084762
3960+1049630386+1049948523+1050407561+1050432400+1050261896+1050321611
3948+1050843285+1051452562+1051531906+1050566884+1049411666+1049222804
3935+1049535287+1050120297+1051162630+1051656734+1051528984+1051651525
3923+1051424102+1051455484+1052585737+1052693476+1050629457+1048657995
3911+1048214267+1049065704+1052201087+1057453026+1061186378+1061215346
3899+1057896373+1053237703+1051460249+1053600626+1054903415+1053975746
3886+1055347842+1057650909+1058718715+1058985969+1056410566+1054829788
3874+1057091182+1060854328+1063699970+1062385683+1060132103+1060298413
3862+1058982030+1056162625+1056484637+1062674853+1072613349+1071335082
3850+1060009498+1053372505+1053413733+1057237673+1061892151+1066182371
3838+1067616785+1064576754+1061089628+1058734089+1057205338+1056850356
3825+1056997990+1059849857+1065476725+1066172079+1063289593+1059646511
3813+1054252274+1051824315+1054925776+1059890005+1061446072+1062800888
3801+1063766482+1060663179+1057436763+1054074211+1050606461+1049211623
3789+1049253487+1049846691+1050275936+1050841125+1052881767+1052915944
3776+1049409252+1047887490+1050981645+1055725122+1056978996+1055346508
3764+1053498857+1053284331+1056022677+1058140185+1058633654+1062583630
3752+1070652687+1073741823+1069816305+1068615666+1067444376+1061752965
3740+1059409432+1064251184+1071474839+1070883794+1062215116+1054301189
3727+1051465966+1052494132+1054336510+1054946803+1053762363+1052109419
3715+1053025844+1058269651+1063360106+1060741316+1054197706+1050616180
3703+1051045552+1051340947+1049105598+1047529839+1048750362+1053466396
3691+1060441347+1062954938+1057422152+1050855228+1048105256+1050407434
3678+1056708248+1064640661+1067277176+1064408220+1063258529+1058957128
3666+1051278437+1047076391+1046295785+1046600582+1048540599+1050908971
3654+1052185968+1057316826+1066903135+1068388878+1057960216+1048757604
3642+1045929813+1046607761+1046895470+1046583939+1047348028+1051139443
3630+1057700904+1057518013+1049801969+1046071221+1048781807+1053575470
3617+1054433133+1053333944+1053352303+1052574238+1050975038+1048591229
3605+1044599898+1041681202+1041689651+1042713243+1043089634+1042828606
3593+1041854437+1041952140+1044882652+1046685771+1043222848+1038749292
3581+1036584648+1036093021+1035763703+1035067777+1034663752+1036075361
3568+1039633382+1041554849+1038910076+1035347799+1033072620+1031650148
3556+1031547935+1032305990+1031713928+1030199662+1030001588+1029879555
3544+1027799019+1025478927+1024635939+1024377261+1023566036+1022484127
3532+1022123490+1022577065+1022495434+1021385256+1020055532+1018351260
3519+1016197225+1014525414+1013839208+1013310164+1012243310+1011004048
3507+1010322860+1011107341+1012069821+1010433268+1007152855+1004833334
3495+1003331011+1001729333+1000481748+999364328+997582554+995735794+994418140
3481+992884879+990857197+989388669+988511631+987241177+985551134+983976900
3466+982980687+982512628+981660619+980104997+978568306+977182616+975556989
3452+973736909+972303194+971662218+971557400+971448517+970529297+968554024
3438+966250512+964576922+963913712+963414335+962517286+961611979+960956900
3424+960813141+960866312+960109338+958759540+957630050+956812917+956438051
3409+956116228+955381679+954658246+953806682+952651972+951962462+952152277
3395+952701014+952608012+951818639+951326886+951260183+951132941+950852538
3381+950456962+950089338+949551655+948796586+948530603+948936216+949378864
3366+949231739+948597052+948101041+948098500+948552647+949132257+949517351
3352+949668542+949701385+949812556+950085145+950187930+950045696+949827294
3338+949654694+949618738+949517033+949480379+949768405+950327433+950804512
3324+950695883+950150386+949809761+949790195+949945388+950423103+950803115
3309+950264987+949343608+949271696+949548352+949654313+950259079+950417068
3295+949459924+949166243+949937320+950572452+950816265+950483198+949825833
3281+949634175+949777616+949982614+950222298+950010693+949477584+949419585
3267+949878368+950369678+950395469+950151212+950237607+950728027+951035302
3252+950824015+951103147+952006739+952604899+953015086+953411360+953183429
3238+952166444+951578257+952262431+953094048+953156240+953113678+953213413
3224+953269189+953508237+953765707+953805157+953536061+953288565+953671244
3209+954102395+953854199+953578243+953767359+954160521+954502925+954479865
3195+954125391+953727719+953593616+954002214+954515821+954708431+955102355
3181+955966879+956524319+956433921+956394218+956782170+957098720+956613128
3167+955714554+955696132+956516124+957148143+957353331+957389414+957722861
3152+958471387+958995094+959552661+960456507+960770198+960572442+960710356
3138+961239209+962318006+963885189+964712233+964460988+964447838+964901921
3124+965094150+964863043+964270092+963718942+963764744+964125825+964230706
3110+964292454+964556086+964923011+965354543+965511642+965235749+965061307
3095+965188359+965290191+964855992+963764490+962914577+962472374+962141023
3081+962365841+962557689+962038746+961513578+961372804+961312328+961251152
3067+961316393+961672583+962203342+962429240+962418821+962548160+962885482
3052+963439047+963878074+964276318+965179211+966090236+966274969+966126255
3038+966227452+966429274+966584785+966615214+966223005+965841469+966080898
3024+966481873+966691381+966790355+966449094+965963946+965877424+966055233
3010+966165895+965932374+965494681+965010804+964485572+963628926+961947142
2995+959295699+955687365+950998711+944740713+936750555+926855002+914511670
2981+899513465+881091087+858693769+832280027+801172802+767797195+737075700
2967+710051728+686335422+668749744+661182351+666100842+683847685+711916975
2953+744882840+776188328+800822076+816632396+823592672+822639403+814825466
2938+801466101+785378681+770497363+760112406+755583392+756310891+760588914
2924+766277148+772133599+778398267+785275324+792500122+799755667+806984975
2910+814192939+820727592+826148572+830666215+834812422+838792890+842091535
2895+844797547+847359545+849390595+850087156+848722620+845114414+838976670
2881+828870212+814481156+798687987+786064061+780682911+783742127+792331334
2867+802249375+810990282+817810928+823460729+829166433+835824834+844094125
2853+853921578+864550156+874820639+883754156+890956021+896239277+899742920
2838+901973504+903428310+904772518+906569474+908555357+910127877+911297007
2824+912677615+914804969+917369128+919486572+921107372+922825810+924581284
2810+926172861+927887107+929736028+931281803+932437339+933559206+934717664
2796+935910743+937269117+938485828+939426456+940408947+941517537+942635275
2781+943537914+944207731+944915219+945570425+946255996+947298201+948448337
2767+949457510+950236210+950742320+951133449+951489004+951896903+952391516
2753+952746308+952849791+952853921+952856970+952921512+952799161+952419022
2738+952030244+951377134+950712908+950833925+951378087+951490973+951570253
2724+952175401+952737605+952741924+952594735+952697647+952964583+953261630
2710+953449031+953844607+954504323+954924737+955105405+955109915+954977019
2696+954993409+955356777+955801394+956107652+956415308+956682181+956810058
2681+956640635+956280316+956245694+956632821+957102277+957687795+958292498
2667+958437019+958396109+958510836+958761446+959467409+960557450+961352539
2653+961502778+961492995+961965120+962879956+963784628+964321866+964625393
2639+965211609+965899468+966008160+965899023+966108658+966389506+967075268
2624+968094033+968357093+968158766+968499836+969155169+969653784+970091604
2610+970605465+971267976+972027873+972621649+972775318+972468361+972246783
2596+972598907+973341207+973525559+972976314+973173371+973855004+973979769
2581+974647553+975731114+976061448+975948499+975786572+975993539+976641948
2567+977053087+977063124+976933786+976985178+977244427+977863296+979232469
2553+980494729+980636836+980261335+980318952+981107182+982206751+982630151
2539+982619606+982758918+982288826+981584324+981781890+982440526+982911952
2524+983306575+983777937+984245614+984483137+984668442+985119031+985742855
2510+986280030+986317129+986189633+986241216+986087293+985942581+986017986
2496+986502688+987373501+987827711+987745255+987501125+987159292+987114379
2482+987176317+986482043+985849769+986036853+986210025+986343874+986821652
2467+987290282+987493946+987594571+987692973+987914805+987725180+986461079
2453+985662813+986214090+986399904+985849007+985731421+986287336+987119334
2439+987738267+988082132+988586464+988848763+988116119+987055554+986714674
2424+987101801+987816213+988239422+988430889+988737846+988299963+987547372
2410+987838320+988511504+988662060+988380386+987946378+987702184+987696467
2396+987890602+988193176+988258798+988317115+988325564+987422289+985864762
2382+984082607+981436881+978359243+976154196+974893144+973875840+972948426
2367+972264252+971243836+969471528+968288485+968525755+968863140+969370839
2353+971140289+973859768+975862295+975430827+973075732+971762906+972434946
2339+974034337+975419900+975859881+975885164+975333823+974582820+974712032
2325+974886918+974758088+975718027+977974721+979650724+979996495+979947008
2310+979875987+980279122+981713282+983434833+984240278+984398711+985120556
2296+986472895+987500998+987978966+988806518+990406036+991988529+992584656
2282+992253559+991127499+989429834+988331789+988790128+990881400+992418663
2267+991653811+990771183+991265541+991847502+992154078+992263850+991653176
2253+991256076+991537877+990986599+989843324+989625684+990399683+991772287
2239+992501691+992215317+992394332+992681406+992537901+993046299+993575278
2225+993027622+992335952+991559348+990198878+989254502+989060812+989223946
2210+989827506+991266176+993493521+995223267+996060347+996209951+994957475
2196+993346395+992151537+990801548+990889976+992350881+991706474+990597948
2182+993705570+998288009+999020590+996198262+994052421+994818798+996540285
2168+996074895+994550718+994901000+994359378+990693046+986906713+985109502
2153+983778127+982857891+984590941+988406686+991915411+993314314+992353993
2139+990258211+988142800+986751392+985890617+984878649+984185963+984558161
2125+985356364+985737202+985757403+985557550+986029040+987578753+988350847
2110+987891618+987555122+987238699+986309633+984669903+982891433+982668775
2096+984110749+985173409+985828933+986224763+985578006+985014087+985356300
2082+986251761+987068577+986389104+984669205+984046397+984084322+983832759
2068+983540223+983030428+983057362+983851055+984420818+984909904+985362780
2053+985937118+987255597+987345296+985086887+983739885+984113226+983976518
2039+984139335+986423726+989006116+989470046+988600440+988324166+989147398
2025+988665935+984249870+978620525+977325041+980080858+982081033+982683322
2011+983692875+985637275+988222397+988660472+985393908+980850474+978222090
1996+979320135+982962709+985226771+984925087+984570041+983578338+981490624
1982+982441289+986938730+989822868+989809210+989439490+988859880+987344216
1968+984893451+982312903+980487105+980825825+982641459+982673031+981284419
1953+980934328+981149172+980263558+979533201+981650963+984280299+982333930
1939+978134679+976209400+976403980+977662554+978372710+977268821+975978928
1925+976366055+978161105+980286681+981568824+980565242+978810149+978794331
1911+979128096+978144843+977045273+977005951+977508949+977408769+976931626
1896+977112166+977986155+979455382+980520393+979093729+976485674+975244887
1882+975217888+975730605+976205843+976244530+976786914+979259786+982911888
1868+982997712+978655146+975668731+975209249+974974647+974988115+975492447
1854+975544602+975034870+975181615+977211838+980869849+981704579+978480768
1839+976671170+977032187+977390155+978469079+981235567+982408509+980879187
1825+979254259+976856919+974141696+972865842+972445047+971875156+972177857
1811+973137352+972381839+970563093+970242160+971625182+972835858+972043691
1796+970576687+971494509+972707727+968519021+962307460+959223406+958610826
1782+958685342+957733343+955002747+953850515+956393138+957572940+951649597
1768+942974058+936174947+932540314+929587631+924983594+919981185+914384047
1754+910076294+909125311+908186970+903329972+897089000+892773496+890780181
1739+889167259+889396270+896482455+905683479+906097096+902682517+900301884
1725+900500784+903248088+908953855+919599140+930395299+932145882+930621198
1711+932598695+939111113+948276627+955723639+961950763+970396020+974360162
1697+971721424+965587302+960094219+959405217+962228879+969266022+977287561
1682+972402294+963048172+959846087+961764378+963053000+963012090+963392800
1668+959069419+953285198+951801996+950197078+945445977+943121311+948066992
1654+956782424+950102234+939544296+933840117+919163416+898627279+882952396
1639+872459890+865604114+854528568+839580547+834516963+841354253+854025188
1625+865902558+873628131+873400073+867867922+851496414+815353366+774918510
1611+739371716+711994413+699065880+704636973+727645410+760152745+792253133
1597+819471177+840834104+856455053+867800394+876121839+881793048+885373938
1582+886922763+886963928+886100992+876050372+848834807+814764989+767514378
1568+710900624+679256924+681507201+707332439+757796189+818296012+840693775
1554+850565188+861402766+871948951+881952689+893483715+908625172+925416078
1539+932688965+925840431+922425724+924261368+923527835+922797859+926165175
1525+931256329+937093150+940747858+939278186+937118751+934490114+932281383
1511+934594678+943835152+953119522+945184759+934421125+932189969+935023160
1497+935321668+930772643+928449438+930130778+929136788+922735349+916450162
1482+912192658+908092634+903680508+899240430+891263232+870395616+837887138
1468+805262090+769518111+728031965+697530524+687016356+688283506+687349803
1454+684479640+688321304+699858938+716370584+732201486+744914666+756018354
1440+765997698+774815153+778483264+775597538+768943139+756133082+737660583
1425+718471893+702174456+694621102+699763268+712937582+727403440+743403322
1411+759677508+773713932+785798904+796251262+803828946+810333106+817117289
1397+822221530+824383125+823066678+819939934+815157134+804031657+785040088
1382+762461212+741955186+730097700+729521901+736396100+743690014+748626928
1368+751663338+754367380+760697607+769626995+775973293+779866350+782745088
1354+785089447+788096445+791969617+795740768+799001043+802142779+805662366
1340+809416746+812417899+814996795+817841929+820438930+822384918+823957946
1325+825752997+828370644+832523966+837989097+843189389+847188915+850049676
1311+851549521+851872042+851733365+851153120+849974779+848393365+846483587
1297+843980032+840559735+836021192+830511466+824967563+820173773+816217890
1283+812978705+810203450+807567063+804704078+801308747+797507168+793442783
1268+788871588+784186745+780300486+777267061+774825762+773454302+773019848
1254+772486294+771456032+770145683+768794425+767289496+765266578+762446030
1240+758484429+753238271+747113297+741046893+736035464+732526485+730669687
1225+730325821+729903247+725664419+715733228+705700587+701816551+701627879
1211+699838292+695193152+689502822+685025582+682564970+682413143+685493450
1197+692406717+702397432+713233231+722466463+729187565+734546608+741199419
1183+750859037+761994233+771757335+778933980+783525821+785324811+784033203
1168+779770870+773881577+768568844+765570740+766242272+770946237+778161061
1154+785575420+791362691+795092994+797565231+799129365+798972138+796012214
1140+790976708+786803757+786490129+791071235+799069714+808024449+815841245
1126+820979599+822930415+822346866+820073720+817235638+815467014+815049712
1111+814480647+812809027+810318877+806983959+802600546+797043048+789867673
1097+780451105+768296000+754400922+741498117+731890527+725727501+721363654
1083+716764063+710743970+703218059+694994189+687051549+679892500+673672872
1068+667952049+662303773+657071273+653428890+652992912+656847218+665037355
1054+676199042+688372188+700269886+711183569+720669697+728252972+733990502
1040+738542830+742222376+745509776+748496128+750235085+750086054+747888948
1026+742788264+733083543+717753605+697798349+676887281+659546051+648108598
1011+642561709+641838276+645127837+652282693+662507945+674044371+685479601
997+695865320+704323536+710707379+715750571+719951156+723675869+728201643
983+734733564+743214142+752135589+759588064+764647646+766791327+765700270
969+762220576+757866068+754214283+753270352+756633856+764472569+775453906
954+787077998+797147612+804869881+810002391+812786349+814381738+815490137
940+815754913+814325009+810151740+803226339+795217823+788477219+785084048
926+785801954+789276692+792390858+792432276+788473090+781301971+773977755
911+770416748+772757804+779592807+787669868+794893460+800034736+803092173
897+805011861+805919392+806290065+807598317+809809526+811454084+811331479
883+808591290+802949113+794019471+782172784+769361647+757382636+746712385
869+736228455+724567010+711295374+696698716+682667056+672971229+672527310
854+685467531+709729461+736151843+756728319+769861532+777729149+782496575
840+785258363+786896377+788202533+789871421+792459402+795272900+796680951
826+796742825+797440021+799188126+801158572+803369527+805008177+805177854
812+804678350+804071932+802040057+797485442+791481929+784760447+776341426
797+767225844+760261502+755592032+751305560+745826707+740197044+738373025
783+740544530+742105869+740530936+736862634+732629651+726875921+717228564
769+704991066+694650133+688439780+684965296+682043613+679743024+679438671
754+681494432+686157549+693332797+702052295+711182362+719602463+726868934
740+733523269+739828467+745338320+749967578+753868766+757340328+760288691
726+762061190+762929398+763439130+764126797+765662345+767123567+767455998
712+767297818+766987622+766416143+765975019+765559179+764360318+762068432
697+759785185+757822108+755373567+753119859+751841020+750969000+750370332
683+750155360+749634194+748711036+747961240+747380169+746205448+744122816
669+743255688+745771376+747713680+748025211+747780890+747138580+745771440
655+743032966+739103573+736679235+737363091+738833461+739125362+738710157
640+738718161+739822432+741953534+743285227+742424452+740788216+738939168
626+736673899+734630144+732839223+730605589+727378221+724222446+723003066
612+724089359+725481211+725960768+727124498+728640543+728955314+729028242
597+729109936+727983368+725421306+721643994+717523959+713663937+709975497
583+708187942+708867288+710507653+712962865+716038978+718829035+721403802
569+725379569+728892995+727285155+722921626+720322655+719137263+718546917
555+718776690+720031961+721749129+723788627+727406807+730710598+731221536
540+730740772+729849504+727509020+725135630+724039237+724466830+727849773
526+733597658+738157990+742030401+745397463+745625521+746002864+748059133
512+748445117+749786339+754548747+757848344+758431956+760239585+762723193
498+765059929+767654453+768808210+767976211+766205999+766412585+769634364
483+772236447+774664152+778440321+781338880+784085993+785096753+781885647
469+778541645+778586684+781554931+783776812+786123839+791918797+795895072
455+793635520+790033730+789225681+788595695+784988949+783510766+787656909
440+791648685+790458909+785871197+782239168+780530449+780102793+782015811
426+784157332+782375558+780911604+786886721+794333733+793682783+789881014
412+789742718+796351696+805052200+811167963+815136425+815180893+810864818
##END=
