##TITLE=ZZ-179
##JCAMP-DX=4.24
##DATA TYPE=INFRARED SPECTRUM
##DATE=24/10/2019
##SAMPLING PROCEDURE=ATR platinum Diamond 1 Refl
##ORIGIN=Marie
##XUNITS=1/CM
##YUNITS=TRANSMITTANCE
##RESOLUTION=4
##FIRSTX=3997.453
##LASTX=373.96442
##DELTAX=-1.4165319
##MAXY=0.8167752
##MINY=0.38425514
##XFACTOR=1
##YFACTOR=7.6068119e-010
##NPOINTS=2559
##FIRSTY=0.71639085
##XYDATA=(X++(Y..Y))
3997+941775427+942198398+942227625+941649116+941014189+940966235+941500864
3988+942101862+942393820+942351585+942047012+941587840+941192060+941030958
3978+941099363+941360527+941764300+942103429+942182883+942054378+941813979
3968+941421097+940962474+940794398+941213764+942114321+943038149+943548723
3958+943521611+943096446+942491923+941914746+941523274+941390224+941472342
3948+941535811+941298312+940922747+941041849+941890925+942793910+943090491
3938+942898047+942594492+942324396+942182805+942313269+942608910+942714221
3928+942531258+942444125+942881435+943639617+943997786+943712097+943353849
3918+943619636+944470984+945032255+944602075+943485880+942524519+941999449
3908+941446720+940673807+940325118+941023514+942336698+943484705+944398739
3898+945013997+944789426+943655758+942540582+942624503+943773294+944285513
3888+943498104+942740784+943284817+944474040+945031784+945183170+945410013
3878+945106850+944061412+943143304+942762959+942365141+942153342+943266011
3869+945019482+945344742+944291938+943724086+944484226+945371775+945108261
3859+943411990+940502048+937388457+936970031+941760304+947363217+948886554
3849+947360944+945025829+943041910+941725670+941041458+940872520+941200992
3839+942079373+943170964+943797349+943886519+944056867+944643212+945132473
3829+944934778+944224159+943351028+942189543+941004316+941056894+942606246
3819+943645180+943530857+943766477+944745625+945125578+944366221+943153099
3809+942533609+943296257+944535942+944178477+942489259+942135320+944076222
3799+945831965+946236601+946428340+946704548+946293253+945261057+944434861
3789+944131620+944091266+944226824+944579978+944864884+944938383+945343802
3779+946503406+947708536+947997908+947401611+946490320+945832044+945988366
3769+946991726+948038732+948611913+948860618+948669270+947843074+946994939
3759+947031845+947644048+947445883+945743265+943007981+940832166+941584314
3750+944970353+947209715+946936406+946278286+947291442+948590600+948067019
3740+946113502+944291076+944117907+946050189+948530343+949585106+949057293
3730+947928797+946984204+946548383+946616162+947074079+947959356+949192773
3720+950169492+950153977+948995627+947328975+946472142+947936084+951612121
3710+954556540+954610214+952653798+950342426+948949709+949350035+951210307
3700+952784576+952932671+951981182+950483390+948636125+946839087+946142807
3690+947605888+950594108+952956726+953966120+954243974+954057406+953276658
3680+951861688+950094583+948992336+950054150+952507114+953538448+953214050
3670+953603876+954899586+955291449+954535853+953775164+953510788+953326493
3660+952749159+952050685+952112979+953061333+953393331+952050920+950146298
3650+950125925+953215147+956607924+957337662+956070787+954465411+953339108
3640+952718991+952367796+952140717+952002025+951895852+951557898+950787023
3631+950362328+951953679+955001215+956256885+954990794+952820620+951233265
3621+951089872+952404310+953762392+953764665+952957118+952726278+953379227
3611+954234179+955149858+956393618+957322069+957016242+955754852+954672821
3601+954484060+954837763+954997924+954876785+955008894+955667093+956324821
3591+956416106+956298963+956946740+958396343+959408009+959484094+959196289
3581+958912715+958473446+957779909+957143729+957014362+957497197+958107284
3571+958177962+957624292+957153288+957515141+958483162+959297448+959708900
3561+959832625+959728411+959355510+958704912+957981913+957672795+958169578
3551+959157189+959816327+959801988+959548268+959620905+960092927+960694787
3541+961205047+961481177+961491442+961464722+961730430+962283317+962744918
3531+962843334+962751186+962833853+963142501+963414478+963547841+963672977
3521+963773039+963684496+963465175+963385799+963625414+964218812+965086850
3512+965896590+966228275+966152504+966261890+966929099+967923841+968739771
3502+969037449+968912470+968848217+969266565+970070742+970774153+971085308
3492+971097610+971004444+970981093+971222903+971808934+972641868+973645856
3482+974807889+975937796+976666672+976794394+976427370+975809291+975197323
3472+974845814+974849732+974999629+975042568+975102590+975555884+976463414
3462+977422817+978052963+978386920+978723150+979284969+980088049+980967449
3452+981646647+981899427+981781421+981649155+981817935+982209720+982509514
3442+982584188+982527301+982388687+982111460+981708236+981267086+980800549
3432+980312150+979896780+979456336+978536582+976866718+974843071+973050186
3422+971527790+969794064+967349484+963998864+959886535+955233465+949852851
3412+943007120+933808486+921547585+905702324+886086293+863198546+838372797
3403+813546343+790709607+771389686+756611804+747019661+742667796+742985847
3393+747201058+754490368+763779269+773893190+783926874+793292721+801681771
3383+809200589+816298866+823302016+830089372+836360669+842103371+847555760
3373+852745574+857396293+861363583+864852034+868107059+871168465+874018071
3363+876701169+879182420+881317568+883082166+884653223+886215738+887846659
3353+889584616+891428355+893247489+894822777+895985594+896722228+897273390
3343+898094571+899457433+901048392+902258615+902912739+903443685+904301224
3333+905461141+906592929+907460419+908091584+908691719+909415267+910207221
3323+910945813+911651731+912339861+912831786+913054320+913370804+914214316
3313+915480172+916626221+917270393+917386675+917101456+916652470+916399691
3303+916578658+917100280+917689759+918135062+918436814+918851244+919637086
3293+920638174+921397453+921790883+922164959+922751931+923366249+923778877
3284+924005172+924170034+924386691+924765861+925299628+925803855+926165472
3274+926504836+926915426+927259570+927431799+927588277+927911891+928329377
3264+928602059+928595242+928395354+928195935+928073385+927960865+927894026
3254+928119381+928817854+929824114+930726473+931232658+931409980+931518818
3244+931609790+931519366+931321202+931417267+931975482+932558458+932615110
3234+932213922+932000635+932425878+933246980+933914503+934261389+934564317
3224+934995907+935354938+935420915+935276503+935124569+935083431+935293115
3214+935820927+936362060+936509449+936334792+936214749+936220626+936198529
3204+936221017+936489390+936922625+937152681+936932655+936482181+936303135
3194+936560146+936898256+937009680+937017907+937164513+937498000+937983030
3184+938585359+939172645+939546015+939637615+939570149+939483408+939391731
3174+939331788+939510912+940060194+940756160+941229044+941341800+941211727
3165+941020850+940895008+940832715+940748481+940626009+940516466+940428863
3155+940400106+940535037+940785387+940916322+940909191+941103438+941702712
3145+942386376+942639704+942338735+941890768+941810688+942171443+942586735
3135+942782940+942913561+943154901+943365994+943371949+943237959+943121521
3125+943112510+943216176+943309342+943266794+943207478+943390128+943840837
3115+944298442+944514315+944491357+944465577+944658179+945009923+945227677
3105+945103716+944673615+944128407+943719071+943688825+944122452+944799456
3095+945273124+945249382+944926629+944783785+945007886+945318179+945349678
3085+945004516+944449279+943964798+943766947+943858154+944092755+944381500
3075+944730267+945152924+945658483+946224612+946726723+946999014+946960148
3065+946620314+946038201+945285582+944367631+943279018+942182178+941221052
3055+940076022+938127755+935217108+931891562+928891431+926700337+925506804
3046+925259509+925700894+926448576+927118684+927499499+927620404+927600579
3036+927541420+927614840+928003021+928669995+929451605+930331710+931318459
3026+932176703+932657031+932882150+933205529+933770953+934400551+934847264
3016+935044410+935135695+935324927+935731600+936354459+937069231+937662472
3006+937991727+938125718+938256495+938522987+938959906+939505348+940000172
2996+940292522+940395248+940451038+940523518+940553215+940533548+940553215
2986+940628595+940691751+940795887+941062065+941353240+941321192+940898691
2976+940494761+940567320+941137053+941809355+942214069+942336933+942361145
2966+942333877+942189778+941981741+941840071+941803165+941894765+942206547
2956+942701998+943086182+943079835+942735691+942292896+941789061+941080166
2946+940257261+939746531+939882323+940563794+941372516+941900720+942009557
2936+941868045+941708353+941574912+941391556+941159855+940992720+941053995
2927+941473283+942188838+942925863+943422333+943583356+943424214+943071921
2917+942825567+942989724+943581476+944313251+944845843+944963379+944611713
2907+943974436+943486821+943530074+944049110+944614142+944902887+944989628
2897+945116723+945333459+945475598+945445666+945355163+945380865+945566022
2887+945781112+945872789+945871379+945974810+946246709+946491261+946506932
2877+946278208+945880782+945453580+945246717+945430386+945866521+946246082
2867+946382109+946279383+946047682+945832671+945759642+945871771+946085528
2857+946245377+946300383+946383363+946608091+946875131+946992040+946906709
2847+946763551+946788704+947102288+947543986+947724442+947367996+946603154
2837+945855316+945454833+945422472+945612566+945916121+946230567+946371845
2827+946207138+945877334+945771787+946165374+946879441+947424648+947532311
2817+947376302+947197962+946984517+946697496+946559039+946832270+947424570
2808+947925663+948029564+947806874+947551430+947457402+947490625+947513348
2798+947467196+947433895+947510214+947613332+947519225+947184014+946891586
2788+946945888+947326310+947759232+948017184+948040926+947871361+947587552
2778+947311579+947209872+947409369+947837119+948186121+948185808+947938670
2768+947856865+948183457+948679691+948899404+948703825+948365010+948203125
2758+948285321+948497041+948754052+949031436+949255301+949319241+949245507
2748+949203899+949304745+949476503+949589415+949606497+949599288+949689164
2738+949935831+950241345+950430342+950439353+950346108+950238368+950137757
2728+950038714+949966234+949981670+950106728+950235390+950193391+949928074
2718+949594274+949421967+949508159+949748480+949950014+949994286+949901824
2708+949769793+949647008+949475093+949198571+948887024+948653363+948523996
2698+948502605+948647722+948971101+949359046+949671925+949834202+949858180
2689+949862568+950007293+950338664+950765553+951160942+951408237+951423281
2679+951235616+951014650+950960113+951153890+951484399+951717590+951692359
2669+951452743+951170031+950989810+950969516+951073026+951169561+951116749
2659+950921013+950757090+950732095+950709214+950483938+950058382+949619034
2649+949339692+949326293+949633687+950174115+950666040+950829884+950682416
2639+950560336+950756620+951176535+951480638+951520365+951437542+951376110
2629+951356834+951497407+952058756+953067680+954080521+954585453+954527939
2619+954243504+954046044+954099484+954477948+955100337+955771151+956409995
2609+957042100+957521018+957533711+956990071+956204935+955610597+955414000
2599+955568598+955880772+956073373+955960304+955665134+955462111+955393313
2589+955273349+955011637+954662557+954273044+953935796+953873737+954270929
2580+955074636+956015154+956733452+956952225+956699837+956328268+956136059
2570+955994860+955555512+954801797+954158016+954017836+954395986+955040707
2560+955695693+956197099+956429349+956324821+956033725+955965397+956378182
2550+957041943+957613635+958130164+958765639+959372200+959665725+959691113
2540+959780675+960103976+960444671+960480637+960212030+959971396+960025462
2530+960311621+960536036+960425396+959973041+959451027+959066686+958742210
2520+958430271+958337262+958582754+958976733+959363581+959788981+960165956
2510+960206388+959860285+959485426+959420233+959603823+959708508+959512302
2500+959059634+958566612+958253733+958179999+958171850+958039740+957877542
2490+957897836+958020151+958002051+957919463+958074139+958511841+959004314
2480+959364443+959511911+959501254+959665020+960353699+961363642+961988068
2470+961821559+961246733+960978439+961328068+962047227+962703859+963053801
2461+963113900+963019715+962861748+962658803+962447631+962287391+962138827
2451+961856663+961395063+960950152+960782390+960903295+961070430+961173469
2441+961421234+961930632+962356267+962274854+961784027+961378138+961365209
2431+961686002+962153401+962619547+962996287+963246872+963307991+963035622
2421+962400069+961701517+961393809+961649174+962188270+962554510+962552630
2411+962429766+962538839+962846547+963035465+963061480+963167418+963354299
2401+963375456+963249850+963221171+963215059+962889878+962247116+961710058
2391+961536575+961514244+961341075+961065807+961005864+961312866+961749549
2381+961918017+961686080+961368186+961395768+961733956+961828690+961414574
2371+961133664+961833391+963367855+964682528+965052137+964697729+964214110
2361+963865422+963611467+963635287+964396760+965840173+967021639+967086127
2351+966192153+965033253+964060922+963426701+963065554+962684113+962212090
2342+962150110+962774615+963536636+963854060+963870045+963955297+964095713
2332+964127682+964054340+963835568+963292006+962464635+961768512+961638753
2322+962180042+963196097+964330705+965142405+965314712+964819026+963823501
2312+962715299+962192736+962776339+964093049+965113021+965235023+964794578
2302+964480759+964569302+964822865+964948158+964936013+964919949+964892446
2292+964729307+964407417+964067191+963899194+964020882+964439935+965086144
2282+965803267+966356624+966623899+966718163+966765412+966716282+966555650
2272+966468517+966644507+967162603+968043100+969078587+969749636+969680838
2262+969011043+968086431+967135648+966432473+966311098+966705469+967017408
2252+966812113+966437253+966564426+967175767+967472426+966934036+966036771
2242+965686045+966302714+967654528+969199492+970422330+971050126+970979291
2232+970171196+968903302+967765873+967120917+966995076+967489352+968594576
2223+969787795+970594323+971266234+972320683+973693889+974629705+974205403
2213+972192726+969499834+967435677+966712991+967322059+968692679+969795474
2203+969952267+969668850+970012993+971287547+972787769+973646718+973569928
2193+972887831+972078874+971438776+971217026+971634825+972668431+974048924
2183+975253270+975486617+974352635+972559515+971246018+970915822+971535782
2173+972939155+974661362+976100857+977095912+977791643+977882615+976551174
2163+973514138+970102399+968793133+970791783+974376926+977016928+978040113
2153+978152398+978145189+978704031+980178003+981855782+982209093+980532568
2143+978055941+976807558+977539804+979266085+980650652+981239348+981244284
2133+980788717+979841460+978649024+977783885+977654048+978055471+978283411
2123+977725196+976480183+975410219+975275758+975765489+975869390+975330060
2113+974944935+975075556+974837665+973527223+972012976+971758864+972992046
2104+974601654+975437095+975204845+974546961+974532778+975563407+976720347
2094+976850498+976058309+975314075+975039199+974895884+974615288+974313614
2084+974151336+974163952+974363370+974741834+975108780+975045467+974303976
2074+973328902+973050657+973999872+975909509+978132966+979906810+980347176
2064+979194389+977650052+977375724+978545907+979927731+980802978+981398177
2054+981386894+979829942+976962940+974526744+973878889+974764949+976355830
2044+978319690+980199238+980831422+979495828+977279188+976157274+976741738
2034+978052571+979515887+981553167+983954807+985531897+985727868+985235865
2024+984898538+985080326+985929089+987190949+987992775+987769458+987089476
2014+986769075+986760377+986444599+985320020+983334691+981390890+981037892
2004+982732909+985255689+987258571+988312628+988508599+988092445+987449527
1994+986932998+986828234+987184758+987328935+986497333+985206403+984675769
1985+984922045+984847841+984063253+983303034+983335239+984500093+986827137
1975+989691867+991753986+991954893+990618751+989223292+988996527+989804152
1965+990388382+989500284+986983616+984227254+983111530+984091305+986041139
1955+987846169+989166562+989915498+990071663+989978183+990037108+990193116
1945+990145318+989794593+989197043+988481801+988008211+988101691+988477021
1935+988332766+987157804+985150691+982960066+981320839+980550982+980133496
1925+979288417+978088929+977480096+978109694+979761301+981707687+983097896
1915+983529564+983407798+983488270+984120689+984873777+985065203+984744410
1905+984699512+985404176+986422502+986926259+986459017+985172161+983604630
1895+982149934+980675021+978988467+977503994+976898452+977221361+977905966
1885+978554056+979157169+979904616+981020340+982451686+983771530+984642546
1875+985127340+985369777+985345251+985083069+984769719+984442187+983914218
1866+983250065+982749129+982420344+981984601+981416983+981053720+981084750
1856+981450128+982202590+983392675+984621155+985194257+984843453+984143648
1846+984145058+985346505+986878931+987652628+987769066+987825797+987968014
1836+987911989+987551391+987267503+987607729+988647839+989728930+990358763
1826+990799599+991212383+991170932+990484369+989728225+989557015+989851402
1816+989870599+989251501+988395922+987846953+987662579+987558991+987457989
1806+987511272+987793905+988262715+988833937+989327507+989539698+989482340
1796+989385178+989523399+990086943+990874665+991213167+990787610+990014306
1786+989485553+989436345+989580992+989478501+988960875+988160067+987289443
1776+986469438+985837803+985747849+986450632+987466295+988155836+988484073
1766+988642903+988858933+989532646+990770685+991829993+992128219+992213628
1756+992684318+993257813+993527909+993708678+994197469+994955024+995661725
1747+996195492+996538461+996677779+996795393+997136167+997422170+997025919
1737+996099113+995751287+996732081+997840753+997873193+997330101+996804482
1727+996351188+995939500+995560880+995071540+994436614+993969529+993991233
1717+994005886+992934042+990813703+988561333+986855111+985920234+985796509
1707+986496941+987615565+988386205+988838403+989920199+991812676+993069286
1697+993251387+993272152+993279361+992977765+992634797+992521101+992340880
1687+991863608+991704230+992649528+993895325+994241035+994019834+993939910
1677+994528840+995997014+997698457+998696881+999202048+1000221001+1001829121
1667+1002766661+1002540602+1001899250+1001721223+1002138317+1002602739
1659+1002775124+1002684387+1002686659+1003943896+1007498167+1010655638
1650+1011421263+1011456602+1012308734+1013845862+1014635229+1014470680
1642+1014140562+1014094488+1014513619+1016006241+1019341190+1023279566
1633+1025489702+1026116792+1026573222+1027966486+1030596615+1034071667
1625+1038064031+1041429696+1040841862+1032349695+1011180942+971514390+920092496
1615+882562425+870855194+876687143+890429617+905750749+918882900+928660984
1605+935727525+941189866+945747418+949628280+952994964+956139742+959419606
1595+963052469+966843220+970396942+973633946+976706713+979584449+982076357
1585+984089816+985678268+986893898+987659053+987995753+988521606+990306185
1575+993146781+995351667+996629746+998178158+1000906703+1004073107+1006444266
1565+1007951853+1008854212+1009202351+1009752104+1012771902+1018670533
1557+1022888879+1024846078+1026499018+1028436001+1030656950+1033066661
1548+1035219439+1036936396+1038822918+1041604275+1045882721+1053091715
1540+1063164577+1070962424+1073741823+1072545704+1068023961+1061071350
1531+1053022918+1042425848+1024066740+992871591+951698079+911200943+880538700
1521+865255102+865472778+875347710+889541755+903661909+914170279+920945568
1511+925655604+929628457+934835118+944137653+955238637+962318264+966111680
1502+969343825+973421442+978787168+984962869+990395826+993766114+995279108
1492+995950157+996704264+997959777+999700946+1001903090+1004621292+1007991110
1482+1011981515+1016071042+1019808589+1023483608+1027785638+1033592201
1473+1041884715+1051760039+1060274225+1066101082+1068566426+1063558556
1465+1043375142+1005138369+954750003+897829176+838034217+790241738+780059176
1455+799392417+817488480+817903302+797443445+765224484+739918173+734696937
1445+746510890+765316475+784309648+800812715+815444618+830991417+848310337
1435+863428210+873794754+881490502+888843908+895855757+901306735+905037074
1425+907707713+909516113+910387285+910830942+911774281+913427142+915077026
1415+916544181+918345842+920799903+923700676+926638591+929497287+932666669
1405+936581459+940911463+944934622+948651169+952468092+956198509+959368517
1395+962079667+964451845+965953947+966067878+964724919+962184666+959359898
1385+957739633+958207111+960552961+963979980+967568884+970684982+973307824
1375+975882790+978612118+981065239+982937891+984573200+986299403+987997006
1366+989654412+991718334+994428700+997237875+999559669+1001557927+1003685161
1356+1006071757+1008525426+1010896272+1013225040+1015508517+1017560686
1347+1019199442+1020369938+1021031819+1021116602+1020572491+1019086530
1339+1015318188+1006687799+991040233+969154671+945769201+927350229+917216875
1329+912285168+905044439+889351034+865359787+839706589+820838474+813702195
1319+817823143+829037274+842853638+856646731+869520227+881343504+892189749
1309+902100412+911037726+919036245+926282381+932977275+939238543+945149085
1299+950782086+956175786+961366854+966404186+971255029+975807253+980096825
1289+984429337+989137883+994302154+999777736+1005371716+1010929887+1016363157
1279+1021506741+1025425606+1025250400+1016058661+993741980+959757481+922635962
1269+892950047+876376537+872055308+876143816+885348876+897838422+912501512
1259+928168981+943605218+957997114+971165937+983396044+995248235+1007371385
1249+1020192381+1033548948+1046220126+1055167861+1054930752+1038659465
1241+1001689410+945752041+880174967+818484240+772609939+748395531+744461229
1231+754371031+770592953+787718488+803257216+816614174+827873908+837232155
1221+844959403+851432704+857002158+861864206+866127606+869950720+873574258
1211+877248336+881090803+884984124+888701847+892156918+895406536+898439028
1201+901175409+903712763+906365537+909434935+913060197+917213193+921644826
1191+925837627+928962893+929619916+925664380+914969677+897142769+874870281
1181+853451962+838365510+832419943+834723636+842114341+851385611+860512784
1171+868717381+876028632+882721097+888934959+894691059+900005305+904787977
1162+908797658+911833362+913828408+914711883+914417574+913102745+911157299
1152+908905164+906432846+903689178+900349448+895464912+888164162+879640886
1142+873741158+874092119+880656314+890030075+898772985+905532681+910477082
1132+913959499+916052961+916936357+917326967+918189912+919949417+922272621
1122+924673478+927006085+929328506+931624365+933754028+935403363+935939089
1112+934538851+930707275+924736869+917892704+912370656+910500432+913035436
1102+918265134+923459259+927045734+929007478+929835711+929962101+929889777
1092+930107296+930787121+931798239+932986051+934367562+936060307+938058252
1082+940123663+941962857+943498496+944893798+946267395+947475580+948322149
1072+948918680+949608456+950538083+951522167+952345699+953008755+953646267
1062+954326797+954980137+955522289+956033725+956714411+957626564+958579463
1052+959303481+959673169+959761634+959725668+959647311+959560492+959651934
1043+960256928+961539083+963294513+965118192+966668014+967806227+968620747
1033+969325803+970113212+971090636+972255412+973446202+974386250+974852866
1023+974797703+974244111+973145468+971552550+969917868+968907455+968836072
1013+969577172+971038294+973319891+975814306+975557216+967283508+947911088
1003+922292759+901928106+895526971+902025190+913901123+924964887+933355583
993+939575399+944418563+948384913+951627871+954161699+956202819+958119586
983+960044738+961794291+963238723+964529967+965832024+967054627+968029074
973+968757872+969331445+969747520+969923118+969829481+969595116+969459793
963+969610082+970143066+971148855+972643357+974414694+976110573+977477980
953+978445453+979080301+979584371+980258397+981300780+982591553+983750531
943+984457545+984638236+984263769+983026826+980319672+975486617+967987310
933+957562782+944981949+932895079+925082814+923871730+928315038+935220713
924+941642534+946261205+949171381+951079843+952571367+953767799+954522298
914+954783461+954648139+954184344+953384712+952263032+950922188+949545379
904+948278269+947061229+945730493+944386907+943466213+943367483+944254327
894+946174699+949084405+952812863+957172251+961938155+966727252+971197202
884+975250606+978661405+980552158+979643609+975295896+968324088+960674492
874+954321312+950521158+949703033+951428218+954424117+957062473+957900030
864+955243730+945591096+923757799+888135483+847213653+816963019+807804739
854+814874963+822422146+816816335+796259550+771227644+756099036+758250639
844+774427114+796864074+820500364+843776370+865636230+884527617+899683650
834+911602444+921041869+928286359+933344378+936198451+936878275+935722197
824+933416231+930627508+927977241+926237090+925895454+926667427+927980454
815+929745992+932281387+935704488+939658066+943564629+947102288+950421801
805+953816145+957253350+960500148+963730491+967595839+972387914+977470771
795+981973787+985805598+989592510+993786722+998205269+1002446652+1006483052
785+1010646862+1015194776+1020128991+1025204874+1029921100+1033881965
776+1037184788+1039922109+1041665394+1042235127+1042434467+1042923649
768+1042144155+1035670618+1019108000+994108377+970834409+959748235+959173174
758+955035927+935341696+902341595+868805298+844400248+827332149+807574761
748+775614614+728223870+669002641+606587896+552429464+517379820+507209404
738+519974806+547793790+581315591+613289451+640022447+661407895+679901620
728+698513115+718659388+739386991+758575977+774813649+788027997+798663384
718+806912645+813130111+818612276+825263761+834155314+844668933+855393804
708+865669453+875943850+886801691+898185857+909752516+921412654+933046151
698+943561260+948702963+938027928+897701611+824466400+738674491+675600059
688+657836621+679082085+716609336+753011930+782709050+805920411+823970714
679+838222117+849479657+858081917+864579430+869647948+873852425+878096079
669+883554894+889637664+894227578+897326830+900080763+902810640+905035820
659+906728408+908764121+911591709+914310068+915871173+916637504+917841850
649+919832430+921837740+923393831+925052020+927526689+930806162+934231456
639+937154092+939529482+941898056+944686465+947720524+950530090+952818426
629+954650725+956480516+958710711+960954932+962224549+962220396+962069951
619+963092196+963984681+959769705+946461328+927639679+913345416+911048226
609+919492674+931875028+942485106+949551961+954234571+958259923+962009694
599+964746154+966341501+967656879+969339829+971398657+973907803+977236641
589+981363779+985347523+987792887+988146120+987526473+987675586+988854936
579+988722592+982270447+962679803+925660305+875871840+826388496+789516858
569+769360712+763820563+771593963+793314426+826218305+862131403+892547605
560+914303721+929489452+941198015+950596067+957336252+961479688+964516960
550+968343050+973271388+977654205+979849217+980043543+979923265+981114760
540+983912965+987117528+989421849+990992200+993082920+996247130+999697107
530+1002288527+1003522022+1003842502+1004064801+1002783038+993974387+970892001
520+936098859+906383873+899801890+916206933+939927849+958713767+970902971
510+979240619+985348307+989604969+992674288+995708426+999246711+1002524225
500+1004591124+1005512210+1005666652+1005116508+1004183903+1003468505
492+1003082597+1002698961+1002183843+1001705709+1001617792+1002167309
483+1002865548+1002588243+1000497601+996422101+990895586+985088084+979675343
473+973608323+964945494+953055848+938812751+923371656+907812319+892497457
463+876446901+858411721+838230031+816797059+795824747+777162085+760940084
453+745546238+729317420+711604130+692969833+674783580+658214380+643103755
443+628596360+615227923+604614398+596438910+587427001+573957914+555799596
433+536796903+521570819+512331753+508077559+506186336+505146109+505726734
424+509451783+516305390+525393541+537415571+552667865+566577083+573689581
414+572788202+568170471+567198649+573744431+585695391+598765092+609830580
404+617399938+621804930+624959541+628406423+631696591+633849762+635623880
394+638275440+642834285+650114545+658506103+663517969+662933504+661723047
384+666952667+676769693+683283505+684286004+685051159+692824167+708838914
374+723363312
##END=
