##TITLE=LL- 179
##JCAMP-DX=4.24
##DATA TYPE=INFRARED SPECTRUM
##DATE=26/7/2019
##SAMPLING PROCEDURE=Diamant-ATR
##ORIGIN=Rieke
##XUNITS=1/CM
##YUNITS=TRANSMITTANCE
##RESOLUTION=4
##FIRSTX=3997.453
##LASTX=373.96442
##DELTAX=-1.4165319
##MAXY=1
##MINY=0.24325885
##XFACTOR=1
##YFACTOR=9.3132258e-010
##NPOINTS=2559
##FIRSTY=0.99766815
##XYDATA=(X++(Y..Y))
3997+1071238015+1071143167+1071294911+1071637439+1072036991+1072346815
3989+1072356927+1072097215+1072070719+1072677567+1073500287+1073741823
3980+1073337535+1072979647+1073028543+1073077567+1072653375+1071851775
3972+1071089151+1070607615+1070435135+1070492031+1070548671+1070345983
3963+1069935615+1069716991+1070012927+1070775295+1071735679+1072513215
3955+1072643199+1071964735+1070967231+1070464703+1070855295+1071720447
3946+1072283839+1072182335+1071546687+1070760703+1070295551+1070373567
3938+1070746175+1070972863+1070922495+1070886847+1071159679+1071623039
3929+1071877695+1071713023+1071284287+1071002559+1071150655+1071479167
3921+1071545215+1071294207+1070995071+1070755455+1070336959+1069609151
3912+1068831231+1068318975+1068039615+1067676287+1067102015+1066699839
3904+1067177855+1068689471+1070206335+1070574015+1069789631+1068698943
3895+1067864767+1067409023+1067478207+1068109567+1068729343+1068863615
3887+1068865407+1069213631+1069502591+1069080319+1068475391+1068699967
3878+1069497087+1069832063+1069446655+1068700351+1068122047+1068388351
3870+1069787071+1071201599+1071411519+1070909695+1070995071+1072124159
3861+1073278207+1073389887+1072391935+1070882495+1069639679+1069445375
3853+1070652863+1071930943+1071996415+1071151807+1070070719+1069332671
3844+1069160191+1069216959+1069089791+1069119871+1070149567+1072024511
3836+1073315519+1073300479+1072469567+1071590463+1071108863+1070935999
3827+1070699391+1070145215+1069358527+1068818303+1069276031+1070755583
3819+1071814847+1071886975+1071875327+1072288511+1072593407+1072325055
3810+1071559679+1070693311+1070268543+1070224703+1069565567+1067938815
3802+1066423231+1066296831+1067151167+1067979391+1068544255+1068758399
3793+1068651967+1068503551+1068368831+1068043711+1067608127+1067482047
3785+1067771391+1068050815+1068086527+1068200255+1068640255+1069051519
3776+1069045439+1068745151+1068378239+1068106559+1068243647+1068967615
3768+1069766975+1070038719+1069717887+1068962687+1068091071+1067764927
3759+1068483583+1069614463+1069983615+1069562687+1069144191+1069537535
3751+1071221823+1073168511+1073741823+1073199871+1072630335+1072417215
3742+1071812095+1070574463+1069236351+1068147455+1067456255+1067610559
3734+1069135167+1071207231+1072368447+1072317439+1071641215+1070934527
3725+1070402303+1070053055+1070127999+1070840895+1071854527+1072576639
3717+1072636991+1071811199+1070072383+1068155775+1067729791+1069191743
3708+1070449663+1070297663+1069313599+1068479679+1068380223+1068845247
3700+1069291519+1069565631+1069665023+1069189439+1067828863+1066007743
3691+1064732543+1064865151+1066004415+1066774015+1067114687+1067744255
3683+1068717631+1069563903+1069960703+1070015103+1070038271+1070221183
3674+1070216191+1069617919+1068945279+1068995071+1069634751+1069935551
3666+1069896895+1070004223+1070210239+1070094079+1069565247+1069198207
3657+1069823359+1071386687+1072336831+1071598143+1069807487+1068433855
3649+1068685311+1069538047+1069222143+1067994559+1066758335+1066078335
3640+1065943295+1065887551+1065559423+1065004415+1064430271+1063994815
3632+1063850175+1064355199+1065857151+1067310463+1067141695+1065789567
3623+1064360255+1063544575+1063656831+1064631679+1065880959+1066821247
3615+1067311359+1067104767+1065986687+1064577663+1063944383+1064378495
3606+1065078719+1065301119+1065132415+1064966975+1065023551+1065271871
3598+1065645439+1066177663+1066731199+1066846975+1066279743+1065340607
3589+1064507583+1064237695+1064794879+1065735487+1066425599+1066722303
3581+1066697279+1066330943+1065647487+1065047871+1065064639+1065603967
3572+1065888831+1065420735+1064547583+1064008191+1064072255+1064123903
3564+1063683263+1062997055+1062441471+1062292863+1062675775+1063389951
3555+1063961471+1064014015+1063623231+1063190719+1062925759+1062760063
3547+1062661183+1062645759+1062637887+1062637183+1062787903+1063098303
3538+1063336959+1063325695+1063245631+1063448383+1063896063+1064106879
3530+1063810239+1063430527+1063570815+1064169215+1064694847+1064899903
3521+1064930943+1064942335+1064892095+1064669631+1064331199+1064145791
3513+1064326079+1064791935+1065200639+1065137599+1064449663+1063499519
3504+1062947903+1063180735+1063888447+1064405439+1064387391+1063932863
3496+1063349183+1062885951+1062598975+1062561919+1063028799+1064037503
3488+1064994559+1065200319+1064817151+1064697791+1065193215+1065683071
3479+1065565695+1065045951+1064563455+1064167359+1063759231+1063500095
3471+1063651327+1064154303+1064558783+1064452927+1063980223+1063714879
3462+1063945087+1064327039+1064371007+1064035839+1063686271+1063612223
3454+1063716607+1063689791+1063401087+1063014015+1062778879+1062767935
3445+1062790399+1062662975+1062523263+1062648255+1062973311+1063107455
3437+1062885567+1062622399+1062687231+1062970111+1062956991+1062439423
3428+1061938751+1062106879+1062884607+1063626495+1063860543+1063562303
3420+1062889791+1062000063+1061087743+1060396927+1060110527+1060159743
3411+1060177727+1059807167+1059077119+1058363583+1057980799+1057960255
3403+1058202623+1058626751+1059078271+1059310591+1059173567+1058685439
3394+1057954751+1057225919+1056842623+1056901247+1057142591+1057311167
3386+1057345471+1057216511+1056876223+1056359807+1055757951+1055161791
3377+1054691455+1054428735+1054315327+1054194495+1053923263+1053460927
3369+1052883199+1052304959+1051832959+1051608127+1051699711+1051890751
3360+1051824255+1051410687+1050881791+1050486911+1050313983+1050309311
3352+1050328575+1050264703+1050152831+1050043519+1049872191+1049599679
3343+1049319487+1049075775+1048791935+1048522367+1048486463+1048762751
3335+1049247871+1049889855+1050589439+1051013887+1050964927+1050753855
3326+1050803775+1051112895+1051438399+1051691071+1051884415+1052013503
3318+1052149759+1052329855+1052250815+1051430399+1049779007+1047678783
3309+1045515519+1043553791+1042199295+1041752767+1041847487+1041700415
3301+1041023551+1040211967+1039644351+1039309823+1039114047+1039090495
3292+1039254719+1039478271+1039532351+1039233471+1038649471+1038113855
3284+1037928575+1038066111+1038192895+1037924799+1037103487+1035932543
3275+1034782335+1033803839+1032897791+1032107711+1031724095+1031834111
3267+1032054463+1031970943+1031645183+1031408447+1031291391+1030980607
3258+1030315903+1029579007+1029204927+1029316927+1029564607+1029426687
3250+1028735679+1027901311+1027485119+1027591935+1027871039+1028085375
3241+1028348223+1028735999+1028998399+1028844735+1028402111+1028169087
3233+1028473151+1029140479+1029812223+1030407871+1031047295+1031666047
3224+1032039295+1032187455+1032416703+1032808639+1032969727+1032589247
3216+1032006271+1031851839+1032287743+1032919167+1033314111+1033312703
3207+1032993023+1032598207+1032427391+1032644031+1033164927+1033769599
3199+1034278399+1034569087+1034532671+1034208831+1033898239+1033894335
3190+1034156671+1034450175+1034688511+1034961855+1035355263+1035826943
3182+1036160895+1036117375+1035752639+1035454783+1035549311+1035989631
3173+1036432127+1036536063+1036260479+1035872703+1035557951+1035205887
3165+1034777471+1034638719+1035171519+1036130047+1036743487+1036571135
3156+1036002111+1035746943+1036061247+1036672831+1037237631+1037616447
3148+1037819199+1037880063+1037814655+1037640959+1037424383+1037300671
3139+1037417215+1037765759+1038101695+1038185471+1038036287+1037789567
3131+1037478527+1037175231+1037074687+1037207039+1037344447+1037333823
3122+1037257727+1037254271+1037396095+1037653311+1037829439+1037683647
3114+1037207231+1036628927+1036129471+1035702527+1035312447+1035058431
3105+1035076799+1035294719+1035382591+1034975679+1033929599+1032410623
3097+1030775999+1029299583+1028017663+1026917695+1026146175+1025834687
3088+1025873151+1026090175+1026499007+1027137279+1027818623+1028243839
3080+1028192511+1027472575+1025928895+1023738687+1021532095+1019979711
3071+1019264127+1019027199+1018797439+1018445631+1018232831+1018420799
3063+1018938687+1019562687+1020295999+1021346111+1022800127+1024507071
3054+1026240959+1027846463+1029276287+1030570431+1031743615+1032707519
3046+1033408895+1033931711+1034263935+1034155199+1033497215+1032589631
3037+1031639231+1030265983+1027899263+1024425919+1020209599+1015742527
3029+1011396863+1007273727+1003208895+998936255+994081855+988102207+980626559
3019+971889023+962565823+953306559+944692927+937483583+932487615+929951103
3009+929082431+928273983+925755775+920191295+911357759+900928575+892277375
2999+888555071+890463743+895938687+901881087+906086847+907905855+907711359
2989+906148543+903788351+901064895+898269823+895609407+893237055+891225279
2979+889671167+888886975+889334591+891392767+895342847+901412607+909514431
2969+918989119+928784191+937890687+945654975+951877247+956753087+960735935
2959+964360383+967978239+971547967+974770495+977474047+979751679+981726719
2949+983315327+984254143+984294079+983374847+981697599+979643263+977542079
2939+975473023+973317951+971004607+968652479+966470655+964521599+962576255
2929+960176191+956817791+952159871+946237247+939580351+933169535+928343807
2919+926552255+928651327+934189439+941633279+949409407+956563839+962634431
2910+967456063+971218751+974395135+977442239+980569343+983665023+986336127
2900+988112767+988751295+988337215+987023615+984671167+980810367+975032767
2890+967563967+959552319+952634431+948004223+946008063+946704703+950338623
2880+956814207+965028671+973249919+980177855+985512447+989662271+993170047
2870+996434879+999769791+1003410879+1007296959+1010960895+1013869823+1015919743
2860+1017497215+1019036863+1020610175+1021963839+1022852287+1023292095
2851+1023572991+1024074303+1025044991+1026496063+1028210623+1029794047
2843+1030821695+1031141823+1031073919+1031207999+1031929855+1033127039
2834+1034334719+1035166335+1035615295+1035970303+1036472959+1037097791
2826+1037664703+1038070783+1038316607+1038413567+1038425151+1038476863
2817+1038575935+1038581183+1038489343+1038535295+1038889279+1039457407
2809+1040053887+1040585855+1041063871+1041577983+1042219519+1042909119
2800+1043377407+1043450751+1043281535+1043158271+1043154047+1043123199
2792+1042993727+1042877567+1042916607+1043159103+1043538751+1043902719
2783+1044159743+1044409663+1044784383+1045211135+1045516927+1045700479
2775+1045890111+1046088831+1046168767+1046116799+1046097855+1046232703
2766+1046440639+1046590271+1046702591+1046910783+1047275007+1047724351
2758+1048154367+1048517183+1048789183+1048888511+1048715327+1048332735
2749+1048010239+1047976639+1048183423+1048434367+1048687295+1049059775
2741+1049534143+1049868607+1049929791+1049951231+1050254079+1050814975
2732+1051339583+1051681087+1051913727+1052065471+1052090495+1052080383
2724+1052215999+1052523519+1052866751+1053122367+1053210047+1053042239
2715+1052605311+1052063743+1051689471+1051651519+1051855871+1052021247
2707+1051949247+1051709631+1051537279+1051591615+1051844671+1052129663
2698+1052266559+1052205055+1052091327+1052149887+1052455999+1052842559
2690+1053060543+1053020927+1052840255+1052687167+1052640831+1052659199
2681+1052599423+1052308735+1051819903+1051391935+1051213887+1051160063
2673+1050992831+1050688191+1050391551+1050168447+1049952191+1049656191
2664+1049260607+1048881471+1048775743+1049142079+1049850431+1050466879
2656+1050635647+1050390783+1050044159+1049878335+1050010623+1050392959
2647+1050848767+1051249215+1051675135+1052237375+1052788031+1053055295
2639+1053035775+1053026751+1053260031+1053648319+1053905215+1053848703
2630+1053600191+1053492223+1053732671+1054173567+1054525183+1054758399
2622+1055100543+1055658815+1056286207+1056782591+1057047039+1057119807
2614+1057164095+1057233663+1057162687+1056946623+1056911295+1057173375
2605+1057397055+1057410367+1057494783+1057810751+1058114751+1058211199
2597+1058189119+1058190911+1058295231+1058522687+1058771135+1058934847
2588+1059118399+1059432639+1059604863+1059171519+1058132223+1057133631
2580+1056869823+1057406463+1058179007+1058603903+1058583679+1058405247
2571+1058316095+1058354943+1058482815+1058654783+1058777919+1058773759
2563+1058724543+1058869311+1059378943+1060096767+1060555711+1060427647
2554+1059949119+1059678719+1059818367+1060053183+1060105215+1060103487
2546+1060263679+1060530495+1060766079+1061033023+1061407295+1061706751
2537+1061728703+1061611647+1061655871+1061895743+1062111487+1062153151
2529+1062073087+1062023103+1062139583+1062470143+1062972223+1063528383
2520+1063922687+1063941247+1063624959+1063280639+1063129727+1063110527
2512+1063098431+1063147327+1063435007+1064015487+1064616063+1064759615
2503+1064239423+1063372543+1062651455+1062301375+1062326015+1062722559
2495+1063384447+1063981311+1064221311+1064151039+1064026879+1064031295
2486+1064230719+1064585663+1064869503+1064813183+1064378751+1063720959
2478+1063037183+1062654143+1062933247+1063784127+1064595903+1064899455
2469+1064796095+1064578751+1064300223+1063921791+1063588095+1063479231
2461+1063514943+1063453375+1063263423+1063172287+1063302207+1063486911
2452+1063566719+1063625727+1063728767+1063667071+1063292479+1062908287
2444+1062954495+1063451391+1064100479+1064695487+1065105791+1065154367
2435+1064860287+1064575935+1064630975+1064996607+1065417663+1065735167
2427+1065957887+1066076543+1065947839+1065449215+1064685759+1063970239
2418+1063614527+1063664639+1063758399+1063445823+1062772543+1062283263
2410+1062334463+1062719359+1063063551+1063225535+1063190399+1062893695
2401+1062335871+1061689599+1061169599+1060880255+1060798335+1060783935
2393+1060611263+1060194879+1059787455+1059753599+1060138431+1060623167
2384+1060866879+1060766527+1060473471+1060307071+1060567487+1061260287
2376+1062013119+1062401023+1062387135+1062295487+1062292479+1062199615
2367+1062019775+1062245375+1063206015+1064485439+1065467263+1066051199
2359+1066332479+1066047359+1064963775+1063434687+1062001791+1060790655
2350+1059717823+1058931519+1058729151+1059151295+1059717375+1059867903
2342+1059718783+1059823615+1060327871+1060755903+1060571071+1059778239
2333+1058886079+1058353983+1058157375+1057886655+1057226751+1056338751
2325+1055781375+1055980351+1056713151+1057353855+1057672767+1057913471
2316+1058134655+1058112063+1057911423+1057995775+1058593343+1059349055
2308+1059779775+1059806719+1059662783+1059427583+1058888575+1057919871
2299+1056812415+1056074943+1055962367+1056261567+1056516415+1056462463
2291+1056238527+1056138559+1056286911+1056654655+1057164351+1057655295
2282+1058020671+1058457919+1059224703+1060136383+1060729983+1060899391
2274+1060965247+1061164479+1061446079+1061770175+1062294527+1063075775
2265+1063736127+1063747007+1063073983+1062243071+1061713855+1061530367
2257+1061619775+1061893631+1061869823+1060852287+1058978047+1057545343
2248+1057733823+1059298815+1060980287+1061971583+1062550143+1063330175
2240+1064338879+1065106111+1065470271+1065782399+1066199999+1066376447
2231+1066138687+1065902719+1066057919+1066423615+1066660735+1066786623
2223+1066965055+1067163775+1067343167+1067635775+1067965439+1067842751
2214+1067096767+1066437695+1066527039+1066877503+1066644991+1066065087
2206+1066005055+1066578687+1067252735+1067712127+1067773887+1067321663
2197+1066962815+1067659455+1069197887+1070112767+1069532095+1068220927
2189+1067507519+1067657151+1067650751+1066764415+1065902015+1066419967
2180+1067990719+1069102271+1069446719+1070152703+1071683583+1073009983
2172+1073162559+1072372031+1071176575+1069313791+1066309375+1062993215
2163+1061611903+1063825407+1068651903+1072819455+1073741823+1071666751
2155+1068304127+1065047935+1062732159+1061746175+1061893375+1062417023
2146+1062452543+1061664127+1060423103+1059343231+1058855103+1059089279
2138+1059661567+1059701631+1058721983+1057334207+1056545087+1056584191
2129+1056844607+1056724479+1056196095+1055651647+1055510655+1056066047
2121+1057398143+1059174207+1060680959+1061203711+1060410559+1058573887
2112+1056577663+1055447423+1055619967+1056695615+1057839999+1058438911
2104+1058573119+1058825727+1059503615+1060371711+1061198335+1061950591
2095+1062430399+1062448191+1062319743+1062531135+1063041663+1063335423
2087+1062954495+1061756351+1060009151+1058477759+1058027775+1058833727
2078+1060164287+1061105791+1061370943+1061409727+1061945727+1063307263
2070+1065076479+1066543103+1067407231+1067701375+1067365055+1066502399
2061+1065670975+1065268415+1064954879+1064216703+1063248127+1062719679
2053+1062883327+1063610303+1065187903+1068042879+1071255423+1072558143
2044+1070872703+1068062143+1067202495+1069282367+1072337471+1073741823
2036+1072428863+1069231935+1066274303+1065468991+1066475199+1066857663
2027+1065251071+1063167679+1062703487+1064037247+1066153343+1068497215
2019+1070740927+1071947967+1071341183+1069518207+1067762879+1066708799
2010+1066532159+1067623103+1069889919+1071887743+1071777727+1069001535
2002+1064788223+1061513535+1061048767+1063115903+1065757375+1067295103
1993+1067188927+1065832639+1064306111+1063387263+1062709375+1061577855
1985+1059976575+1058217855+1056565055+1055810559+1057202879+1060939071
1976+1065398975+1068730367+1070373951+1070598911+1069868351+1069182399
1968+1069824127+1071676671+1072812223+1072103487+1070907519+1071177855
1959+1072794943+1073741823+1072834751+1070793727+1069275967+1068896511
1951+1069060159+1069111423+1069000191+1068967743+1069094655+1069205887
1942+1069028671+1068456383+1067575807+1066501695+1065385791+1064367551
1934+1063453439+1062724415+1062451199+1062631231+1062854911+1062942335
1925+1063089023+1063205631+1062885695+1062196223+1061649791+1061432383
1917+1061229247+1060724543+1060002751+1059492991+1059643199+1060538495
1908+1061887295+1063377727+1064831423+1066086911+1066944191+1067243519
1900+1067021887+1066579455+1066354111+1066642431+1067283647+1067780031
1891+1067931007+1068083647+1068568831+1069235007+1069879871+1070530943
1883+1071161151+1071588863+1071655359+1071356607+1070944639+1070802815
1874+1071052543+1071493759+1071967679+1072443455+1072780799+1072809535
1866+1072686975+1072749183+1073126655+1073576959+1073741823+1073630271
1857+1073482815+1073263039+1072722815+1071925311+1071287551+1071097535
1849+1071185599+1071148735+1070841215+1070430015+1069971199+1069431743
1840+1069041407+1069040703+1069228863+1068991231+1067953599+1066424959
1832+1065059903+1064296063+1064101695+1064368447+1065134463+1066137791
1823+1066911999+1067451647+1068107583+1069059263+1070135679+1070921727
1815+1071161791+1071077183+1071145407+1071620415+1072262399+1072602111
1806+1072492991+1072280639+1072385407+1072856319+1073413631+1073741823
1798+1073725375+1073433983+1073096895+1072687551+1071892735+1070681279
1789+1069468287+1068670463+1068537599+1068914559+1069279295+1069373247
1781+1069302783+1069161727+1069020927+1068898239+1068613951+1067880575
1772+1066424063+1064159807+1061225791+1057623231+1053315391+1048278591
1764+1041830399+1032898559+1022112127+1011285567+1000292479+988566143+977500351
1754+968279039+960263167+952949951+947579391+945427007+946016255+948424319
1744+952083327+956746559+962396351+968447743+973657215+977803839+982151103
1734+987711359+993007487+996663231+999573439+1002489087+1005397375+1008251775
1724+1011099711+1013725311+1015914815+1018049535+1020892223+1024250239
1715+1026635967+1027837183+1028524223+1028930239+1029131263+1029158015
1707+1028991423+1028760575+1028589951+1028341567+1027861951+1027003391
1698+1025603711+1023715071+1021270079+1018293375+1015105855+1011543615
1690+1007079871+1001923711+996545791+989251327+976759999+961434495+948353151
1680+936583551+924377535+910338559+892601791+872099199+852273151+831062911
1670+800692927+760732927+722727039+689804863+654416447+611145791+566752447
1660+533547936+513639616+502863520+498929792+505265728+529206496+557416191
1650+575763647+593308287+620472831+655408447+683949567+704295999+722268927
1640+739774591+756432191+773919295+795590335+817551039+832472959+842554815
1630+852198143+863095871+874333055+883928319+891171327+896350591+899333887
1621+900403647+901237119+904302847+910705215+917700991+923087295+927680063
1611+932604095+938270015+944372799+950325503+955952639+961407615+966688383
1601+971688511+976420223+980926015+985165695+988907583+991735039+993315839
1591+993320959+991129471+986196223+978458431+967878463+954336447+939020287
1581+925201471+916416383+915360575+924047423+938631231+950542463+958653055
1571+966517887+976029631+985275903+992266239+997652159+1001997183+1005123327
1561+1007824703+1012941695+1021085183+1025894591+1027565695+1028980287
1553+1030777151+1032938111+1035289343+1037298111+1038713215+1039940479
1544+1041460607+1043523711+1046627455+1050434815+1052735359+1053489663
1536+1054019647+1055187839+1056987135+1058448127+1059201855+1059791935
1527+1060665023+1061706687+1062716927+1063883583+1065195327+1066173183
1519+1066772799+1067300223+1067742655+1067907967+1067806143+1067612287
1510+1067478975+1067389375+1067063167+1066449727+1066063807+1066045183
1502+1066291199+1066656511+1066952127+1066865663+1066005311+1064384511
1493+1062183551+1059022143+1053804735+1045528383+1034640191+1022140671
1485+1008098367+991846399+973640767+956638911+945383935+942113535+945833855
1475+953372607+960490111+963495167+962092671+958205695+952779263+945812095
1465+938087423+931887423+928455231+927269375+927586367+927884095+924289983
1455+914594815+898895999+876190015+844697983+803022335+755903679+719138687
1445+707631679+722970751+756047359+793925311+828931711+862376511+895728447
1435+922385855+939201663+951072895+962162111+972859071+981822015+988967167
1425+995188607+1000638399+1004861311+1008193727+1011605375+1015001599
1417+1017296447+1018471103+1019109887+1019422335+1019309567+1018702783
1408+1017740991+1016603007+1015342079+1014003455+1012473535+1010029887
1400+1005449791+997602047+985576767+969348991+952521535+940806527+936341247
1390+938562687+947407103+961686655+976963391+989433535+998347967+1003765311
1380+1005485247+1003569279+997997823+987538943+970514495+947236671+918165951
1370+881167295+837012671+795762367+772045183+777623423+815769727+870592639
1360+917344511+946836863+962372991+968518271+968889023+966534079+963555711
1350+961168767+960048511+960417151+962116223+964725823+967800127+971119487
1340+974507647+977529727+979939903+982134847+984688575+987872447+991631167
1330+995765695+1000038399+1004067775+1007349951+1009575167+1010767679
1322+1011023807+1010219775+1008018239+1004171839+998755199+991960383+983819391
1312+973998399+961594751+945993983+929138111+916058943+911013311+913268927
1302+918095935+921164799+920907583+917628415+912181887+905718783+899604031
1292+894858239+891538943+888661951+884776511+878686399+869734911+857690879
1282+842625599+824891711+805062847+783805759+761771775+739547455+717625599
1272+696346879+675805567+655778175+635840191+615708159+595460415+575304639
1262+555242687+535169056+515132800+495246848+475475616+455699648+435921248
1252+416424832+397937056+381696608+369223872+361815136+360092992+363897248
1242+372471328+384683136+399126496+414097600+427326688+435471264+434265120
1232+420456096+394561984+361431072+327619680+298386912+276843840+264436000
1222+261197200+265997696+277095744+292419904+309731168+327246688+343880672
1213+357936960+365803968+364013088+354159712+344667232+345389248+359587488
1203+381734720+403304160+420225440+434821856+451288352+470202336+488049472
1193+501707584+512180192+523325056+537539263+553492415+567870207+578462783
1183+585306559+589516287+591606591+590868799+586133183+577054463+564712127
1173+551171263+538567039+528410528+521435968+517849312+517451360+519360224
1163+521854400+522988416+521840832+519602176+519503456+525087104+537933311
1153+556658559+577342911+594563647+603587903+603755775+599813183+598385279
1143+602595391+610783103+620297471+631176127+645485759+664011519+684572543
1133+703321855+716908671+723312639+721470911+711209791+694080575+674003327
1123+656389439+645964351+644951039+652913343+667855871+687109375+707462655
1113+725300799+737034687+739704127+732688447+720276799+711302399+713492607
1103+727374527+746541631+763382463+773478847+775499071+769227967+754706431
1094+732615999+704694143+673268415+640007039+605594431+571834239+544192767
1084+530637408+536301984+558826751+588977663+615691839+630607295+629349823
1074+612377919+587404991+568479999+567820031+587341119+619334143+654293567
1064+686674111+715107327+740197439+762751295+783091903+801248639+817397119
1054+832026047+845742591+858845311+871128383+882233023+892050943+900682879
1044+908233343+914741887+920133439+924194175+926686143+927511999+926707455
1034+924120959+919048639+910321151+896795455+877709823+852776895+822318207
1024+787551103+750790975+715218239+684123711+659947007+643329919+632531199
1014+624115647+614927871+603660287+591084927+579685183+573046463+574580991
1004+585158975+600184191+610223871+609267647+603691391+608314239+631364543
994+666990719+703342527+733390207+756870847+776519103+795041535+813766335
984+832413631+850065855+866325759+881542079+896268031+910648319+924347775
975+937040831+948675071+959227135+968650431+977143039+985094335+992733695
965+999998079+1006625151+1012254783+1016474943+1018707327+1017809215+1011489599
955+996483903+971213887+940215103+914782975+905688063+913518655+927415487
945+934524095+930801983+923158271+922209663+933083391+952088127+971018687
935+984213631+992016639+998509311+1006647103+1015734527+1023016575+1026506303
925+1025765567+1020986815+1012448895+1000619135+986048191+969091711+949906879
915+928504383+904475775+876710783+843833279+805366527+762734015+719409343
905+680381759+651207551+636679231+639357055+658440127+689307135+724141567
895+754080063+772197823+775592447+765550463+745860735+719469183+685190463
885+639143103+582884287+530000032+500004032+502913920+531255840+567479743
875+596574719+611820607+613297983+604522111+589960959+573716991+559074687
866+548424703+543372479+544955903+553614207+568855231+589036095+611612991
856+634048319+654896383+673796287+690375999+704033919+715162623+725579455
846+736941695+749137343+760649855+770079167+776991679+781789887+785305535
836+788454335+791953727+796222527+801524287+808123775+816241151+825907903
826+836931903+848934911+861336319+873387519+884315263+893375999+899883199
816+903521791+904600639+903655167+900885439+896190079+889608959+881727231
806+873999615+868652159+867705535+871492351+877735743+881763071+877293567
796+857175743+815173439+750622399+673776703+605171903+565515647+562430079
786+586030271+617590463+642042431+653073279+650964159+641096447+633980095
776+640436159+663435519+696498047+730282879+758380607+777426367+784984703
766+778735039+757392703+723053055+683250175+649341375+630796863+630161279
756+643198847+663183743+684649727+704114687+719242879+728368191+730599679
747+726092159+716242687+703666559+691874559+684460415+683747839+689797183
737+700760575+713982143+726781439+736842815+742289151+741393215+732447743
727+714575615+689439039+662282623+640600191+630977919+636333695+655281535
717+683697343+716664831+749190143+776406399+794832767+804259647+808101823
707+811356991+817881023+828982783+843670911+859741823+874450367+884130623
697+883017855+862148671+811688255+730099839+634182975+555813247+522078624
687+536983935+584034559+643308287+701895807+753193471+794516095+826275967
677+850567615+869371583+883604031+893634239+900642943+906827135+913881535
667+920850687+926277055+931372927+937653247+945446143+954305919+963665343
657+972847295+981135423+988360191+994888639+1001007807+1006684479+1011755839
647+1016168831+1020105087+1023873151+1027748351+1031999807+1036904127
639+1042466239+1048110335+1052879423+1056257343+1058812351+1061659071
630+1065278783+1069135679+1072229119+1073741823+1073475135+1071854271
622+1069640127+1067535871+1066129279+1065578239+1065102207+1063713087
613+1061947327+1061727871+1063848191+1066547327+1067203519+1064463359
605+1058078591+1047517503+1031268415+1007189887+973491775+929318783+874109375
595+806755135+726245119+634818431+541583807+460365760+402901088+375638624
585+378755712+405665472+447315200+496846304+549391551+601131775+648657855
575+687399295+713169343+725855743+729079615+727352127+723971391+718470271
565+704291455+670306751+608339519+523811776+439122432+381703808+365748032
555+385335488+423758400+466648192+506855008+542327423+573522751+602193919
545+630258559+658590847+686651135+712746175+734024063+746342399+744507583
535+723607231+682864831+630484031+583316415+557723327+559589759+583530367
526+618056703+652262783+681766463+707664767+731747647+754346623+774499903
516+791166591+804595327+815879487+825646975+834310335+842865855+851977087
506+861026175+869419711+877538431+885436031+892250111+897661631+902311103
496+906625151+910186367+912375487+913482879+914684095+916361343+916881151
486+913161151+902286655+883468479+859184255+834734207+817018047+811892031
476+820412543+838568255+859566591+874918719+878208639+869048255+852463487
466+837800895+834472703+845149631+864665599+885994047+905825151+923045311
456+935819839+944223359+950567487+956319935+961995711+968366527+975537919
446+981739007+984664959+983886719+981642367+981320063+984454591+989458047
436+992719487+991581951+987179647+982440511+978225663+973385663+967676159
426+962968767+961518207+963594559+967674431+973775807+984538943+998420223
416+1008164095+1012445951+1014169919+1015254975+1015856255+1015695807
408+1015670207+1016905599+1018580927+1018916863+1018328511+1019915967
399+1026705087+1036857471+1042794751+1042111167+1038240127+1032900095
391+1027164159+1023757055+1026125823+1036555199+1053779007+1069490687
382+1073741823+1072582783+1066720511+1063199423+1065892159+1072289983
374+1073741823
##END=
