##TITLE=X8430
##JCAMP-DX=4.24
##DATA TYPE=INFRARED SPECTRUM
##DATE=31/10/2018
##SAMPLING PROCEDURE=Diamant-ATR
##ORIGIN=ComPlat
##XUNITS=1/CM
##YUNITS=TRANSMITTANCE
##RESOLUTION=4
##FIRSTX=3997.453
##LASTX=373.96442
##DELTAX=-1.4165319
##MAXY=0.94307351
##MINY=0.5758087
##XFACTOR=1
##YFACTOR=8.7830565e-010
##NPOINTS=2559
##FIRSTY=0.85750335
##XYDATA=(X++(Y..Y))
3997+976315424+975963418+975848186+975957514+976162325+976285564+976184448
3988+975848322+975406532+975054933+974938548+975023105+975143494+975224998
3978+975409993+975885511+976522950+976850594+976652908+976337480+976309249
3968+976352138+976106609+975723182+975564178+975677646+975926704+976287465
3958+976741605+977143559+977377891+977427227+977221466+976739773+976309859
3948+976308842+976537880+976614497+976738076+977258316+977832303+977871324
3938+977349117+976564686+975773401+975299716+975456072+976103759+976722468
3928+977022288+977133244+977288854+977496380+977578427+977554810+977682461
3918+978103349+978669939+979085194+979126658+978809533+978307413+977625320
3908+976592510+975323807+974341894+974073088+974473345+975395946+976732376
3898+977927243+978232357+977597360+976877807+977229270+978698373+979611201
3888+979015023+978014448+977905459+978284475+978134837+977912246+978325261
3878+978603975+977953710+976909024+976164564+975726236+975714971+976643950
3869+977922765+978266627+977852865+977851101+978432349+978409547+977113564
3859+975031792+972860304+971253575+971635713+975278339+979301202+980495188
3849+979561118+977962329+976512295+975653419+975550742+975884900+976241386
3839+976724979+977532415+978263370+978600107+978826906+979155771+979294891
3829+978975662+978356275+977530108+976355464+975314849+975675949+977356039
3819+978133683+977590778+977536691+978607165+979417791+979059609+977836307
3809+976585452+976323839+977053640+977431842+977194999+977557796+978524576
3799+978583616+977992935+978269478+979461766+980277279+980237647+979949296
3789+979832978+979631221+979070331+978406697+978021573+977931112+978078036
3779+978529733+979074946+979285526+979084108+978753750+978713371+979287019
3769+980240225+980976541+981511846+982102799+982223189+981264281+979749778
3759+978941595+979205244+979356375+978302256+976309384+974986798+976230460
3750+979078000+980391017+980069210+980371880+982126551+982987396+981506485
3740+978794196+976295405+975135758+975976787+978300220+980574180+981720661
3730+981616016+980665728+979563697+979020588+979136091+979308939+979140909
3720+978935284+979063002+979235035+978865249+978076746+978036978+979730844
3710+982014034+982870604+981921944+979952078+978099073+977492783+978336187
3700+979489658+980022995+980098595+980017023+979702952+979186988+979080172
3690+980231539+982235472+983098149+982016545+980008337+978192724+976959786
3680+976020151+975117639+975002067+977034367+980170666+981414870+980897345
3670+980998800+982673936+984214974+984352329+983542789+982635729+981994422
3660+981348703+980492677+979908849+979915432+979552975+978013905+976218583
3650+976163750+978893005+982316704+983980506+983977521+983288573+982726734
3640+982685133+982847869+982548864+981641669+980586124+979644251+978721650
3631+978393396+979975152+982700946+983658699+982563930+981004365+980018652
3621+979971691+980869792+981993064+982410627+982175209+981819131+981402587
3611+980897616+981009862+982373709+984062146+984504546+983541635+982277140
3601+981684287+981727855+981799043+981671257+981567630+981635425+981762465
3591+981904639+982334824+983363426+984627107+985214463+984884580+984128788
3581+983509264+983360576+983701249+984324437+985016914+985569931+985668333
3571+985111176+984195294+983748007+984433154+985670301+986302446+986136182
3561+985725338+985546043+985600537+985547197+985205573+984887838+985066725
3551+985601555+985800394+985497996+985367902+985913794+986682141+987014467
3541+986904257+986682888+986577292+986681734+986909551+986990172+986822482
3531+986694831+986958548+987584247+988159252+988298846+987969778+987518012
3521+987452796+988064854+989173196+990256632+990880295+990999599+990845210
3512+990666594+990621804+990675280+990559981+990118327+989639484+989550176
3502+989800524+989989183+990078423+990415432+991050835+991486517+991330907
3492+990887557+990725703+990916534+991095218+991137090+991247367+991456250
3482+991523299+991300911+990914227+990664558+990838424+991380108+991825494
3472+991846328+991657125+991636766+991830041+992034309+992181301+992434295
3462+992891422+993333075+993489772+993449121+993467037+993522821+993429645
3452+993198978+992966478+992779040+992659940+992661365+992769268+992909813
3442+993001835+992918567+992523739+991772425+990788408+989908223+989499482
3432+989561034+989704022+989647764+989488896+989432976+989557234+989822172
3422+990059354+989987080+989463718+988716748+988131835+987800595+987462093
3412+986932760+986352258+985842402+985248666+984449034+983621849+983001512
3403+982586732+982218710+981805558+981390643+981038093+980664235+980058352
3393+979118514+978009629+977034842+976352342+975858841+975407890+975074003
3383+975006954+975073188+974931083+974444300+973844185+973539412+973838146
3373+974696208+975715378+976562311+977350610+978438389+979914007+981469296
3363+982762498+983721065+984493009+985270993+986195019+987270176+988328231
3353+989182154+989819322+990362160+990935332+991639006+992511388+993443964
3343+994279632+995026330+995806011+996570558+997063313+997132126+996966065
3333+996919782+997135248+997432896+997602011+997683311+997843672+998053369
3323+998096191+997902238+997727354+997937323+998615887+999393125+999729115
3313+999434386+998835968+998379248+998196628+998151974+998171315+998369815
3303+998870442+999576152+1000199679+1000522301+1000552432+1000405101+1000152718
3293+999875700+999701088+999651005+999566447+999337070+999111425+999173519
3284+999670346+1000438897+1001030664+1001023471+1000461699+999877329+999734816
3274+999962158+1000128015+999962701+999590132+999336052+999414569+999774177
3264+1000193436+1000515311+1000762469+1000998429+1001181388+1001268253
3255+1001330687+1001362922+1001164558+1000674993+1000177895+999891648+999679236
3245+999456238+999500281+999996700+1000678454+1001240701+1001698167+1002032732
3235+1001949261+1001354643+1000705871+1000527255+1000816827+1001139924
3227+1001131237+1000801694+1000472286+1000446158+1000696098+1000911564
3218+1000836440+1000495902+1000138670+1000023710+1000192621+1000434893
3210+1000520129+1000404354+1000185292+999997107+999982042+1000183256+1000417859
3200+1000401436+1000086822+999802001+999939424+1000504249+1001079051+1001260720
3190+1001030393+1000652462+1000360040+1000252137+1000341513+1000518500
3182+1000583378+1000499567+1000521554+1000885505+1001436147+1001740242
3173+1001527219+1000919436+1000303917+1000041829+1000228724+1000646898
3165+1000954997+1000970334+1000799318+1000679811+1000694741+1000648323
3156+1000243111+999417148+998555625+998260352+998783917+999758229+1000593489
3146+1001037111+1001243890+1001440558+1001648016+1001700406+1001483855
3138+1001102396+1000779774+1000689109+1000883333+1001236697+1001469807
3129+1001356408+1000869693+1000129916+999403101+999057405+999211591+999485690
3119+999397129+998922222+998451523+998291908+998380877+998450505+998312471
3109+997918525+997273214+996468152+995739030+995279121+994999117+994630620
3099+994056090+993401957+992816976+992294632+991751523+991133289+990366910
3089+989399995+988394941+987623947+987052946+986334138+985348697+984455549
3080+984052238+984086034+984113451+983765991+983028114+982033104+980789646
3070+979334252+977951606+976877467+975916389+974672863+973078213+971491300
3060+970342783+969746944+969412650+968996309+968522624+968296164+968462429
3050+968811721+968950773+968598630+967810128+966878909+965941650+964822042
3040+963326405+961445915+959228349+956754531+954329779+952437209+951382276
3030+951080692+951230466+951621086+952238438+953105594+954077124+954872956
3020+955373040+955830370+956638010+957832946+958966058+959556468+959553957
3010+959279722+959069481+959088687+959375544+959945935+960826188+962004226
3000+963448355+965199023+967255414+969328363+970979950+972079470+972853315
2990+973493740+974046282+974614433+975317428+976052047+976588370+976895383
2980+977186177+977613783+978052044+978222720+977964229+977298423+976316646
2970+975115399+973795256+972422315+971034241+969754477+968790140+968201902
2961+967776671+967246795+966518148+965607016+964545296+963451477+962491009
2951+961669525+960837114+959889676+958783506+957435403+955838785+954159578
2941+952505344+950717623+948582239+946134142+943578481+940966630+938133069
2931+934998535+931807539+928944322+926589197+924690927+923231257+922367901
2921+922288976+922992921+924249545+925801305+927606874+929816907+932490582
2911+935456476+938479578+941384871+943977720+946061121+947658078+949054364
2901+950475284+951771743+952539886+952592073+952264022+952151709+952564521
2891+953368496+954331882+955449793+956873699+958677978+960765654+962904432
2881+964806570+966272754+967335017+968191247+968958102+969581222+970024640
2871+970382211+970712637+970874695+970609689+969753187+968364434+966652517
2861+964734567+962480965+959674414+956285529+952568185+948986569+946059900
2851+944134077+943266514+943391789+944474683+946396501+948868894+951588173
2842+954339008+956941495+959341138+961710039+964185825+966563752+968523777
2832+970045881+971334536+972476877+973451257+974351734+975328422+976326282
2822+977099312+977525833+977784459+978154517+978731694+979389899+979935723
2812+980267031+980453044+980668307+981021399+981515715+982141346+982823032
2802+983290541+983275476+982895238+982606141+982703592+983066932+983437940
2792+983736810+984018306+984295256+984539564+984762019+984974160+985130584
2782+985168181+985067268+984843930+984546214+984278630+984188236+984382325
2772+984827372+985340350+985728595+985954647+986126545+986345336+986611631
2762+986846234+986945315+986873244+986733514+986671894+986684584+986628122
2752+986427925+986194205+986149211+986464979+987066518+987607185+987806974
2742+987770531+987770396+987835476+987826451+987796726+987972764+988389512
2732+988783525+988896111+988751358+988561613+988453982+988418421+988454660
2723+988608913+988862383+989133360+989377329+989598020+989775754+989860786
2713+989834727+989741822+989679659+989776500+990104551+990547155+990839442
2703+990845481+990709891+990668698+990832248+991162538+991476541+991540129
2693+991371082+991301862+991532054+991856983+992030848+992099254+992180962
2683+992212450+992092604+991896208+991822169+992009403+992430359+992905876
2673+993233656+993344951+993331990+993306202+993258154+993123921+992965596
2663+992946527+993085103+993190902+993123921+992969125+992888436+992974622
2653+993282042+993796378+994332972+994681382+994836653+994862780+994628177
2643+994001460+993236845+992821794+992962407+993478981+994109431+994656747
2633+994945098+994922432+994769943+994722575+994809100+994858708+994731193
2623+994509552+994456415+994714363+995073699+995166468+994862305+994358556
2614+993937601+993739508+993694922+993632420+993510131+993516917+993874895
2604+994575515+995346984+995842996+995891519+995614297+995300159+995187641
2594+995381527+995854940+996437207+996926025+997267785+997478228+997386817
2584+996779441+995862609+995220759+995155746+995386277+995549488+995672795
2574+995947913+996314239+996567843+996771365+997231681+997984963+998618195
2564+998777877+998562479+998233071+997895180+997626713+997541273+997623184
2554+997793928+998065313+998362622+998419152+998110171+997671435+997428756
2544+997469678+997598957+997529940+997221027+997023613+997338430+998204772
2534+999341956+1000358954+1000816148+1000481719+999722126+999266492+999409955
2524+999735970+999705296+999273889+998894330+999074439+999927208+1001059710
2514+1001910171+1002180199+1001916211+1001344531+1000813027+1000741363
2506+1001278568+1001995950+1002272425+1002013188+1001627589+1001378599
2497+1001230725+1001154718+1001072196+1000758940+1000258041+1000018213
2489+1000313825+1000942917+1001594947+1002092045+1002335334+1002381617
2480+1002434007+1002579574+1002700778+1002635561+1002299570+1001791411
2472+1001406966+1001352879+1001504621+1001607366+1001565087+1001421149
2463+1001239886+1001071178+1000903285+1000690669+1000521215+1000633325
2455+1001107350+1001637768+1001805458+1001535838+1001086923+1000639908
2446+1000197100+999915061+1000183799+1001129473+1002253966+1002902128
2438+1003011184+1003092891+1003510182+1004088377+1004418192+1004272015
2429+1003706986+1002986007+1002446630+1002349789+1002704714+1003155190
2421+1003228075+1002852316+1002459049+1002456674+1002834740+1003301299
2412+1003544657+1003399226+1002997611+1002701117+1002780246+1003256985
2404+1004003141+1004812613+1005443809+1005773624+1005903786+1006026482
2395+1006182636+1006193765+1005844609+1005131231+1004326373+1003790729
2387+1003676854+1003759648+1003576892+1002776038+1001350571+999615037+997939834
2377+996356110+994443114+991871302+989002384+986553676+984708543+982990925
2367+981026624+979130119+978093169+978411176+979662845+980787678+981084308
2357+980878479+981236932+983074193+986253246+989455846+991270577+991211468
2347+989690517+987620621+985902189+984786111+984102932+984017356+984742814
2337+985888481+986699107+986725777+986100825+985422260+985339875+985977585
2327+986884170+987652585+988313776+989135803+990258465+991501651+992494015
2317+993129282+993822166+995008754+996459127+997529669+998082550+998614259
2308+999475714+1000546256+1001677061+1002860799+1003901074+1004465696
2299+1004576924+1004638408+1004932052+1005424739+1005975517+1006436308
2291+1006706404+1006902325+1007277202+1007904122+1008636705+1009259893
2282+1009512141+1009260979+1008824211+1008753023+1009199834+1009831437
2274+1010297997+1010495614+1010496429+1010468605+1010558727+1010749762
2265+1010931432+1011097222+1011308752+1011505148+1011524828+1011294500
2257+1010885014+1010503554+1010463447+1010847621+1011197252+1010978936
2248+1010337222+1009940561+1010172246+1010791362+1011224398+1011097018
2240+1010674366+1010558184+1010876938+1011334064+1011902351+1012576097
2231+1012763196+1012034684+1011098783+1011028476+1011924271+1013073467
2223+1014035292+1015001053+1016271317+1017722368+1018763933+1018726133
2214+1017418816+1015469852+1013905605+1013128300+1012569175+1011665644
2206+1010820001+1010956270+1012325003+1014079267+1015057991+1014949952
2197+1014463848+1014317874+1014646197+1015515185+1017093412+1018950285
2189+1020046683+1019850084+1018936713+1018193814+1017727119+1016814494
2180+1014929593+1012570193+1010925935+1010809210+1011808157+1012557706
2172+1012312788+1012047443+1013149541+1015291711+1016715889+1016525397
2163+1015589495+1015254522+1016180923+1018137216+1020108167+1021034636
2155+1020826092+1020362111+1020370730+1020580427+1020360754+1019879061
2146+1019799322+1020179017+1020579274+1020810009+1020770919+1020255091
2138+1019502488+1019128019+1019230357+1019427635+1019665360+1020077357
2129+1020384167+1020213559+1019707503+1019271142+1018957004+1018526208
2121+1017951949+1017543752+1017627631+1018282918+1019262252+1020014516
2112+1020039761+1019415963+1018691591+1018193271+1017811405+1017498962
2104+1017523122+1018052048+1018742420+1019022017+1018845776+1018892601
2095+1019715104+1020994257+1022008202+1022401876+1022097306+1021004844
2087+1019338327+1017867188+1017321432+1017616094+1018076275+1018411180
2078+1018924090+1019664613+1020145424+1020148139+1019976513+1019713203
2070+1019137316+1018506460+1018529194+1019497806+1021028053+1022541267
2061+1023643569+1024277615+1024705289+1025034901+1024818960+1023572381
2053+1021582699+1019808619+1019100738+1019671128+1021092048+1022578185
2044+1023240530+1022520976+1020890766+1019736141+1019934505+1021083973
2036+1022501567+1023879801+1024443202+1023150882+1020607844+1019199682
2027+1020493834+1023416771+1025401294+1025033340+1023355354+1022323223
2019+1022316301+1022117326+1021151225+1020386339+1020763862+1021946853
2010+1022788425+1022539774+1021551754+1020785035+1020830843+1021783235
2002+1023514697+1025455314+1026632197+1026658393+1026274626+1026318059
1993+1026487377+1025792662+1024298110+1023416295+1023969652+1024953669
1985+1024960048+1024227125+1024195637+1025329020+1026463897+1026385718
1976+1025099846+1023416295+1022246402+1022134020+1022731013+1023413106
1968+1024407166+1025908776+1026747293+1026023668+1024804438+1024337946
1959+1024100085+1023195536+1022107757+1021794975+1022302253+1022874476
1951+1022773970+1021871389+1020720022+1020037182+1020139792+1020752664
1942+1021047191+1020346571+1019055812+1018202908+1018200261+1018618841
1934+1018986321+1019195204+1019222281+1019081397+1019025410+1019361808
1925+1020056727+1020695456+1020934266+1020985028+1021409580+1022384028
1917+1023314569+1023443441+1022686087+1021674925+1021258449+1021780317
1908+1022641569+1022935620+1022445716+1021682187+1021208569+1021261503
1900+1021758736+1022340256+1022567462+1022352675+1022067718+1022101378
1891+1022490505+1022959033+1023190311+1023186986+1023261092+1023653545
1883+1024330820+1025081659+1025641666+1025827611+1025727920+1025597962
1874+1025518291+1025413917+1025375371+1025626532+1026101236+1026399223
1866+1026410488+1026388229+1026408181+1026238794+1025745225+1025143143
1857+1024755576+1024750283+1025122445+1025681637+1026122477+1026300957
1849+1026319077+1026332989+1026497421+1026993026+1027799852+1028672980
1840+1029482588+1030169025+1030593713+1030691096+1030561749+1030365692
1832+1030346894+1030782440+1031574200+1032304137+1032840121+1033263723
1823+1033497512+1033476135+1033359885+1033332808+1033431277+1033616747
1815+1033839203+1033995696+1033937265+1033574672+1032997224+1032419369
1806+1032007100+1031815929+1031829434+1031908495+1031793738+1031394431
1798+1030914163+1030471084+1029977515+1029556152+1029681020+1030399760
1789+1031084092+1031376990+1031426937+1031480074+1031634191+1031870830
1781+1032130272+1032317710+1032332165+1032117242+1031746573+1031534772
1772+1031843007+1032549870+1033279874+1033944459+1034448479+1034573958
1764+1034371861+1034239053+1034475488+1035000614+1035631606+1036133387
1755+1036151710+1035605275+1034911985+1034743073+1035381598+1036267552
1747+1036788063+1036946660+1037052594+1037325268+1037761357+1038080857
1738+1037927962+1037351871+1036948288+1037451698+1038620099+1039504560
1730+1039872786+1039895995+1039770855+1039751853+1039947367+1040109425
1721+1039934813+1039480604+1039161715+1039418781+1040163512+1040936949
1713+1041492206+1041824328+1042072029+1042422474+1042983907+1043655481
1704+1044190786+1044596269+1045246534+1046258578+1046980168+1047208731
1696+1047547912+1048113416+1048518966+1048749362+1048987833+1049151994
1687+1049136114+1049291182+1050174965+1051477938+1052351134+1052661608
1679+1052567686+1052302273+1052270988+1052698255+1053260433+1053624248
1670+1053953113+1054565647+1055306713+1055856473+1056240511+1056669474
1662+1057264906+1057953310+1058525262+1058744596+1058574530+1058505513
1653+1059421531+1060729119+1061195340+1061163783+1061493666+1062643880
1645+1063975628+1064870879+1065390847+1065625111+1065582832+1065549715
1636+1066103343+1067185354+1067878373+1067869958+1067464544+1067052071
1628+1066840541+1066644688+1066167406+1065344972+1064256106+1062923884
1619+1061195883+1058718604+1055348924+1051490018+1047152201+1041695117
1611+1034497748+1025139953+1013424455+999536791+983923637+967003845+949033258
1601+929803470+908617185+885146896+860305431+836208221+815064622+797732765
1591+783711003+772587883+764944042+762060602+765247051+775046228+790190990
1581+807544971+824594382+842316386+863698116+886210788+903016570+914215697
1571+924150057+934580769+943006937+947478105+949009303+948786440+947317473
1561+945343807+944880437+947861939+951332057+953240574+954878521+957651276
1551+962449137+969203156+976649854+983727309+990587330+997448776+1004036326
1541+1011401385+1020732305+1028621540+1032788409+1035065898+1037637304
1533+1041154247+1044326920+1046263193+1047344254+1047900936+1047824522
1524+1046857539+1044294617+1039349221+1032487843+1024137953+1013908931
1516+1003173377+994572597+988837612+985048334+981873693+976330694+962080844
1506+937706616+912017336+887076587+860142288+830657960+800605415+773316734
1496+752541700+739430323+731344625+724454134+714889831+700497401+683779977
1486+669166448+659342976+655590344+658038645+665388163+675958809+688975584
1476+704336559+722519828+744311453+767133173+785672725+799306988+811360309
1466+824722712+839221687+851323191+858753331+862786171+866218013+871831455
1456+879116299+884249405+886537278+887503786+888776492+892160152+898813055
1446+907449734+914949027+918772576+917579541+911194155+900434782+886728313
1436+873503401+865490045+863629032+866405723+873265676+883351303+894320713
1426+904561340+914148512+922975345+930124192+935322310+938978102+940625210
1417+939569462+936551992+932979944+930306608+929867940+932107630+936361025
1407+941784246+947620346+952605307+955589591+956427770+955511074+953450950
1397+951290321+950268233+951108991+953446403+956477853+960061981+964578821
1387+969836184+974744187+978546020+981303981+983304182+984818346+986155590
1377+987709319+990022911+993425302+997417627+1001229571+1004749908+1008145851
1367+1011254054+1013906827+1016380780+1019099516+1021983635+1024477201
1358+1026289149+1027603795+1028660493+1029439088+1029769514+1029524120
1350+1028586454+1026788554+1023924727+1019857820+1014678907+1008593409
1341+1001579542+993449393+984316837+974665670+964916576+955272467+945752751
1332+936080953+925721294+914307312+902242861+890876995+881826145+875799892
1322+871897757+867971192+861825227+852558709+841014158+829169856+819479328
1312+814290371+815052679+821864245+833485346+847633265+861831064+874319863
1302+884075675+890239284+891973528+888927352+881681597+871697629+860855123
1292+850870476+842695470+836130586+830061307+823242343+815026891+805611480
1282+795809657+786550603+778430973+771578689+765764847+760663434+756203124
1272+752723913+750736471+750599251+752490599+756518484+762661463+770621071
1262+779824612+789560269+799149138+808122623+816245375+823347871+829268461
1252+833982104+837635045+840475189+842922472+845570630+848818157+852546562
1242+856374726+860140591+863992711+868152726+872720192+877643939+882816338
1232+888149708+893492918+898539905+902953321+906609384+909713651+912672148
1222+915778655+919016341+922216498+925324905+928395783+931438295+934379622
1213+937115324+939548560+941611805+943244730+944377367+945024850+945394569
1203+945830115+946638705+947893699+949296025+950263890+950281942+949230876
1193+947452181+945561648+944116365+943252127+942478351+940826288+937366350
1183+931744629+924310079+915821341+907120801+899057905+892639742+889087509
1173+889446302+893932468+901721740+911387633+921450662+930648503+938081968
1163+943330780+946339360+947107097+945630936+942278290+938123364+934807364
1153+934031959+936896805+943223217+951414986+959377648+965768802+970331857
1143+973330121+975081332+975884968+975991649+975647515+975327404+975770618
1133+977551756+980581917+984084337+987057560+988773685+988943411+987618518
1123+985106764+981976845+979023438+977025341+976298187+976407990+976489697
1113+976000471+975141798+974557563+974776083+976011940+978289701+981479408
1103+985183857+988756109+991453943+992584680+991779415+989500025+987252735
1094+986857975+989166953+993487057+998257841+1002095642+1004188543+1004119798
1084+1001714590+997020830+990276856+981984446+973172747+965533792+961008605
1074+960876543+965029025+972136815+980565019+989110966+997047772+1003920823
1064+1009598531+1014342373+1018503338+1022181185+1025339471+1028041920
1055+1030318527+1032030038+1033160910+1034025148+1034947274+1035950360
1047+1036890876+1037685419+1038360047+1039059581+1039976277+1041080004
1038+1041890223+1041537606+1039010787+1033416822+1024371606+1012647625
1030+1000602583+991498190+987768835+989657604+995340130+1002090959+1007469119
1020+1010186905+1010625301+1010602635+1012171768+1016164975+1021722973
1011+1027239641+1031687939+1034968583+1037212344+1038173084+1037370058
1003+1034558282+1030039134+1024842577+1020613273+1018841161+1019927448
994+1023074672+1027001509+1030580140+1033119106+1034573619+1035490451
986+1036458248+1037601675+1038667264+1039408398+1039750225+1039737806
977+1039493702+1039201347+1038999997+1038830203+1038419902+1037497777
969+1036029624+1034188427+1032100344+1029685160+1026781293+1023419281
960+1020006033+1017274064+1015939805+1016256183+1017898473+1020335373
952+1023203476+1026248295+1029085588+1031252189+1032434299+1032518856
943+1031497040+1029511091+1027044806+1024932835+1024031883+1024816314
935+1027227561+1030756856+1034618408+1038047333+1040640251+1042405984
926+1043450399+1043706447+1043054960+1041678694+1040211220+1039351325
918+1039146514+1038693662+1036698280+1032323614+1025546318+1017036339
909+1007941039+999582192+993059926+988985147+987366949+987569928+988558084
899+989462090+989951451+990063833+989879788+989401420+988546208+987184261
890+985357112+983527248+982429086+982491859+983418260+984402819+984754554
880+984348189+983665350+983498813+984474686+986722112+989994205+994050525
870+998807804+1004155697+1009800017+1015358421+1020493902+1024868025+1028141950
860+1030210285+1031278656+1031568364+1031161049+1030207842+1028952576
851+1027393962+1025106225+1021335745+1015082761+1005355994+991844292+975480910
841+958315385+942891366+931558752+925763912+925401794+928712365+933129582
832+936735630+939202525+941495827+944860417+950010964+956839428+964586896
822+972403246+979865688+986927602+993472738+999107421+1003365227+1006005445
812+1007184365+1007395216+1007113990+1006447574+1005234315+1003450191
803+1001336388+999124929+996760575+993944319+990599070+987538439+986559377
793+989364163+996075428+1004944200+1013683557+1021065649+1027252671+1032890068
783+1038208712+1042910818+1046620018+1049321720+1051299390+1052614036
775+1052873613+1051714849+1049257997+1045785300+1041184378+1034992335
766+1026804638+1016333140+1003109993+986352462+965267022+939700234+910732821
756+880688826+852397873+828063821+808381385+792613842+779706870+769506079
747+763157882+762585252+769351825+783470428+802946356+824561876+845536156
737+864702831+882235225+898678753+914416911+929474469+943280019+954844521
727+963558497+969679623+973679074+974917849+971214486+960857406+946312351
717+935203618+935741026+950341525+973755285+997466217+1014924979+1022410495
707+1017324486+997877196+964625782+921375945+873712962+826512468+782636796
697+743475310+710549640+686691648+675785690+680900608+701604250+732815357
687+766929719+797717360+822818741+843159790+860635042+876599524+891694136
677+905854813+918437264+928704765+936189670+941061299+944820514+950581965
667+959495323+967714169+973024466+976483250+979602379+983391997+988131903
657+993421365+998578563+1003045251+1006456803+1008491953+1008740332+1006772096
647+1002512797+996387191+988917352+980581510+972314820+965831576+963087255
637+965279576+972107430+981628775+991332739+1000042711+1007900254+1013349127
628+1011288325+997134773+973879881+952298293+941538581+941168590+944486084
618+948245502+955933047+970883110+990253103+1008103640+1021365266+1030480585
608+1035885686+1036266806+1030093289+1017733837+1002296313+988907444+982339031
598+984090513+991727025+1001229164+1009678474+1015951070+1019837936+1021551618
588+1022044237+1022696063+1024234115+1026457789+1029209710+1032963564
579+1038071221+1043860496+1048859640+1051991052+1053384080+1053660419
571+1052883589+1050827809+1047712480+1043911122+1039490784+1034933837
562+1031769375+1031491475+1033982326+1037752060+1041668718+1045779736
554+1050430470+1055381430+1060102606+1064362516+1068194073+1071442889
545+1073484146+1073741823+1072811690+1072367525+1073068281+1073044528
537+1069604474+1062234868+1052853118+1043364619+1034191549+1025214739
528+1017172201+1011807750+1010537282+1012368911+1013419908+1008752548+994931797
518+972444914+945807788+919922993+897105888+878293729+864808494+857681228
509+856426030+859156235+863514411+867798140+871757959+876507230+883552789
499+893612832+906005469+918608686+928505383+933388819+933180344+930571003
489+929210346+931399884+937548902+946388629+955279185+961654798+964901171
479+966572099+968834794+972485564+976473206+979572180+981900160+983994351
469+985523920+986186740+986437630+986588286+986484252+986479705+987547533
459+989870558+991643689+990430362+986246120+981554736+978888458+978935352
449+980335030+981417313+981747467+982131573+983338724+985024175+986392501
439+987495414+989070587+991488214+994102101+995742152+996215430+996881575
429+998867863+1000926426+1000467874+996896980+992749859+990438099+989284899
419+987339803+985221182+984406280+983251452+979768712+974943502+972516917
409+975144852+981381210+987252735+990157077+990699915+991471859+995298055
399+1003378324+1011882806+1014205425+1011680778+1010062986+1010143133
391+1009188705+1005898628+1002033139+1000444462+1002051870+1004124412
382+1003948172+1003473400+1005800159+1010013921+1011697336+1009052300
374+1007402613
##END=
