##TITLE=chs- 303
##JCAMP-DX=4.24
##DATA TYPE=INFRARED SPECTRUM
##DATE=24/10/2019
##SAMPLING PROCEDURE=Diamant-ATR
##ORIGIN=Marie
##XUNITS=1/CM
##YUNITS=TRANSMITTANCE
##RESOLUTION=4
##FIRSTX=3997.453
##LASTX=373.96442
##DELTAX=-1.4165319
##MAXY=0.92945004
##MINY=0.81753731
##XFACTOR=1
##YFACTOR=8.656178e-010
##NPOINTS=2559
##FIRSTY=0.89348674
##XYDATA=(X++(Y..Y))
3997+1032195431+1032642318+1033164881+1033410015+1033391768+1033352519
3989+1033326560+1033083835+1032519200+1031932324+1031785932+1032235988
3980+1033002927+1033646474+1033836797+1033424200+1032477955+1031356328
3972+1030583467+1030479422+1030900764+1031400535+1031622326+1031533155
3963+1031412378+1031623359+1032237640+1032944536+1033428882+1033573828
3955+1033252744+1032363513+1031217648+1030480455+1030514746+1030992276
3946+1031372716+1031544723+1031726095+1031983417+1032131186+1032033201
3938+1031704611+1031233072+1030885133+1031092120+1031922202+1032688040
3929+1032674406+1032051517+1031513944+1031424635+1031525856+1031403220
3921+1031100176+1031072840+1031613856+1032399732+1032793462+1032582205
3912+1032068732+1031590238+1031221642+1030910817+1030763668+1031049979
3904+1031846390+1032807784+1033615419+1034322452+1034856445+1034789928
3895+1033915019+1032652854+1031850728+1031983830+1032437191+1032467075
3887+1032230686+1032127812+1031958077+1031499828+1031233416+1031468842
3878+1031666739+1031568617+1031707159+1032276270+1032685974+1032738582
3870+1033087760+1033828327+1034252217+1034275422+1034425808+1034737665
3861+1034589621+1033650054+1032120926+1030363603+1028939277+1029001800
3853+1031282306+1033692608+1034373475+1033914055+1033218246+1032658982
3844+1032261396+1032014678+1032015367+1032341960+1032852197+1033188293
3836+1033174108+1033030815+1033008023+1033101876+1033162471+1033164606
3827+1033125632+1032780103+1031925645+1031239407+1031969439+1033881554
3819+1034854173+1034321694+1033630085+1033604814+1033764496+1033566667
3810+1033031021+1032549016+1032671583+1033361953+1033825160+1033861723
3802+1034011627+1034259102+1034040961+1033587256+1033484107+1033605021
3793+1033419380+1032857431+1032256301+1031948024+1032083261+1032486562
3785+1032617254+1032097997+1031392960+1031480066+1032673787+1033984428
3776+1034309024+1033697015+1032851647+1032427895+1032846620+1033910681
3768+1034668050+1034468981+1033672984+1032989294+1032716823+1032832229
3759+1033274710+1033763394+1033791419+1033189119+1032379901+1032176701
3751+1033038251+1033874600+1033386604+1032274824+1032323162+1034175578
3742+1035752424+1035395327+1033734749+1031998703+1031279069+1032239155
3734+1034476762+1036721324+1037970200+1037932466+1036874946+1035519202
3725+1034760113+1034914217+1035413988+1035528636+1035029829+1034190727
3717+1033357339+1032692998+1032419081+1033048924+1034699105+1036169221
3708+1036366086+1035653544+1034825597+1034371547+1034494321+1034971920
3700+1035219602+1034981078+1034496869+1034030494+1033629259+1033248819
3691+1033054364+1033588702+1035073692+1036486725+1036871503+1036534168
3683+1036236564+1036249510+1036151387+1035499578+1034594441+1034169587
3674+1034045230+1033375173+1032501711+1032653060+1034227910+1035967674
3666+1036822958+1036823578+1036320502+1035569056+1034727199+1034076836
3657+1034077800+1034720726+1035023288+1034175027+1032512590+1031269842
3649+1031742139+1033467099+1034867600+1035656230+1036272852+1036819929
3640+1037015692+1036663277+1035955555+1035278406+1034793922+1034264060
3632+1033513509+1033089895+1034021818+1036097402+1037645260+1038047734
3623+1037566693+1036473849+1035389268+1035187376+1035857983+1036562607
3615+1036998133+1037261515+1037291468+1037315430+1037895076+1038904258
3606+1039379033+1038863701+1037793167+1036690476+1035869138+1035461706
3598+1035331358+1035321029+1035581243+1036132451+1036388672+1035947223
3589+1035420942+1035793464+1036834802+1037254422+1036859729+1036497123
3581+1036638970+1037018171+1037144663+1036836661+1036291444+1035839461
3572+1035640943+1035616636+1035683911+1035928287+1036365053+1036621756
3564+1036371664+1035836431+1035534007+1035741820+1036217560+1036509655
3555+1036453811+1036212946+1035966986+1035724399+1035465011+1035343064
3547+1035554802+1036033915+1036498844+1036734201+1036551796+1035786440
3538+1034673558+1033917223+1034006532+1034673421+1035314075+1035618358
3530+1035635159+1035604173+1035767573+1036099055+1036266931+1036065177
3521+1035776662+1035826171+1036195456+1036464002+1036369116+1036069171
3513+1035864663+1035947292+1036384333+1037007635+1037372720+1037175649
3504+1036641036+1036266724+1036221622+1036225960+1036015944+1035577319
3496+1035070455+1034790961+1035003319+1035613676+1036209779+1036497742
3488+1036452365+1036103255+1035570226+1035228278+1035362964+1035704224
3479+1035785476+1035641701+1035635228+1035764061+1035642665+1035111288
3471+1034432624+1033920804+1033749141+1034006876+1034577984+1035077341
3462+1035195157+1034990374+1034682372+1034365970+1034089850+1034018926
3454+1034349582+1035067563+1035868656+1036370286+1036390531+1036018491
3445+1035516655+1035212165+1035367715+1035968363+1036661624+1037051360
3437+1037067473+1036976787+1037005019+1037024574+1036770971+1036299982
3428+1035987643+1036046723+1036281460+1036392528+1036307144+1036085559
3420+1035719786+1035229379+1034805834+1034644707+1034716526+1034846598
3411+1034984796+1035256372+1035686734+1035996112+1035882910+1035465149
3403+1035156046+1035149160+1035326194+1035552805+1035762891+1035881395
3394+1035884700+1035844143+1035844625+1035929114+1036079086+1036252471
3386+1036494988+1036856423+1037151135+1037120425+1036846577+1036645443
3377+1036540848+1036205509+1035499303+1034793647+1034546240+1034716663
3369+1034928608+1035075757+1035268973+1035327709+1034997948+1034548581
3360+1034483855+1034834135+1035233511+1035418463+1035272140+1034768031
3352+1034188385+1034025674+1034434415+1035053930+1035455647+1035481813
3343+1035166581+1034713014+1034544381+1034931294+1035558520+1035905082
3335+1035984062+1036208126+1036654532+1036988286+1036988768+1036714645
3326+1036285247+1035841595+1035583309+1035594671+1035731147+1035789676
3318+1035693895+1035501437+1035349674+1035388304+1035684599+1036185816
3309+1036743014+1037111611+1037039999+1036514957+1035867624+1035506946
3301+1035552392+1035767986+1035811367+1035548880+1035182212+1035037404
3292+1035206106+1035501368+1035795874+1036179963+1036655840+1036958953
3284+1036946834+1036933062+1037286166+1037846463+1038102545+1037846325
3275+1037290228+1036626576+1035909627+1035369299+1035389336+1036026410
3267+1036848711+1037428908+1037777329+1038121688+1038473621+1038633302
3258+1038505502+1038227936+1038008416+1037941005+1037987277+1038065706
3250+1038130570+1038149506+1038029349+1037698143+1037339324+1037358811
3241+1037905061+1038565890+1038779005+1038428312+1037842469+1037355919
3233+1037100318+1037110509+1037358811+1037669222+1037812034+1037764728
3224+1037725410+1037839439+1038075897+1038354703+1038552669+1038466322
3216+1038064467+1037703996+1037794062+1038304368+1038820183+1039004791
3207+1038840840+1038506190+1038162727+1037852729+1037546449+1037318735
3199+1037417409+1037959940+1038616088+1038926086+1038908872+1038920302
3190+1038980966+1038784032+1038362622+1038206314+1038630617+1039400655
3182+1040067750+1040432284+1040568416+1040534401+1040244509+1039659561
3173+1038947639+1038396362+1038233926+1038479818+1038899025+1039194976
3165+1039279947+1039258532+1039224792+1039193599+1039142851+1039020215
3156+1038769021+1038393677+1038022670+1037886676+1038106539+1038494898
3148+1038784376+1039006719+1039365744+1039805608+1040020583+1039865584
3139+1039529626+1039290620+1039173699+1038918512+1038385138+1037867602
3131+1037754193+1038006764+1038266289+1038311598+1038161901+1037912704
3122+1037696972+1037652903+1037738975+1037709298+1037430354+1037116293
3114+1037049845+1037137433+1037036487+1036719396+1036572384+1036865857
3105+1037433935+1037918213+1038068805+1037846807+1037462167+1037252219
3097+1037362047+1037610831+1037748134+1037707301+1037518010+1037141702
3088+1036610807+1036200896+1036160201+1036344740+1036440797+1036415320
3080+1036393216+1036329936+1036184095+1036131212+1036258048+1036321260
3071+1036058085+1035503572+1034889428+1034395648+1034045712+1033752102
3063+1033413665+1032939716+1032243493+1031330575+1030359609+1029532281
3054+1028980041+1028807965+1029146126+1030042312+1031281342+1032416051
3046+1033134721+1033508413+1033743907+1033901523+1034021130+1034245606
3037+1034587348+1034825459+1034784902+1034496525+1034049774+1033490648
3029+1032848686+1032130084+1031343383+1030590765+1030062625+1029896333
3020+1030097054+1030609426+1031395990+1032389541+1033420551+1034266746
3012+1034787036+1034986311+1034973641+1034879650+1034806523+1034823255
3003+1034958286+1035154118+1035289630+1035303884+1035271107+1035295827
2995+1035400078+1035583516+1035910866+1036381373+1036771315+1036842927
2986+1036721462+1036761537+1036971692+1036920048+1036364571+1035640874
2978+1035193229+1034957184+1034483235+1033551863+1032358555+1031118630
2969+1029820865+1028469184+1027247438+1026260910+1025362039+1024413728
2961+1023507144+1022766784+1022118968+1021418477+1020738780+1020400963
2952+1020673847+1021488781+1022483365+1023299813+1023808466+1024061244
2944+1024070677+1023713029+1022916206+1021859994+1020792076+1019700127
2935+1018388590+1016810849+1015104481+1013393430+1011790280+1010477572
2927+1009552466+1008830835+1008001510+1007017324+1006216506+1005976399
2918+1006327781+1007027584+1007926937+1009071838+1010482874+1012011658
2910+1013406100+1014439106+1015056142+1015442986+1015878857+1016536657
2901+1017458113+1018574645+1019683395+1020583299+1021283171+1021919418
2893+1022511459+1022993946+1023404959+1023838007+1024280556+1024674837
2884+1025057343+1025502234+1025970950+1026305599+1026349255+1026039601
2876+1025414509+1024597854+1023810670+1023297747+1023117753+1023043111
2867+1022785651+1022269148+1021577607+1020745804+1019765129+1018692047
2859+1017585156+1016430340+1015253214+1014188739+1013359759+1012862053
2850+1012898066+1013662802+1015024812+1016544644+1017846059+1018817093
2842+1019541685+1020226546+1021101248+1022225010+1023427131+1024498561
2833+1025412856+1026316892+1027276909+1028078484+1028425803+1028374573
2825+1028380977+1028828416+1029626823+1030355684+1030728757+1030838998
2816+1030947725+1031144108+1031325617+1031444259+1031576398+1031768305
2808+1031988650+1032225728+1032487870+1032745468+1032964023+1033151385
2799+1033333101+1033541809+1033809185+1034068710+1034138808+1033940703
2791+1033655838+1033521290+1033547318+1033551587+1033408501+1033174659
2782+1033000862+1032953281+1032938201+1032824103+1032605824+1032395532
2774+1032300852+1032348089+1032482086+1032590262+1032553492+1032305121
2765+1031876687+1031412929+1031093015+1030995857+1031055074+1031150994
2757+1031241060+1031387176+1031628868+1031853000+1031898997+1031786552
2748+1031728574+1031915798+1032381691+1033028336+1033665272+1034052116
2740+1034041580+1033732339+1033401546+1033251711+1033302597+1033519637
2731+1033880384+1034268329+1034502997+1034547479+1034546722+1034615373
2723+1034712325+1034764244+1034796470+1034876414+1034991062+1035086706
2714+1035185448+1035348504+1035549156+1035693482+1035731009+1035679573
2706+1035615397+1035643009+1035790985+1035954247+1036020901+1035983649
2697+1035871686+1035674133+1035409099+1035199702+1035202318+1035459572
2689+1035848206+1036164126+1036260940+1036147049+1035977314+1035898265
2680+1035907148+1035941852+1036044726+1036297986+1036649505+1036941807
2672+1037068575+1037008186+1036770902+1036402443+1036022278+1035774252
2663+1035715103+1035795598+1035966986+1036199932+1036350800+1036194148
2655+1035693000+1035101028+1034743243+1034824082+1035361449+1036091136
2646+1036544015+1036483764+1036194423+1036113446+1036309141+1036548560
2638+1036756097+1037111267+1037716183+1038357457+1038659537+1038448212
2629+1037934463+1037484545+1037244438+1037132062+1037101007+1037162910
2621+1037237690+1037261721+1037372514+1037723551+1038202596+1038571055
2612+1038792157+1038991845+1039159790+1039128735+1038875613+1038630961
2604+1038611956+1038774599+1038905084+1038885116+1038827206+1038919131
2595+1039116547+1039115927+1038766542+1038356906+1038323855+1038770605
2587+1039369118+1039665207+1039488380+1039130801+1039032609+1039282081
2578+1039559717+1039556962+1039277950+1038952045+1038800627+1038898474
2570+1039195596+1039600549+1040002473+1040285204+1040442751+1040603740
2561+1040839303+1041069564+1041233102+1041373641+1041457854+1041273315
2553+1040645400+1039719467+1038987163+1038941648+1039614872+1040493086
2544+1040978603+1040860718+1040297874+1039578515+1039047896+1039007545
2536+1039419866+1039857527+1039960263+1039845546+1039896363+1040263169
2527+1040779259+1041290461+1041810338+1042323467+1042653572+1042672233
2519+1042542160+1042600207+1042973210+1043384499+1043434627+1043055151
2510+1042564814+1042259016+1042124950+1042027171+1041925881+1041781142
2502+1041511839+1041225114+1041189515+1041422048+1041654099+1041823559
2493+1042158346+1042660182+1042967013+1042857254+1042535894+1042355211
2485+1042453540+1042646549+1042606611+1042251648+1041893381+1041828998
2476+1041936968+1041914520+1041747608+1041670074+1041780867+1041997838
2468+1042320300+1042795695+1043216761+1043246990+1042923151+1042638699
2459+1042554761+1042409815+1041968367+1041334805+1040793513+1040543352
2451+1040581224+1040767622+1041005526+1041297897+1041607620+1041786995
2442+1041719996+1041524715+1041566374+1042079297+1042757823+1043057699
2434+1042928040+1042759338+1042672301+1042473371+1042227066+1042197664
2425+1042308387+1042231129+1041893381+1041520171+1041322066+1041365309
2417+1041600597+1041910802+1042206478+1042417183+1042419868+1042213088
2408+1042109594+1042411468+1042944979+1043288924+1043378371+1043472224
2400+1043625226+1043630115+1043460174+1043341532+1043331891+1043217243
2391+1042935752+1042750593+1042822343+1042912065+1042698674+1042167504
2383+1041579457+1041266842+1041493523+1042254127+1043136473+1043620475
2374+1043586735+1043333269+1043056942+1042627544+1042016016+1041536972
2366+1041360007+1041248044+1041205008+1041769436+1043116228+1044451521
2357+1044834096+1044195921+1043209600+1042480532+1042102640+1041870864
2349+1041646869+1041425698+1041257753+1041265878+1041627314+1042298334
2340+1042892509+1043036766+1042735306+1042263354+1041836228+1041495864
2332+1041216438+1040957464+1040633418+1040177166+1039703079+1039531416
2323+1039933409+1040751234+1041392715+1041410136+1040947617+1040474425
2315+1040303451+1040493637+1040936324+1041370405+1041524027+1041379632
2306+1041172989+1041109502+1041211343+1041409722+1041646456+1041864322
2298+1042000179+1042065112+1042183617+1042448307+1042715613+1042671062
2289+1042190227+1041587307+1041387137+1041835196+1042722774+1043680657
2281+1044434513+1044750640+1044465362+1043696288+1042812703+1042127704
2272+1041805518+1041968023+1042580651+1043250295+1043461138+1043125524
2264+1042623825+1042207442+1041797048+1041540828+1041944129+1043079803
2255+1044179532+1044395195+1043709302+1042847132+1042376143+1042100781
2247+1041586481+1041092907+1041353948+1042429646+1043456731+1043660413
2238+1043193212+1042835357+1042943395+1042915232+1042090658+1040891429
2230+1040331752+1040721488+1041620152+1042656395+1043730992+1044750847
2221+1045584372+1046166910+1046655388+1047305682+1047832858+1047314221
2213+1045430474+1043314057+1042375524+1042666380+1043085380+1042908622
2204+1042481978+1042483149+1043091577+1043991963+1044673313+1044549231
2196+1043310821+1041476170+1040138054+1039829777+1039949934+1039670234
2187+1039156485+1039381030+1040952644+1043643405+1046789041+1049527314
2179+1050959353+1050794644+1049663171+1048454852+1047697002+1047634410
2170+1048146851+1048497682+1047984690+1046999058+1046647194+1047380462
2162+1048898297+1051077995+1053595234+1055036637+1054299444+1052270201
2153+1050657617+1049932543+1049231156+1047969128+1046885029+1047199572
2145+1049041384+1051244700+1052740156+1053528511+1054051624+1054249246
2136+1053811723+1052909409+1051970049+1051017193+1049900869+1048865314
2128+1048193123+1047550541+1046434079+1045174943+1044733219+1045383307
2119+1046263449+1046467337+1046031742+1045488728+1044957076+1044248184
2111+1043592656+1043649120+1044808894+1046818857+1048970116+1050419162
2102+1050551507+1049369561+1047609897+1046428570+1046722318+1048256886
2094+1049543702+1049292784+1047916314+1046807289+1046327762+1045669411
2085+1044708155+1044459578+1045273823+1046023479+1045674713+1044484229
2077+1043271572+1042594148+1042775726+1043757571+1044952738+1045950834
2068+1047036792+1048479297+1049833732+1050449046+1050229665+1049417624
2060+1048059952+1046279561+1044789201+1044492905+1045474337+1046789386
2051+1047396162+1046969449+1045810432+1044366413+1043129311+1042808296
2043+1043944452+1046037388+1047637784+1047961692+1047962243+1049051231
2034+1051017951+1052151490+1051596082+1050400364+1049870433+1050021301
2026+1050100074+1049774790+1049451226+1050053595+1052472712+1056366352
2017+1059515294+1059395619+1055830431+1051475374+1049299877+1049841720
2009+1051246559+1051901673+1052080842+1052676738+1053759253+1054859121
2000+1055530417+1055262560+1053623879+1050947165+1048518959+1047653415
1992+1048426689+1049622820+1050060068+1049399239+1047958318+1046562499
1983+1045971078+1045936305+1045651371+1045282086+1045834602+1047412619
1975+1048995456+1049690645+1049364603+1049016664+1050524928+1054395983
1966+1058021284+1058239150+1055233502+1052098469+1051267561+1052362126
1958+1053331233+1052917878+1051426554+1049756405+1048639322+1048628236
1949+1049776924+1051161933+1051520889+1050594061+1049364465+1048930041
1941+1049413148+1050132093+1050487538+1050359393+1049947279+1049497155
1932+1049197416+1049172352+1049369698+1049528623+1049446200+1049203613
1924+1048973283+1048689244+1048188028+1047707675+1047822805+1048569983
1915+1049120915+1048865383+1048182450+1047895726+1048365268+1049261729
1907+1050006703+1050225258+1049979229+1049655321+1049474707+1049272333
1898+1048911242+1048585544+1048496373+1048519716+1048403828+1048084947
1890+1047686398+1047348030+1047095528+1046857693+1046588665+1046323768
1881+1046106797+1045887829+1045597730+1045364164+1045488315+1046062521
1873+1046802400+1047417163+1047911081+1048347847+1048509112+1048152566
1864+1047397608+1046676665+1046463343+1046907339+1047654654+1048140378
1856+1048059814+1047531743+1046964009+1046804947+1047217406+1047916796
1847+1048465525+1048696337+1048707010+1048573976+1048321199+1048064083
1839+1047962656+1048063188+1048188028+1048130118+1047992953+1048102300
1830+1048482946+1048682634+1048466833+1048124747+1047919688+1047835613
1822+1047821704+1047883813+1047972640+1048038537+1048135558+1048305912
1813+1048428962+1048267765+1047690391+1046839032+1045956411+1045155249
1805+1044496210+1044100277+1044041885+1044212515+1044385762+1044362006
1796+1044092565+1043835243+1044091119+1044988682+1045879084+1046291336
1788+1046449778+1046598305+1046687889+1046645128+1046539362+1046432564
1779+1046369008+1046434974+1046607876+1046750687+1046839583+1046959396
1771+1046975990+1046676941+1046164500+1045687314+1045342199+1045083912
1762+1044831410+1044537594+1044324203+1044416748+1044819223+1045248896
1754+1045536102+1045778413+1046043034+1046224269+1046273915+1046285277
1745+1046302767+1046308206+1046334441+1046447644+1046577234+1046554718
1737+1046443650+1046596032+1047223259+1047912389+1048296341+1048479159
1728+1048481844+1048237261+1047866737+1047594679+1047520588+1047666842
1720+1048157317+1049057703+1049881382+1049949895+1049436560+1048814222
1711+1048192985+1047496006+1046653185+1045483908+1043737120+1041422668
1703+1038408550+1033724627+1026584267+1018026122+1008781671+999107683+991293961
1693+987097897+986195514+987981344+991527596+995718427+1000847379+1007717265
1683+1014190943+1018047881+1020197488+1021745690+1023219043+1024986626
1674+1026850472+1028191273+1029094138+1030194350+1031494526+1032307462
1666+1032542199+1032712760+1033174246+1033705691+1033860484+1033594830
1657+1033119848+1032664560+1032630337+1033355893+1033952822+1033793967
1649+1033472676+1033531619+1033918875+1034133919+1034094325+1034005223
1640+1033952685+1034004741+1034443435+1035589231+1036959435+1037682305
1632+1037883852+1038128711+1038709459+1039452643+1039966667+1040179300
1623+1040333404+1040505067+1040579158+1040718113+1041356771+1042467036
1615+1043200786+1043209049+1042967495+1042922875+1043123872+1043261656
1606+1042925561+1041773912+1039550765+1036230780+1032190197+1027862339
1598+1023108250+1017371077+1010915440+1005634726+1003794842+1005991203
1589+1010829850+1016313281+1021159089+1024938838+1027588973+1029134420
1581+1029652989+1029300230+1028412307+1027678695+1027720836+1028219367
1572+1028736215+1029537859+1031040614+1032903703+1034384562+1035254719
1564+1035606859+1035622971+1035727360+1036705143+1038534353+1039494715
1555+1039320435+1038681021+1037903064+1037094810+1036318712+1035685632
1547+1035357455+1035426795+1035760205+1036098986+1036581749+1037534123
1538+1038308430+1038318484+1037831452+1037282172+1036977269+1036910133
1530+1036947660+1037144387+1037579845+1038086846+1038503436+1039066074
1521+1039980370+1040796405+1041100688+1041136081+1041203631+1041267462
1513+1041229246+1041127336+1041006422+1040840887+1040620680+1040407977
1504+1040220202+1040052257+1039965428+1040076702+1040463201+1040865676
1496+1040656830+1039627266+1038219604+1036957300+1036244690+1036252815
1487+1036724216+1037274942+1037731401+1038082783+1038360831+1038571123
1479+1038719237+1038869623+1039092378+1039336824+1039343640+1038777559
1470+1037650011+1036278086+1034892458+1033567149+1032282054+1031007425
1462+1029763782+1028559663+1027403952+1026496955+1026195358+1026411296
1453+1026833602+1027353341+1027854765+1027993789+1027252258+1025428280
1445+1022818703+1019641185+1016015815+1012774673+1011697322+1014574550
1436+1020844133+1026670822+1029917817+1031743447+1033418141+1035134493
1428+1036573280+1037611795+1038362897+1038908183+1039232091+1039404511
1419+1039694540+1040277629+1040923241+1041384934+1041675376+1041895309
1411+1042077782+1042137895+1041956592+1041433410+1040361843+1038474722
1402+1035793257+1032742369+1030044034+1028469941+1028318247+1029285908
1394+1030776338+1032214091+1033414285+1034583148+1035958860+1037424914
1385+1038525195+1038979864+1038815913+1038000154+1036366017+1034038757
1377+1031773951+1030663686+1031236790+1032644315+1033318297+1032399181
1368+1030185468+1027769450+1026209818+1025936796+1026764675+1028032694
1360+1028888873+1028417609+1025436199+1018919210+1009304233+999117048+991658633
1350+988990113+990939343+995683516+1001180307+1006133188+1010161170+1013504085
1340+1016470140+1019064569+1021208116+1023018597+1024613278+1025942856
1332+1026947975+1027740943+1028582731+1029636463+1030747211+1031601118
1323+1032145784+1032635915+1033200274+1033565634+1033331104+1032402762
1315+1031086956+1029890894+1029258709+1029351461+1029996797+1030833903
1306+1031539214+1031987342+1032199493+1032179937+1031916074+1031555396
1298+1031430212+1031770990+1032460671+1033182647+1033769729+1034289538
1289+1034832896+1035335076+1035622834+1035587854+1035263326+1034701652
1281+1033840515+1032616910+1031207182+1030002168+1029273995+1028933631
1272+1028626387+1027990484+1026830434+1025182595+1023333485+1021729508
1264+1020729278+1020443311+1020863689+1022011068+1023806263+1025937622
1255+1028033589+1029888277+1031417198+1032535038+1033238766+1033688201
1247+1034033593+1034228805+1034120216+1033613146+1032652923+1031152302
1238+1029125400+1026931518+1025276793+1024791827+1025579974+1027247782
1230+1029328806+1031503615+1033513853+1035158112+1036416421+1037387593
1221+1038117487+1038620701+1038992534+1039322777+1039491065+1039124672
1213+1037804528+1035435127+1032548603+1030165912+1029146608+1029520162
1204+1030367184+1030334476+1028431312+1024577885+1019614743+1014937638
1196+1012009179+1011704758+1013762991+1017011363+1020335066+1023327287
1187+1026049516+1028533842+1030628293+1032017088+1032197565+1030645989
1179+1027378268+1023492546+1020845923+1020766117+1022999110+1026063839
1170+1028530054+1029828853+1030152140+1030000860+1029831951+1029825341
1162+1029817904+1029583374+1029257814+1029308631+1029994318+1031088126
1153+1032231374+1033301426+1034300899+1035138556+1035706083+1036055124
1145+1036364916+1036754858+1037191211+1037573097+1037831865+1037942382
1136+1037947133+1037992855+1038236061+1038681227+1039173837+1039537958
1128+1039667892+1039544017+1039241111+1038907081+1038664839+1038497445
1119+1038295416+1038041055+1037810243+1037566693+1037188112+1036749694
1111+1036469648+1036308108+1035962854+1035336729+1034647668+1034002744
1102+1033235254+1032325710+1031692561+1031803216+1032628409+1033717810
1094+1034709778+1035489249+1035948325+1035945020+1035465356+1034550991
1085+1033076261+1030704794+1026995074+1021669808+1015103310+1008491297
1077+1003178150+999753708+997997005+997612846+998727519+1001548903+1005769068
1067+1010587745+1015242678+1019278510+1022472692+1024884578+1026872231
1058+1028716108+1030236009+1030936019+1030519015+1029298578+1028195336
1050+1028170272+1029442766+1031292841+1032725843+1033313477+1033390322
1041+1033536989+1033996065+1034605182+1035150262+1035619115+1036135619
1033+1036759334+1037348620+1037536327+1036808016+1034778429+1031704198
1024+1028777185+1027526450+1028619294+1031342074+1034292430+1036213979
1016+1035902466+1031669287+1021657414+1005313090+984817736+964925026+950847505
1006+945549921+948442642+956311106+965475476+973587353+980190621+986005673
996+991645481+996976599+1001570042+1005310680+1008329963+1010701705+1012483886
986+1013884731+1015167279+1016451066+1017730240+1019045839+1020482560
977+1021951575+1023167330+1023917400+1024192281+1024065789+1023676397
969+1023271444+1023050341+1023054335+1023339819+1024069163+1025307159
960+1026866585+1028421672+1029705597+1030638140+1031328991+1031941827
952+1032551357+1033132311+1033657009+1034176404+1034782078+1035462601
943+1036059806+1036456910+1036784329+1037315912+1038111497+1038858261
935+1039203170+1039202413+1039239596+1039511516+1039846234+1040050329
926+1040148521+1040204433+1040112164+1039676706+1038817635+1037604083
918+1036075368+1034089437+1031434757+1028068844+1024191454+1020189569
909+1016588369+1013872957+1012205906+1011419549+1011361915+1012107508
901+1013767329+1016249037+1019298479+1022620323+1025845904+1028533635
892+1030354307+1031186111+1031034073+1030129693+1029119754+1028738487
884+1029163203+1029995971+1030884100+1031818020+1032838357+1033799820
875+1034541282+1035139382+1035849927+1036774069+1037692772+1038306434
867+1038549227+1038636538+1038906806+1039561714+1040436209+1041141934
858+1041533667+1041874858+1042456776+1043167528+1043505482+1043035045
850+1041815365+1040302074+1038900884+1037777329+1036967422+1036401204
841+1035736380+1034144385+1030551861+1024928372+1019495688+1017491303
833+1020015497+1024878656+1028929981+1030628431+1030171352+1028409828
824+1026383409+1025157531+1025326853+1026731141+1028808516+1031105823
816+1033389633+1035425418+1036921907+1037863471+1038677440+1039744807
807+1040878621+1041556528+1041371369+1039933615+1036681318+1030854285
799+1021151170+1006015303+985892883+965171950+950126150+944455286+947688992
789+957306723+970678794+985175108+998322083+1008716875+1016357970+1022017334
779+1026533725+1030443478+1033901730+1036864204+1039261837+1041000087
771+1041973807+1042145951+1041637573+1040854383+1040371138+1040388904
762+1040393655+1039486521+1036867303+1032092212+1025305851+1017213874
754+1008555128+999752951+991250305+983889669+978661011+976011634+975435706
744+975850231+976479110+977226701+978167024+979075054+979676321+980021850
734+980363386+980880784+981742472+983159912+984966538+986362081+986796713
724+987124545+989135816+993746818+1000023976+1005967792+1009660298+1009356428
714+1003339347+991243833+976219860+964652280+961790475+967033180+974372058
704+977626903+974735627+967501001+958955113+951905989+948767721+950613526
694+955672449+960246543+962442973+964235483+968826172+976721697+985539711
684+992941869+998367392+1002297113+1005134955+1007011884+1008055839+1008585081
674+1009142004+1010207167+1011618342+1012222226+1010508627+1007484456
666+1006494141+1008176616+1011156374+1014083249+1016121443+1017011983
657+1016542716+1014386224+1010987052+1008039726+1007142439+1007955444
649+1008502039+1007542848+1006057445+1005998709+1008107896+1011422234
640+1014528140+1016616187+1017493231+1017405093+1017055363+1017242106
632+1018270706+1019975146+1022091632+1024205364+1025598291+1025660194
623+1024477008+1022872481+1021983181+1022621425+1024583118+1026704011
615+1028115323+1029054889+1029974005+1030621270+1030661345+1030480317
606+1030614866+1030916945+1030879349+1030378890+1029691137+1029134420
598+1029104811+1030153518+1032399870+1034909879+1036365122+1036448440
589+1035745607+1034461407+1032467557+1030359403+1029142959+1028924817
581+1028944648+1028868491+1029236743+1030462965+1031918897+1032530287
572+1032102197+1031384560+1031008940+1030941665+1030788525+1030111101
564+1028720584+1027116057+1026279502+1026764124+1028407487+1030926172
555+1033955232+1036485073+1037493979+1037446054+1037861336+1039052440
547+1039698190+1039085010+1038305194+1038613058+1039760506+1040474494
538+1039916607+1038351053+1036654394+1035497306+1035008483+1034887224
530+1034654622+1034090125+1033475362+1033134928+1033006646+1033026615
521+1033316438+1033719188+1033883689+1033927483+1034212486+1034605733
513+1034877240+1035481399+1037149827+1039651022+1041489529+1041334254
504+1039550627+1037846187+1037570067+1038601077+1039880181+1040560842
496+1040557193+1040492673+1041038991+1042110421+1042951383+1043040209
487+1042414153+1041242122+1039825026+1038924227+1039200003+1040288233
479+1041118453+1040887091+1039182513+1035829132+1031730502+1029127535
470+1029266077+1031078830+1033213633+1035442632+1037940523+1040660342
462+1043552925+1046228951+1047251353+1045263081+1041689974+1039760506
453+1040662614+1042964879+1044724130+1045361272+1045554005+1046034083
445+1046412044+1044787617+1040008670+1034859475+1034069674+1038726742
436+1044820531+1047982418+1048388198+1048637119+1049316058+1049505831
428+1049381611+1049628880+1049635077+1048384273+1046178478+1043954367
419+1042515994+1042880252+1044831066+1046790350+1047864464+1048008722
411+1047522722+1047569615+1049961601+1054719202+1059356783+1062050436
402+1063283062+1063933356+1064480708+1065531893+1065261281+1059775301
394+1049341742+1038356356+1030915775+1028627970+1030939944+1035934003
385+1041125890+1045101058+1048193812+1051095485+1054617705+1060107541
377+1067899435+1073741823+1072280727
##END=
