##TITLE=JB211 F1
##JCAMP-DX=4.24
##DATA TYPE=INFRARED SPECTRUM
##DATE=7/2/2018
##SAMPLING PROCEDURE=Diamant ATR
##ORIGIN=Lara
##XUNITS=1/CM
##YUNITS=TRANSMITTANCE
##RESOLUTION=4
##FIRSTX=3997.453
##LASTX=373.96442
##DELTAX=-1.4165319
##MAXY=0.99079704
##MINY=0.57025278
##XFACTOR=1
##YFACTOR=9.2275165e-010
##NPOINTS=2559
##FIRSTY=0.97177553
##XYDATA=(X++(Y..Y))
3997+1053127922+1054215047+1054803115+1054842388+1054672053+1054425754
3989+1053882967+1052998216+1052186910+1051896493+1052120249+1052495155
3980+1052740872+1052835697+1052846226+1052780404+1052642236+1052514598
3972+1052493346+1052549220+1052543084+1052381792+1052129098+1052006175
3963+1052304730+1053118298+1054083274+1054649574+1054681742+1054470389
3955+1054227772+1053939487+1053705332+1053810169+1054337518+1054907758
3946+1055013693+1054530591+1053776967+1053202400+1053003578+1053018693
3938+1053023215+1053026380+1053187801+1053473826+1053557282+1053226752
3929+1052738288+1052500258+1052627509+1052911014+1053040913+1052859984
3921+1052446128+1052035694+1051952561+1052397940+1053202206+1053988837
3912+1054508241+1054621023+1054265818+1053641190+1053224943+1053495529
3904+1054573998+1055941463+1056691017+1056343305+1055290609+1054261620
3895+1053568392+1053162997+1053052476+1053294188+1053650039+1053705332
3887+1053366792+1052980259+1052946606+1053265831+1053753132+1054276282
3878+1054573417+1054368782+1053728909+1053119396+1053018628+1053335852
3870+1053456579+1053038846+1052516729+1052516148+1053242125+1054279383
3861+1054869195+1054657519+1053948595+1053328423+1053289731+1054019907
3853+1054883470+1054761710+1053885874+1053245484+1053321447+1053869854
3844+1054209427+1053895046+1053216094+1052808955+1052787639+1052524352
3836+1051655879+1050817249+1050811113+1051674482+1052721946+1053405162
3827+1053815143+1054203614+1054457728+1054302572+1053721351+1053021148
3819+1052521186+1052333410+1052508009+1052933041+1053278169+1053287600
3810+1052928713+1052424295+1052172764+1052282252+1052366160+1052158230
3802+1051815492+1051638180+1051748249+1052083817+1052569438+1053155633
3793+1053739244+1054133981+1054224930+1054075846+1053764824+1053309368
3785+1052897901+1052823618+1053085290+1053429643+1053673616+1053744283
3776+1053635441+1053441270+1053273066+1053127212+1052926775+1052707864
3768+1052722850+1053237345+1054105366+1054642404+1054260844+1053145686
3759+1052167596+1052081879+1052752951+1053570007+1054161692+1054347078
3751+1053972689+1053251750+1052723690+1052542180+1052487662+1052339611
3742+1052113466+1051947394+1051822791+1051693344+1051751608+1052228380
3734+1052736997+1052645983+1052153192+1051876921+1052021677+1052471836
3725+1053184572+1054137211+1055030940+1055340282+1054746466+1053517039
3717+1052348848+1051781257+1051872206+1052390964+1053085613+1053658824
3708+1053826640+1053604242+1053312921+1053299743+1053596749+1053848603
3700+1053788207+1053599139+1053492106+1053362077+1053034196+1052543149
3691+1052094992+1051958375+1052287484+1052817481+1053200656+1053443983
3683+1053605211+1053430547+1052565304+1051085381+1049714428+1049619280
3674+1051254618+1053400575+1054747434+1054717527+1053465299+1052055073
3666+1051384647+1051466682+1051753998+1051686820+1051170387+1050566300
3657+1050330788+1050675141+1051321603+1051831899+1052216559+1052930457
3649+1054199932+1055385951+1055869117+1055774486+1055357465+1054690010
3640+1053867981+1053131023+1052688098+1052525579+1052468090+1052429398
3632+1052615236+1053315375+1054238882+1054426400+1053850540+1053445985
3623+1053493333+1053484677+1052944732+1052138723+1051795403+1052085109
3615+1052551029+1052828979+1053047115+1053592744+1054425108+1054912538
3606+1054686393+1054185527+1053898082+1053767149+1053600754+1053624654
3598+1054216791+1055233960+1056010127+1056020204+1055385822+1054615210
3589+1054083920+1053829160+1053574270+1053031999+1052228767+1051458672
3581+1051158566+1051634821+1052639976+1053446567+1053522207+1052971668
3572+1052337738+1052136074+1052539079+1053242384+1053640673+1053515489
3564+1053275779+1053242513+1053338565+1053390951+1053359364+1053222295
3555+1052863408+1052286902+1051811164+1051726158+1051875113+1051934346
3547+1051879570+1051857285+1051874144+1051916841+1052128194+1052571118
3538+1052997829+1053028963+1052596310+1052069154+1051814006+1051820595
3530+1051932214+1052160168+1052501421+1052724530+1052673177+1052485982
3521+1052318037+1052217140+1052320621+1052704247+1053066687+1053016561
3513+1052644433+1052381792+1052368162+1052304730+1051917745+1051262628
3504+1050589554+1050125120+1049954396+1050054905+1050452872+1051158114
3496+1051918520+1052375397+1052523318+1052592176+1052536689+1052174314
3488+1051722734+1051598132+1051769565+1051852698+1051729581+1051698964
3479+1052063147+1052727307+1053188253+1052953065+1052029816+1050868925
3471+1049875268+1049243470+1049139408+1049673217+1050663579+1051642056
3462+1052180967+1052187233+1051869880+1051492003+1051218704+1051128594
3454+1051231235+1051448208+1051631785+1051686174+1051727966+1052005529
3445+1052521509+1052942536+1053023408+1052850941+1052582745+1052237229
3437+1051817753+1051371534+1050948570+1050735796+1051046430+1051853151
3428+1052551804+1052595664+1052196793+1051982081+1052139562+1052374945
3420+1052515115+1052593403+1052534816+1052293556+1052071286+1051992545
3411+1051892101+1051708717+1051702129+1051999199+1052226442+1051802573
3403+1050563910+1049038318+1048024895+1047847002+1048101763+1048194327
3394+1047995053+1047825492+1047910240+1048097629+1048197039+1048289410
3386+1048472858+1048567489+1048409103+1048233148+1048373641+1048728329
3377+1048932641+1048980764+1049218213+1049692401+1050005038+1049930367
3369+1049729608+1049704545+1049859249+1050113622+1050480195+1050924218
3360+1051290856+1051439552+1051365979+1051190218+1051026987+1050887851
3352+1050770418+1050787665+1051059543+1051494328+1051821951+1051859868
3343+1051635984+1051252034+1050781528+1050360954+1050190360+1050294357
3335+1050451063+1050478580+1050415278+1050317805+1050122536+1049866677
3326+1049855373+1050338475+1051071364+1051463323+1051258817+1050849869
3318+1050791799+1051203395+1051761943+1052084528+1051979303+1051493553
3309+1050897282+1050542852+1050582448+1050822740+1050957484+1050903547
3301+1050789344+1050705242+1050690967+1050868731+1051319536+1051844366
3292+1052058948+1051760134+1051151009+1050699235+1050732501+1051131437
3284+1051497687+1051621709+1051636824+1051699997+1051753804+1051641862
3275+1051285947+1050741351+1050233767+1050035979+1050162197+1050312314
3267+1050243586+1050026871+1049862995+1049843036+1049936568+1050057102
3258+1050159225+1050351394+1050800196+1051486577+1052180967+1052643205
3250+1052723432+1052370165+1051726287+1051122975+1050806526+1050728432
3241+1050721972+1050760923+1050906131+1051122329+1051310234+1051449564
3233+1051592576+1051773893+1051978981+1052162752+1052287290+1052338707
3224+1052291036+1052111076+1051851536+1051658657+1051661563+1051895460
3216+1052263777+1052503746+1052350786+1051867361+1051455959+1051412164
3207+1051602976+1051724220+1051752577+1051920070+1052286192+1052573056
3199+1052524545+1052247693+1052037632+1051946167+1051738818+1051294731
3190+1050858525+1050768416+1051088675+1051618285+1052097447+1052292457
3182+1052103777+1051723832+1051497041+1051536961+1051660982+1051702452
3173+1051653231+1051506020+1051211405+1050855489+1050671524+1050751169
3165+1050847802+1050611580+1050021252+1049476397+1049389905+1049756673
3156+1050208382+1050416634+1050343772+1050153476+1049977198+1049781671
3148+1049482211+1049147870+1048938971+1048863590+1048820828+1048824768
3139+1048955895+1049179457+1049374984+1049394556+1049103687+1048603080
3131+1048263378+1048226559+1048134447+1047646372+1046970843+1046573652
3122+1046558084+1046616025+1046509057+1046362815+1046453570+1046868977
3114+1047425329+1047811669+1047838088+1047644692+1047511434+1047376754
3105+1046844173+1045764218+1044481308+1043451155+1042855207+1042541536
3097+1042180711+1041593419+1040946247+1040469798+1040117694+1039669085
3088+1039005442+1038163388+1037290652+1036579209+1036086547+1035601766
3080+1034799373+1033579055+1032185623+1030926548+1029837808+1028765217
3071+1027682097+1026770540+1026300293+1026516749+1027433861+1028682795
3063+1029834579+1030836503+1031870661+1032938859+1033866952+1034573745
3054+1035114594+1035526319+1035766611+1035811181+1035729017+1035532585
3046+1034998453+1033892467+1032336710+1030678311+1029064483+1027408927
3037+1025685483+1024088126+1023007461+1022855083+1023740737+1025376915
3029+1027409186+1029649257+1031919236+1033942528+1035515080+1036647873
3020+1037497549+1038158414+1038525440+1038472279+1038186384+1038094466
3012+1038401677+1038941687+1039518063+1040114916+1040692261+1041050179
3003+1041078795+1040986425+1041086740+1041405513+1041670997+1041704069
2995+1041641219+1041642446+1041515389+1040887853+1039729804+1038421508
2986+1037292526+1036355648+1035456687+1034420268+1033104544+1031516683
2978+1029787618+1027974258+1026026218+1023907455+1021599818+1019050727
2969+1016196815+1012965542+1009354840+1005605003+1002080794+998906364+996004587
2959+993524999+991883137+991299591+991586649+992449178+993816191+995797497
2949+998434759+1001575988+1004939744+1008232253+1011217422+1013744422
2941+1015753245+1017262882+1018349361+1019105568+1019599328+1019838780
2932+1019746087+1019247094+1018445413+1017568737+1016678431+1015646147
2924+1014494105+1013491922+1012824596+1012357708+1011797157+1011006327
2915+1010184815+1009731297+1009840139+1010274149+1010623863+1010715846
2907+1010653318+1010540666+1010341908+1010022489+1009693703+1009550045
2898+1009728261+1010275182+1011163550+1012297570+1013561102+1014865911
2890+1016114198+1017187823+1018048544+1018739511+1019244188+1019473756
2881+1019474338+1019496041+1019750156+1020241591+1020954649+1022046360
2873+1023663934+1025658676+1027648250+1029328546+1030644528+1031712985
2864+1032654514+1033467177+1034055891+1034403151+1034657976+1034990638
2856+1035413021+1035803494+1036091779+1036361203+1036760526+1037321206
2847+1037874393+1038188709+1038226045+1038210090+1038389017+1038802486
2839+1039321050+1039772242+1039975844+1039820817+1039416585+1039049172
2830+1038950213+1039155688+1039509537+1039774568+1039886381+1040083782
2822+1040589362+1041232465+1041663181+1041835583+1042004046+1042339549
2813+1042799914+1043261635+1043617163+1043850155+1044095097+1044498684
2805+1045026291+1045518178+1045843928+1045909233+1045669200+1045252695
2796+1044939864+1044922875+1045167172+1045507262+1045811114+1046066327
2788+1046348734+1046691084+1047004432+1047193242+1047308220+1047485596
2779+1047737514+1047887761+1047772783+1047453170+1047170375+1047114501
2771+1047273468+1047482043+1047565241+1047449294+1047198215+1046984408
2762+1046986539+1047207646+1047416609+1047382439+1047166176+1047058304
2754+1047218821+1047498580+1047650183+1047657999+1047757991+1048076506
2745+1048378808+1048346576+1047995311+1047609747+1047393291+1047370424
2737+1047495608+1047692040+1047861600+1047919090+1047790482+1047473129
2728+1047147638+1047077876+1047331345+1047720785+1048039623+1048248069
2720+1048430290+1048640674+1048808297+1048793699+1048555022+1048234246
2711+1048036135+1048025864+1048076765+1048024831+1047845775+1047645274
2703+1047516278+1047456270+1047397812+1047289164+1047179548+1047216625
2694+1047494252+1047904168+1048215578+1048316087+1048283790+1048192453
2686+1047962949+1047502714+1046919749+1046486901+1046412553+1046676550
2677+1047043835+1047242075+1047190593+1047061404+1047078716+1047269463
2669+1047440186+1047391094+1047118700+1046774540+1046505957+1046423146
2660+1046613829+1047001008+1047279346+1047218498+1046966773+1046852958
2652+1046941259+1046971489+1046743212+1046402347+1046260885+1046442912
2643+1046797213+1047054686+1047019676+1046745214+1046533861+1046608533
2635+1046870269+1047138078+1047408664+1047667817+1047768197+1047691265
2626+1047610522+1047591531+1047562851+1047581260+1047759735+1047974447
2618+1047985428+1047813994+1047749400+1048011137+1048549144+1049106271
2609+1049403793+1049346950+1049081661+1048799900+1048556443+1048331008
2601+1048167455+1048168747+1048406003+1048826577+1049246829+1049504108
2592+1049593959+1049585562+1049505852+1049393200+1049347015+1049465481
2584+1049809446+1050346679+1050886430+1051252745+1051524946+1051852052
2575+1052083301+1051913094+1051372891+1050876805+1050756595+1050970144
2567+1051307650+1051698447+1052159522+1052544893+1052618207+1052427331
2558+1052332829+1052535268+1052849003+1053132896+1053594423+1054342750
2550+1054963115+1054944383+1054328862+1053619874+1053248262+1053326938
2541+1053704557+1054090767+1054259940+1054179649+1053926568+1053611283
2533+1053402061+1053407099+1053511678+1053543394+1053562385+1053724969
2524+1053915393+1053826576+1053394374+1052843707+1052377722+1052161589
2516+1052540306+1053802676+1055624304+1057097704+1057559038+1057240199
2507+1056880021+1056811938+1056778995+1056571194+1056332970+1056181238
2499+1056031960+1055893663+1055904515+1056045589+1056167867+1056253325
2490+1056371985+1056476951+1056398017+1055987906+1055273492+1054518770
2482+1054037089+1053908352+1054005180+1054237138+1054583365+1054943349
2473+1055152313+1055147468+1055063560+1055143851+1055458103+1055692710
2465+1055470117+1054882243+1054385318+1054234231+1054410316+1054943026
2456+1055781786+1056471267+1056456927+1055709827+1054757447+1054153230
2448+1054084049+1054369234+1054719853+1055041598+1055460880+1055967818
2439+1056229684+1056014455+1055602794+1055414308+1055422188+1055345644
2431+1055171497+1055048638+1054933014+1054713135+1054454176+1054285649
2422+1054254902+1054360255+1054550357+1054707128+1054757059+1054722501
2414+1054645311+1054560498+1054538794+1054668758+1054971642+1055328591
2405+1055507195+1055333823+1054907435+1054600611+1054741556+1055248171
2397+1055693097+1055787599+1055644910+1055529932+1055563650+1055712992
2388+1055847478+1055786501+1055471215+1055073959+1054808412+1054686974
2380+1054551649+1054296759+1053995749+1053828772+1053919915+1054237203
2371+1054631423+1054931012+1054992183+1054761904+1054381507+1054118737
2363+1054085600+1054162273+1054271244+1054481757+1054722049+1054675347
2354+1054177905+1053552954+1053299679+1053543265+1053994909+1054302637
2346+1054343719+1054280610+1054216016+1053869725+1053006420+1052046094
2337+1051766400+1052385732+1053314988+1053880771+1053956992+1053784719
2329+1053470079+1052887372+1052009017+1051162765+1050868925+1051315337
2320+1052095767+1052672337+1052931232+1053094979+1053307753+1053465364
2312+1053395537+1053099824+1052743456+1052437278+1052178319+1052024261
2303+1052121218+1052445546+1052706120+1052677957+1052487145+1052406079
2295+1052525773+1052752951+1052952548+1052974898+1052695850+1052100031
2286+1051366690+1050961424+1051421660+1052681187+1053814755+1053941102
2278+1053232565+1052640040+1052806629+1053542360+1054262330+1054723405
2269+1055187194+1055831588+1056317338+1056244153+1055761309+1055268389
2261+1054719917+1053835619+1053002286+1053202270+1054700926+1056508925
2252+1057543147+1057610907+1057041313+1056220576+1055550344+1055166459
2244+1054870164+1054671601+1054785222+1054939345+1054594798+1053898986
2235+1053564322+1053859390+1054486731+1055193976+1055752653+1055651757
2227+1054697697+1053720576+1053828320+1055026160+1056267988+1056752640
2218+1056595094+1056379414+1056499818+1056807093+1056802507+1056390459
2210+1056178073+1056656976+1057603737+1058721156+1060130155+1061702385
2201+1062748815+1062924124+1062721427+1062750042+1063188057+1063837490
2193+1064059243+1063144520+1061367850+1059971253+1059815645+1060809818
2184+1062302144+1063138578+1062279149+1060311989+1059186753+1059990050
2176+1062055135+1064105169+1065364632+1065767379+1065587160+1064844130
2167+1063526080+1062464728+1062771229+1064169958+1065391956+1066320695
2159+1067916759+1070094045+1071840033+1072933488+1073667862+1073741823
2150+1072529708+1070151663+1067648240+1065950245+1065039270+1064344040
2142+1063571554+1062859530+1062562395+1063084706+1064396555+1065645295
2133+1065893402+1065190098+1064300697+1063589383+1062798746+1061790621
2125+1060925055+1060584513+1060702139+1060904320+1060827969+1060205925
2116+1059068804+1058008615+1057746038+1058278168+1058910547+1059137855
2108+1058999300+1058718960+1058527179+1058627494+1058907189+1058944912
2099+1058611992+1058322286+1058458128+1058895820+1059264396+1059323952
2091+1059023459+1058553275+1058330295+1058603142+1059176095+1059699698
2082+1059956526+1059799690+1059312648+1059015449+1059342103+1060000191
2074+1060344738+1060170010+1059797882+1059673408+1060009945+1060533160
2065+1060640387+1060023510+1058937354+1057858045+1057312028+1057926903
2057+1059983849+1062682541+1064293204+1063602560+1061250030+1059252898
2048+1059077460+1060377875+1061931501+1063192643+1064370200+1065648719
2040+1066816845+1067320488+1066663110+1065222266+1064522772+1065756785
2031+1067997825+1069002850+1067911592+1065909680+1064245985+1063099950
2023+1062397356+1062224049+1062423646+1062979740+1064472906+1067102417
2014+1069745364+1070862073+1070002191+1068139545+1066563441+1065447248
2006+1064024685+1062155321+1060539103+1059482984+1058692412+1058074243
1997+1057883560+1058280687+1058990645+1059202773+1058263763+1056733585
1989+1055694389+1055133645+1054264914+1052881688+1051359132+1050083908
1980+1049664432+1050853939+1053587964+1056640181+1058623748+1059070677
1972+1058573041+1057917214+1057222630+1056461448+1056299769+1057211842
1963+1058369117+1058701132+1058399799+1058310723+1058458192+1058286048
1955+1057764254+1057263582+1056816266+1056326252+1056099074+1056427472
1946+1056991640+1057262291+1057287159+1057597988+1058386428+1059195926
1938+1059482854+1059130685+1058419823+1057638166+1056837517+1056055666
1929+1055610610+1055821705+1056436257+1056751736+1056409902+1055811822
1921+1055688705+1056456216+1057872062+1059165502+1059861184+1060191197
1912+1060403325+1060344738+1059950324+1059559140+1059462765+1059607586
1904+1059898778+1060395251+1061010061+1061281164+1060776165+1059653384
1895+1058509803+1057738933+1057362541+1057314289+1057498642+1057790092
1887+1058146201+1058426089+1058271967+1057602639+1056932536+1056725898
1878+1056767497+1056600068+1056305388+1056370435+1056911478+1057510333
1870+1057772716+1057682090+1057342129+1056707876+1055756012+1054651512
1861+1053725486+1053334172+1053615029+1054339585+1055070471+1055476835
1853+1055516496+1055360242+1055163035+1054929462+1054601645+1054249282
1844+1054134304+1054442161+1055004908+1055582770+1056084088+1056375602
1836+1056271153+1055862076+1055537554+1055569011+1055841406+1055976021
1827+1055774809+1055463399+1055429875+1055770869+1056209143+1056461771
1819+1056434900+1056174843+1055770998+1055272587+1054756736+1054412318
1810+1054335903+1054354119+1054305673+1054211559+1054087537+1053932640
1802+1053852737+1053921788+1054045293+1054117832+1054130364+1054124808
1793+1054110469+1053937614+1053481448+1052976254+1052705474+1052666201
1785+1052693847+1052660194+1052529067+1052394387+1052389737+1052442317
1776+1052329922+1051954176+1051410485+1050923184+1050619009+1050347906
1768+1050031845+1049836382+1049799693+1049736971+1049570770+1049352764
1759+1049032246+1048562515+1047999639+1047365063+1046708589+1046174070
1751+1045784436+1045365541+1044761325+1043886199+1042774335+1041621969
1742+1040447900+1039002535+1037274762+1035559263+1033957514+1032385608
1734+1030745942+1028906227+1026868013+1024648677+1022049977+1018806883
1725+1014618062+1009113968+1002210693+993773817+982397828+965537705+942623079
1715+917015187+891388562+865774985+839936555+814275954+789424269+765983779
1706+745327375+729457937+719220620+714535713+715221641+720759131+732219092
1696+750873972+772748111+793080380+812758630+833334420+852222874+866308471
1686+875441482+879089454+875109466+864405389+849719645+832885230+814815189
1676+796475529+780882362+771661503+770449840+778410655+794408894+812673624
1666+829935460+848142183+868925709+889529533+906129599+918458873+927959426
1656+936069390+945436297+958308035+969578735+975224032+978384058+981984617
1646+985951880+988366615+989021990+989014433+989118430+989735953+991290935
1636+994208408+997855282+1000773466+1002759746+1004502440+1006430326+1008357567
1626+1009911903+1011136291+1012261139+1013180124+1013632932+1013637259
1618+1013439729+1013252664+1012953139+1012256747+1011080223+1009451926
1609+1007314495+1004417757+1000257486+994040204+984762761+971537691+954135233
1599+933425732+911444431+891201303+876086909+868403980+867984697+872657977
1589+879895593+887972226+896305428+905122055+914789585+925267387+935932256
1579+946221765+956585365+967708467+977810007+984287087+987757360+990113120
1570+992046819+992880799+992030477+989855969+987318117+985569868+986109361
1560+991372389+1000750600+1007949911+1011893855+1014827929+1017403569
1551+1019448371+1020990434+1022203066+1023294712+1024533699+1025991596
1543+1027486505+1029052146+1030693362+1031744572+1032067674+1032254675
1534+1032738035+1033429325+1033946403+1034252904+1034604621+1035135071
1526+1035711964+1036196745+1036724288+1037491800+1038335726+1038921663
1517+1039191344+1039288172+1039349343+1039444426+1039622900+1039957241
1509+1040528708+1041241120+1041651101+1041662793+1041610988+1041618675
1500+1041605692+1041484383+1041278198+1041068653+1040859626+1040603961
1492+1040305857+1040028230+1039772501+1039403731+1038785756+1037809798
1483+1036366952+1034540414+1032700247+1031159476+1029869589+1028459879
1475+1026191839+1021978536+1015406437+1007448529+998946477+990118352+982081122
1465+977638961+978638366+983451751+989521241+995576971+1000961565+1004701520
1455+1006710537+1007958244+1008929292+1009529439+1009639056+1009356649
1446+1008840669+1008194207+1007500850+1006764280+1005831794+1004335851
1438+1001467082+996037788+987508154+975975007+961140760+943636631+926976686
1428+915373648+909763231+908371285+909217408+911643705+916857382+926527625
1418+939288778+951029854+960101888+967284856+973205197+978037702+981963495
1408+985212144+987995455+990388486+992204624+993165660+992996616+991282215
1398+987546523+981351463+972553503+962558738+954511108+951065704+953494456
1388+961977905+974405297+986622241+995970933+1002457896+1006940041+1010056595
1378+1012224514+1013773618+1014989738+1016073052+1017091965+1018076578
1370+1019055184+1019926176+1020492863+1020741552+1020924871+1021283241
1361+1021723775+1021925568+1021744898+1021268190+1020583489+1019673547
1353+1018513172+1017195122+1015971445+1015183780+1015038055+1015374463
1344+1015695756+1015454818+1014286111+1012022204+1008676857+1004467042
1336+999713471+994661668+989385011+983800820+977831581+971669722+965946782
1326+961623604+959616137+960321896+963381607+967889460+972836298+977464878
1316+981455718+984880129+987948559+990788584+993443416+995945676+998268945
1306+1000289137+1001897733+1003103001+1003959394+1004459355+1004530797
1298+1004099177+1003116307+1001502092+999075343+995573031+990720243+984246392
1288+975871979+965339271+952468114+937172921+919472554+899620286+878489436
1278+858012927+841035436+830263147+826902298+829892375+836163528+841869997
1268+844037593+841750562+836249827+829734248+823324927+815591614+803096914
1258+782890023+754852474+721936042+688568094+658891397+635974445+621895114
1248+617991606+624763043+641332232+664974515+691463734+716304697+736076286
1238+749139159+755569408+756613384+754094200+750051168+746543237+745435894
1228+748115208+755215689+766503183+780977058+797132649+813280101+827856099
1218+839735344+848505721+854524181+858583555+861368351+863197214+864315796
1208+865317979+867105696+870392326+875207133+880769814+885855013+889478891
1198+891451089+892424851+893565266+896125467+901001962+908332399+917392806
1188+926973779+936005958+943946038+950713664+956454432+961410636+965805643
1179+969695457+972987320+975565801+977279040+977864589+977041914+974663417
1169+970752868+965515097+959376427+952977183+947127767+942770290+940872634
1159+942181899+946908598+954515371+963793073+973262686+981702986+988483337
1149+993538176+997124848+999589385+1001189067+1001949409+1001601632+999681432
1139+995837998+990305353+984154862+978844293+975347149+973757092+973666401
1129+974684668+976538142+978878011+981157421+982708915+983021359+982166709
1119+981067764+981082620+982957152+986142886+989254401+991086558+991136425
1109+989461168+986356629+982093330+976735026+970150654+962178793+952726751
1099+941775793+929470936+916283202+903053998+890887244+880854562+873279570
1089+866885429+858958719+846990335+830334847+810260633+788822119+768123019
1079+750324467+737567255+731392865+732095006+738566144+748790995+760586977
1069+771986995+781213990+786729194+787600509+783901572+776759621+767956752
1060+759292504+752129430+747386517+745746787+747614730+752763812+760032239
1050+767386900+772552390+774286364+773697262+774208979+779487380+790690450
1040+805347191+818834902+827237930+829271041+825950369+819112077+810824026
1030+803598684+799423944+797691456+795115622+788991228+780465534+774047752
1020+774165895+782468156+797700499+817092208+837737437+857437003+874991000
1010+890063084+902856727+913770090+923113485+931011062+937551639+942983064
1000+947674689+951864092+955522140+958489158+960633371+961827335+961872616
990+960527436+957656923+953535990+949164172+946165310+946035604+949115145
980+954073351+958469004+960075081+957878740+952095534+943729840+934458533
970+926624646+922672563+924080593+930550891+940103895+950075019+958374309
960+964207834+967932545+970411745+972434843+974424740+976391771+978142410
950+979593718+980787488+981529162+981078293+978091509+970806094+957755881
941+938962188+916568064+894359649+876914171+868662487+872193478+886423057
931+906706105+927357018+944454784+956881854+965540741+971859307+976660613
921+979936586+981238487+979995819+975596161+967610348+956332155+943266311
911+931081276+922799427+920426355+923680431+929696177+934121673+933031318
901+924460344+908747096+887802665+864015755+839436271+815527407+793315504
891+773534096+756719448+743437987+734365179+729863655+729523953+732268055
881+736714027+741295260+744445532+745197928+743697915+741106709+739072241
871+739062488+741763311+747024142+754493329+764132179+775898189+789078947
861+802111202+812943047+819580839+820643288+815714860+805258115+790250884
851+771902376+751477155+730098262+708584044+687499379+667511011+649740300
841+635571053+625977483+621231212+621286182+626077605+635287225+648118397
832+663454995+680161513+697371221+714637320+731722878+748344905+764290565
822+779546420+794130169+808013456+821209846+833696085+845356483+856122248
812+865973484+874825315+882591636+889158567+894053536+896377709+895369906
802+891073793+884449244+876973921+870166827+865164697+862218673+860338199
792+857588865+852069979+842985091+831242141+819209162+809572638+803949754
782+802197436+802756630+803662955+803577755+802149507+799507464+795590521
772+790151926+783422475+776545361+770974412+767178841+764074432+759995873
762+754305553+748060044+743103840+740411608+739201366+737644898+734575886
752+730856020+729345220+733220694+743572925+757838224+770181063+774347470
742+767992409+754819144+741707243+733602899+731345517+733023293+735884892
732+737549298+736891726+734548046+732988154+735978231+746715575+765346942
722+788266349+809673599+823840585+827339667+820760915+808570971+796542514
713+788403483+784852790+785502804+790230925+798030189+805864270+809721528
703+806704127+796100494+779176875+758634157+738115339+721328014+710477437
693+705103307+702813885+701329699+699935685+699439083+701169440+706041800
683+714049898+723993246+733766194+741450803+746622430+750930169+756958124
673+765903424+777418291+792343616+812445347+833469939+848170928+857475889
663+864809427+870705093+874304490+875584042+874682820+870648766+862953370
653+854145205+849368703+851908234+859326779+864444985+860143188+844067048
643+820795925+800084228+791100495+796730484+812862627+832398576+849582898
633+862080957+870718851+877543450+883816024+889501435+894136733+897538794
623+899476886+899263273+896277717+890659032+883219236+875082659+867655072
613+862580983+861275723+864245518+870731900+878890632+886249943+890398587
603+890019353+885548189+878657898+871277335+865158108+861671041+861415893
594+864194423+869498791+876747129+885190078+894029765+902513407+909845718
584+915466405+919555170+922973896+926558824+930374742+933639798+935554378
574+936110924+935670390+934166889+931495456+928273420+925351102+922922092
564+920874189+919515315+919264689+920162100+922242945+925660768+929809670
554+933130148+934402336+933428316+930063138+923693479+914340459+903616358
544+894235434+888806140+888553511+892396494+897774499+902982363+907845228
534+912121575+914985822+916267247+916755646+917385055+919061281+922552095
524+927713256+933664086+939784863+945599979+950282819+953223999+954699853
514+955451474+955992969+956312131+955840527+953942031+950682982+946821913
504+942975248+939253186+935752877+932838310+930635897+928650716+926084766
494+922324399+917064149+910300011+902467158+894340335+886692609+880176126
484+875408280+872981725+873250696+876023865+880567117+886013915+891691252
475+896874376+900685384+903229954+906286951+911138835+916438746+919348597
465+917998379+911913968+901310982+887426790+872966222+861802814+857461807
455+861100155+871474413+885650507+900161652+913048958+923618807+930690415
445+932681733+928459516+918265283+905030331+893084489+885372363+883275239
435+887739104+898879969+914550133+930288767+941837869+948149458+950843305
425+951335838+950199622+948036482+944596827+938126465+928646323+919539344
415+912816030+908685408+907559074+909290852+912151353+913712407+912063375
405+906419951+897765585+889057219+884209986+886354522+895060240+904887771
395+910809661+911838910+908481225+902143927+895481396+891001706+889848113
385+891912746+896141810+901260469+906777223+912974480+920379395+928131183
375+930635704+921709783
##END=
