##TITLE=S. Graessle SG-V2452 12-22
##JCAMP-DX=4.24
##DATA TYPE=INFRARED SPECTRUM
##DATE=27/6/2016
##SAMPLING PROCEDURE=ATR platinum Diamond 1 Refl
##ORIGIN=Angelika Moesle
##XUNITS=1/CM
##YUNITS=TRANSMITTANCE
##RESOLUTION=4
##FIRSTX=3997.4121
##LASTX=373.82813
##DELTAX=-1.4160156
##MAXY=1.023787
##MINY=0.58242887
##XFACTOR=1
##YFACTOR=9.5347597e-010
##NPOINTS=2560
##FIRSTY=0.99981648
##XYDATA=(X++(Y..Y))
3997+1048601657+1048635226+1048698427+1048905657+1049327245+1049801344
3989+1049985632+1049772963+1049502156+1049476901+1049469400+1049095572
3980+1048528954+1048316035+1048503199+1048503074+1047867567+1046752147
3972+1045668984+1045144313+1045514202+1046663816+1047995156+1048820265
3963+1048794134+1048122745+1047473922+1047357710+1047479048+1047110659
3955+1046054564+1044911514+1044554753+1045388488+1046774214+1047377152
3946+1046777090+1046122516+1046311743+1046732768+1046501720+1045950355
3938+1045943229+1046548167+1047131788+1047012264+1045890030+1044280883
3929+1043427456+1043928185+1044935269+1045245396+1044612640+1044007326
3921+1044455919+1045722120+1046554981+1046023058+1044591073+1043568172
3912+1043520475+1044070902+1044813681+1045712368+1046738144+1047439102
3904+1047048084+1045279216+1043000617+1041234562+1040073570+1039504640
3895+1039952358+1041500180+1043442709+1044602950+1044372215+1043654253
3887+1043340813+1042895657+1041740730+1040853483+1041096408+1041397408
3878+1040843918+1040481780+1041036521+1041509994+1041085031+1040327311
3870+1039761318+1039018539+1038361777+1038436417+1038635521+1037994263
3861+1036981677+1036970800+1038300327+1040572112+1043575299+1046717765
3853+1047572068+1043668006+1039061673+1037962006+1038913392+1039894033
3844+1040322747+1040503847+1040828853+1041283697+1041215933+1039781385
3836+1037462965+1036104870+1036274155+1036896347+1037276364+1037831104
3827+1038838939+1039747253+1040320309+1041250315+1042636541+1043000992
3819+1041512495+1039985615+1039265277+1038255317+1037109204+1037213913
3810+1038685157+1040613495+1041839375+1041106410+1038726853+1036996993
3802+1036535960+1035629459+1033994056+1033827459+1035537127+1037418831
3794+1038325957+1038378405+1037925124+1037286678+1037130958+1037864173
3785+1038827624+1038982781+1038357464+1037796909+1037476218+1036967487
3777+1036518519+1036891971+1038101973+1039426748+1039932729+1038905265
3768+1036812392+1035255506+1034874364+1035011455+1035374718+1036125499
3760+1036772196+1036422124+1035316394+1034863174+1035746358+1037270300
3751+1037594805+1035110788+1032314894+1033243963+1036978114+1039351358
3743+1037478281+1034200536+1033158757+1033925917+1034653881+1033967926
3734+1031976511+1030531211+1030916103+1032533252+1034352693+1035595202
3726+1035637835+1034621687+1033815831+1034050068+1034642566+1034848796
3717+1035019582+1035686533+1036569717+1036802578+1035685470+1033647671
3709+1032217687+1031970323+1032507372+1033785138+1035568196+1036665612
3700+1036009225+1034484658+1033675865+1033677178+1033747505+1033663175
3692+1033692368+1033794452+1033510831+1032909643+1032787993+1033285909
3683+1033902099+1034334189+1034645879+1035149609+1035886700+1035641024
3675+1032538941+1028278305+1027095059+1028897996+1030742317+1030896037
3666+1030422626+1030498767+1030980929+1031506101+1032053903+1032697474
3658+1033057736+1032405913+1031120583+1031212352+1033455694+1035875072
3649+1035320894+1031064947+1027405311+1026897643+1027976742+1029505372
3641+1031184034+1032445671+1032790806+1032521187+1032129106+1031669072
3632+1031428085+1032032711+1033084429+1032703163+1030355362+1028373074
3624+1027817584+1028205227+1029110165+1029856570+1029583264+1028795225
3615+1028892995+1029834628+1030558529+1030571219+1030051611+1029052528
3607+1027774200+1027037359+1027322356+1028149653+1028791099+1028938129
3598+1028855737+1029002455+1029406352+1029557696+1029191682+1028867740
3590+1029020272+1028996829+1027752883+1025732025+1024833151+1025703457
3581+1027390308+1028609374+1028594433+1027613291+1026543444+1025947132
3573+1025990079+1026755050+1027956425+1028681889+1027945986+1025908374
3564+1024215085+1023889642+1024354114+1024671680+1024433693+1023901457
3556+1023531192+1023433422+1023444362+1023585641+1024107625+1024949425
3547+1025568741+1025494851+1024792830+1023891455+1023146550+1022749030
3539+1022721649+1022882933+1023109042+1023524879+1024146383+1024573972
3530+1024350800+1023497998+1022590622+1022193539+1022201228+1022035256
3522+1021517086+1021119941+1021257782+1021731818+1022021316+1021833652
3513+1021304979+1020805688+1020660283+1021003417+1021750822+1022593497
3505+1023056469+1022736527+1021747321+1020878703+1020844509+1021459699
3496+1021885413+1021505521+1020526067+1019741842+1019739591+1020331214
3488+1020739924+1020412356+1019622129+1019054386+1018967493+1019048760
3479+1018957366+1018698062+1018483893+1018455824+1018542592+1018557533
3471+1018505397+1018637425+1019078454+1019665451+1020221442+1020637090
3462+1020672660+1020133173+1019251990+1018467889+1017889832+1017327840
3454+1016692333+1016138905+1015927799+1016190041+1016776037+1017435300
3445+1018133257+1018856595+1019182288+1018646551+1017576891+1016915879
3437+1017073474+1017518192+1017586143+1017180434+1016607690+1016160097
3428+1015961618+1015969870+1016034321+1016009566+1015865848+1015745886
3420+1015828403+1015990186+1015836342+1015300356+1014823881+1014680164
3411+1014580706+1014275205+1014060785+1014375976+1015217713+1016119276
3403+1016521297+1016218421+1015564723+1015108628+1015055992+1015207836
3394+1015236905+1014925528+1014390291+1014088854+1014276142+1014552137
3386+1014370162+1013805107+1013390833+1013352013+1013449596+1013440031
3377+1013272496+1012934989+1012441011+1011964474+1011790375+1012071434
3369+1012631800+1013036697+1012986499+1012644241+1012388750+1012289917
3360+1012109692+1011750117+1011393605+1011252139+1011375477+1011589834
3352+1011550888+1011057661+1010356015+1009940303+1010049263+1010468788
3343+1010801357+1010870872+1010871059+1011092043+1011499252+1011719298
3335+1011524008+1011174997+1011114547+1011420924+1011756118+1011803378
3326+1011557077+1011217131+1010976269+1010856869+1010654327+1010204483
3318+1009778207+1009907296+1010699086+1011608900+1012023737+1011828196
3309+1011335843+1010834364+1010285187+1009479457+1008517132+1007963642
3301+1008270518+1009132698+1009769330+1009795085+1009475519+1009187709
3292+1009030114+1008962225+1008958787+1008921279+1008671414+1008194128
3284+1007786168+1007825676+1008382167+1009153390+1009762329+1009967371
3275+1009701816+1009231906+1009118070+1009541470+1009859161+1009396815
3267+1008441179+1007791856+1007616382+1007476228+1007191919+1006928239
3258+1006760329+1006762267+1007099087+1007612006+1007852431+1007745222
3250+1007602817+1007482792+1007187418+1006775020+1006529469+1006568727
3241+1006788398+1007042388+1007276749+1007542930+1007774728+1007659891
3233+1007079833+1006548473+1006760142+1007716216+1008643346+1008872206
3224+1008553077+1008283646+1008257641+1008182938+1007934011+1007785480
3216+1007980896+1008442617+1008929030+1009305984+1009646492+1009992939
3207+1010112339+1009794335+1009281354+1008965725+1008820195+1008530322
3199+1008000587+1007425468+1007030823+1006898796+1006926926+1006967497
3190+1007051640+1007358266+1007897816+1008355098+1008375478+1007973332
3182+1007493357+1007150098+1006867227+1006611986+1006528469+1006632865
3173+1006724447+1006677937+1006543347+1006382376+1006260850+1006363559
3165+1006872540+1007654953+1008192940+1007976270+1006987252+1005693420
3156+1004580001+1003873416+1003686690+1004090462+1004901880+1005691732
3148+1006169331+1006351182+1006284355+1005934032+1005420988+1004973333
3139+1004593754+1004164539+1003829345+1003842222+1004132095+1004386461
3131+1004477480+1004514487+1004588378+1004670520+1004690711+1004607819
3122+1004442472+1004260122+1004067769+1003750641+1003251600+1002806882
3114+1002765686+1003082189+1003277167+1003060122+1002696422+1002593025
3105+1002767624+1002923344+1002864457+1002665165+1002484190+1002378918
3097+1002335534+1002372729+1002503882+1002624282+1002557580+1002224011
3088+1001694213+1001094526+1000587921+1000373188+1000488837+1000678064
3080+1000683190+1000527158+1000293109+999945912+999640411+999728804+1000172897
3070+1000465395+1000370438+1000180461+1000052309+999651726+998698528+997427388
3060+996246518+995267564+994409448+993692736+993097738+992336579+991170274
3050+989850812+988875922+988399636+988217723+988257669+988716389+989702281
3040+991036809+992437225+993671545+994528723+994879483+994770523+994299425
3030+993526827+992670961+992108157+991933371+991783214+991322869+990663669
3020+990109054+989775797+989696405+990023098+990816763+991788715+992523556
3010+992878505+993017784+993194945+993629098+994420700+995420846+996273086
3001+996692673+996743496+996807384+997172273+997612489+997518157+996507447
2991+994728202+992456292+989600510+985770776+980675404+974175740+966129691
2981+956775496+947346660+939605425+934280505+930301489+925883008+920266652
2971+914505767+910904205+911532461+916672780+924463900+932250020+938349976
2961+942579606+945575104+948102004+950719299+953512004+956154679+958443218
2951+960518149+962453614+964044132+965155926+965927337+966485203+966655176
2941+965982348+964011251+960653490+956316650+951701753+947596274+944764748
2931+943689774+944304089+946104089+948522592+951124383+953517193+955228611
2921+955835925+955363264+954426257+953747741+953574580+953750992+954173017
2911+954847970+955672016+956499251+957265723+957691374+957156700+955369141
2901+952937260+950810380+949321258+948094753+946665268+944843389+942600547
2892+939853164+936429577+932354104+928240936+925206617+924154836+925171110
2882+927627808+930605053+933093383+934194049+933579734+931776546+929843269
2872+928778235+929144061+930933996+933617679+936467959+939004362+941145620
2862+942991316+944585148+945919988+947045597+948059933+949027072+949967267
2852+950903774+951856785+952785853+953592396+954252033+954920797+955765723
2842+956678788+957388186+957899292+958523047+959372911+960170139+960667680
2832+960966180+961296436+961761095+962345467+962926337+963257031+963206396
2822+963002478+963001228+963256094+963557344+963820899+964143278+964486787
2812+964640506+964606624+964731775+965269137+966016918+966547466+966638672
2802+966378305+966014480+965797685+965847007+966090933+966310541+966270345
2792+965954655+965695913+965830066+966231337+966500456+966515334+966441881
2782+966366303+966321169+966475076+966892287+967270679+967287182+967095705
2773+967145465+967566615+968039151+968275137+968306894+968255383+968179618
2763+968236067+968618584+969236087+969723126+969843589+969688744+969464197
2753+969254216+969052987+968917834+968964781+969192203+969418813+969442068
2743+969190953+968721168+968133358+967517667+966969491+966621669+966597914
2733+966914980+967466719+968060905+968452049+968470616+968189557+967860051
2723+967680451+967699330+967841297+967929941+967823418+967604560+967482348
2713+967478034+967396080+967123085+966767011+966502394+966442069+966629170
2703+966982181+967254988+967217667+966922106+966704498+966862219+967359509
2693+967894621+968228690+968354404+968335713+968135608+967713708+967178659
2683+966673867+966167449+965515376+964762657+964250738+964320315+964919314
2673+965596643+965935963+965916959+965801811+965792121+965920523+966145132
2664+966380056+966497893+966421939+966192517+965938589+965834380+966023357
2654+966465073+966889162+966997497+966735942+966366490+966237964+966435442
2644+966705936+966775701+966600039+966255592+965802311+965346466+965086537
2634+965211438+965755488+966487203+966978680+966943235+966533900+966242590
2624+966476076+967171158+967803477+967887869+967460718+966936359+966608666
2614+966466324+966325544+965967157+965303894+964535485+964033255+964055947
2604+964611563+965511750+966497955+967331566+967777159+967629191+966931233
2594+966095934+965607708+965577889+965685911+965586516+965320585+965215251
2584+965403853+965699289+965997539+966465386+967192412+967959259+968491182
2574+968719605+968728794+968582076+968269261+967854425+967595934+967682077
2564+967867928+967758905+967399893+967122273+966948236+966718876+966595226
2554+966849653+967344944+967675513+967672512+967540610+967578242+967754404
2545+967617376+966909416+966128128+966009791+966622544+967409770+967927065
2535+968150424+968223627+968195933+968013145+967673137+967319126+967182473
2525+967434588+967978263+968383347+968332462+968127919+968329774+968920272
2515+969346173+969361676+969288161+969370428+969368115+969035671+968621022
2505+968490557+968549570+968467803+968191995+967845861+967486723+967276992
2495+967498538+968161364+968862885+969152632+968968219+968688348+968628273
2485+968586577+968208123+967574929+967012062+966656488+966594600+966980681
2475+967707019+968312708+968385785+967922189+967317751+966986869+966931545
2465+966862406+966707874+966664740+966799893+966934609+966891975+966694184
2455+966521523+966476263+966427066+966194080+965779806+965318085+964947320
2445+964732088+964612188+964539923+964659698+965065970+965493246+965599456
2436+965416980+965217627+965089975+964885870+964492163+964025003+963723878
2426+963670430+963705625+963666241+963584662+963580974+963633735+963553530
2416+963203958+962683537+962209313+961904625+961817107+962032964+962579515
2406+963273660+963835964+964149654+964311251+964429275+964478410+964404895
2396+964212918+963861720+963310042+962793685+962731172+963181140+963746133
2386+964140778+964467908+964801415+964943007+964791788+964618627+964705708
2376+964938381+965042278+965125420+965580827+966379743+966888537+966685307
2366+966216709+966208458+966682306+967022314+966842902+966266345+965461240
2356+964461782+963411188+962523129+961886371+961594185+961800041+962472493
2346+963313606+963973743+964293434+964195414+963484329+962249509+961156594
2336+960754636+960781454+960558845+959813878+958881871+958275745+958137029
2327+958140717+958015003+957953053+958299563+959022338+959788497+960379058
2317+960701437+960625671+960062304+959112419+958192665+957982559+958858179
2307+960333361+961450656+961693268+961245175+960615732+960288414+960466763
2297+960937424+961329130+961481412+961430839+961196665+960815273+960526213
2287+960720816+961514169+962407667+962720232+962434548+962157428+962151426
2277+961997519+961421149+960861783+960888226+961456469+962093852+962554885
2267+962948217+963356927+963686933+963873284+963952926+963920044+963705187
2257+963321170+962931964+962711418+962586892+962207063+961410772+960710564
2247+960870472+961897749+962957719+963481390+963784954+964352071+965074722
2237+965525253+965536130+965281140+965094976+965327087+966097997+967063823
2227+967573304+967174659+965979910+964568679+963534714+962971222+962382849
2217+961405084+960593977+960923296+962459178+964247862+965538131+966323356
2208+966759135+966895225+966904852+966966365+966968491+966612604+965910208
2198+965500623+965941840+966590662+966157072+964565866+963029296+962305771
2188+962394414+963560094+965939964+968418105+969224147+967559114+964293622
2178+961398332+960473577+961238361+961878432+961226046+959667160+957804085
2168+955847303+954785457+956489811+961367701+966918230+970224980+971342275
2158+972557216+974499745+975317040+973913623+971686222+970554737+970313686
2148+969101372+966513396+964421961+964236672+965267199+966233963+966581348
2138+966163323+965213751+964530734+964677639+965401540+966215772+966803581
2128+966864969+966379806+965811312+965461115+965029837+964282495+963668992
2118+963780453+964440152+964675889+963626546+961481724+959462304+958687081
2108+959139925+959943592+960405188+960462700+960322108+960108751+959864513
2099+959680037+959716232+959986413+960249343+960360679+960470202+960578537
2089+960426505+960128881+960161200+960416565+960196207+959405418+958808794
2079+958855053+959045030+958714711+957968181+957594541+958150219+959259950
2069+960075432+960280850+960159825+959936528+959689664+959709231+960332861
2059+961513481+962814127+963730567+963950801+963522711+962980536+963169888
2049+964496789+966029420+966022856+964140527+962256011+962224629+963796081
2039+965401790+966172575+966172763+965497997+964508542+964220982+965065470
2029+966022794+966220585+966441319+967790662+969611478+970022751+968455675
2019+966746319+967198038+969771824+971959841+971818687+969863530+967750341
2009+966707436+967164844+968374471+968651091+967240860+965271013+964081078
1999+963765324+963900790+964493101+965531817+966502769+966809458+966160510
1990+964685516+963244341+963061241+964269867+965489621+965559573+964876306
1980+964514418+964979952+966123565+967411770+968258822+968663468+969183201
1970+970025439+970583743+969967990+968012645+965760677+964431025+964037068
1960+963713251+963305916+963605666+964743028+965633463+965601019+965522878
1950+966356488+967315938+966936046+965466428+964545237+964777848+965273388
1940+965478306+965714792+965959531+965741360+965173992+965051967+965680410
1930+966306666+966054926+964994830+963950738+963624170+964163282+965098414
1920+965555759+964934130+963479515+962083350+961339382+961168534+961296749
1910+961486788+961494290+961315065+961358074+961932943+962667721+962726233
1900+961599937+959613273+957752761+957012482+957638300+958970515+960199333
1890+960980245+961242362+960903042+959806876+957792770+955065202+952366579
1880+950381228+949269872+949003004+949632385+951081499+953022840+955036134
1871+956758117+957959117+958669077+959177308+959706543+960252844+960729506
1861+961075828+961263429+961291622+961248676+961312627+961558490+961827484
1851+961921566+961912252+962123295+962678473+963127817+962887517+962275202
1841+962136423+962521003+962935777+963198081+963595914+964367137+965315772
1831+965991225+966109062+965869512+965635651+965467679+965369533+965479556
1821+965795809+966112625+966277910+966328858+966359176+966271033+965783307
1811+964806604+963724128+963014168+962762866+962871826+963324483+964072576
1801+964976889+965925774+966835901+967589370+968084785+968214937+967819043
1791+967033817+966580535+966899726+967649820+968305644+968665469+968893766
1781+969141068+969361363+969551965+969821959+970155153+970361009+970304497
1771+970192349+970414645+970977512+971640212+972326543+973024688+973511727
1762+973448276+972873781+972188264+971497683+970721271+970071636+969830023
1752+969978992+970318875+970728773+971223126+971780366+972345734+972930106
1742+973497661+973848734+973913873+974039899+974492306+974985846+975027917
1732+974794493+974629772+974173927+973187659+972103559+971614832+972188076
1722+973786971+975878281+977875759+979424144+980482739+981339355+982204785
1712+983079029+983961587+984866401+985713764+986356398+986846750+987456939
1702+988112763+988176089+987160815+985735832+984775382+984518266+985003242
1692+985920495+986890322+987900782+989248125+991110762+993168690+994417700
1682+994342997+994023868+994129577+994621180+995485297+996830514+998651018
1672+1000712947+1002816884+1004899130+1006860038+1008600212+1010163662
1664+1011577581+1012719069+1013562181+1014432925+1015588353+1016950386
1655+1018456012+1020458241+1023337715+1026033900+1027792079+1028799913
1647+1028432462+1026079097+1023421920+1022561991+1024058240+1027405561
1638+1031559550+1035872134+1040378071+1044562129+1047418848+1048794134
1630+1049005803+1047429288+1044049397+1039261589+1033280095+1026454175
1621+1020004146+1014085290+1005070415+985415577+950735177+909964822+871730120
1611+834512442+796267737+758789130+725317981+697936911+677743398+666022398
1602+663953218+670879533+684100971+700897027+719584288+738734271+756656624
1592+772220486+785640027+797883323+809409908+819811259+828598587+835835592
1582+842010939+847715625+853478136+859843023+867325204+875324242+882394400
1572+888557682+894847678+901692414+908255842+913796494+918204786+921213037
1562+922221434+918410704+901718295+873289882+855853255+851230606+851595120
1552+856042670+865933039+880158685+894825673+907036276+916895951+925390906
1542+932888152+940158415+947548327+952804545+954610420+952062891+942780085
1532+927583424+913767426+906439589+905906041+911645484+921684135+932800822
1522+943752162+954492271+963889725+971868010+980025581+988763836+996858395
1512+1003629303+1009315548+1014233696+1019051448+1025007875+1031062446
1504+1034618498+1035605329+1033807142+1027453821+1012845595+985413639+947216945
1494+907848132+871103552+833043824+792383304+759937619+747978819+753828286
1484+769072394+788512187+808203907+822850266+827493044+820852913+806820620
1474+793734585+789157321+790857237+789891786+784453155+780278537+786280348
1464+807617223+835618047+857377447+869082694+868946979+849739046+813212637
1454+777610919+748771984+724238006+705413153+696459729+699929263+713625174
1444+732357445+752594091+772848804+792045172+810147499+827940450+842598123
1434+846934525+838030361+818007696+792060237+770499190+762227595+767131615
1425+780448947+797330333+814120826+829872039+844100811+851959320+847360676
1415+829224529+800237876+767455807+742038396+731934107+736215810+748861940
1405+764374416+779166931+791903017+803428164+814968877+826585543+837744739
1395+848462031+858645086+867634206+874940288+879780919+880056664+873916262
1385+863159962+851775970+841981495+834542886+830615444+831252764+835811649
1375+842694268+851766030+864103409+878478711+889757119+891023883+878743704
1365+856046858+830037573+808893426+798359672+797208058+800397846+804722496
1355+809484861+814870481+820496839+824903506+825948223+821951079+813669357
1345+805362129+802451148+807486258+819023220+833560556+847682868+859613850
1335+869375505+877516886+884278980+889555702+892960348+893981623+892288146
1325+887832844+880817447+871958542+862885655+856063924+853743879+856074489
1315+860181531+861610765+857035376+846857072+835924485+830878623+835737759
1306+848932941+864391406+876150664+882524553+886498504+892424737+902217148
1296+914482699+926684925+937394840+946378833+953169246+955968828+951946116
1286+938960290+917965611+894560118+877588088+873817054+882121344+893107191
1276+894716401+878584421+844211521+801065048+765657558+751510178+760093464
1266+782052093+805096949+820036243+823343181+817803717+810171942+806198678
1256+807720932+813809136+822713675+832666620+842345696+851099517+858628708
1246+864894636+870606699+877198382+885721342+895793875+905529150+911687618
1236+909839609+896412066+872844164+847332233+830284562+827153349+835990374
1226+851057445+867385404+882497109+895893020+907993662+919299951+930048999
1216+940288379+949869559+958269931+964840986+969565093+973176469+975813768
1206+975350734+967256676+946500421+911094995+866147584+824326073+798006474
1197+787055509+776063160+748074151+701806966+653399773+621925602+615575468
1187+630341540+657039655+687551001+716904106+742834186+764837575+783374368
1177+799230166+813135683+825670978+837281393+848308936+859028728+869503719
1167+879159040+886176750+887016112+877147497+854163404+821524615+788468615
1157+764717613+754747039+756756520+765882105+777607419+789109499+799176217
1147+807743062+815265564+822094546+828224884+833410212+837355908+839988956
1137+841855031+844163199+847985994+853185388+858328083+861548502+861020517
1127+855244066+844800394+834206878+829785209+834240573+844462449+855246379
1117+863756962+870037393+875094570+879661332+883949599+887707068+890578103
1107+892587333+894144094+895463431+896031987+894666578+889966413+880877773
1097+867711972+853328543+842716210+840196874+846527753+858726728+872373191
1088+883713175+890107130+890018924+883869145+874751436+867055398+863232165
1078+861593949+857837418+849628523+839849927+834558639+837478184+847145882
1068+859265152+870454855+879318948+885451474+888969205+890863912+892732238
1058+895629153+899406189+903310751+906853613+909892870+912344442+914211393
1048+915629000+916658089+917245524+917460069+917549712+917781010+918343127
1038+919307078+920599534+922113536+923874840+926027225+928658710+931669586
1028+934769544+937524179+939395318+939821532+938302028+934414345+928034393
1018+919868507+911653986+905491954+902749884+903338069+905798893+908006978
1008+907527065+901632464+888957453+872671941+860407515+858539439+866709826
998+879192172+890735073+899727068+906819168+912715269+917692680+922025206
988+926035665+929891279+933597613+937113781+940394089+943393462+946096525
978+948584917+951067871+953780498+956835696+960077745+962877890+963880536
969+960197520+946282188+916374093+872864168+831408859+810891341+815986401
959+834370600+851971073+865199824+877295465+889695106+900797478+909152591
949+914232585+915803287+914917165+914447254+916771050+921525227+926870713
939+931962585+936831348+940903382+942897672+941290337+934407093+921890052
929+907124481+896587727+895141364+902210084+913096974+923364422+931324765
919+937274940+941922156+945763705+949043388+951791272+953982852+955627382
909+956736550+957408190+957899479+958522797+959536257+961033006+962803062
899+964489913+965958593+967283994+968350341+968553133+966989995+963395810
889+959156803+956736613+957526402+960711627+964538548+968020334+971039587
879+973553298+975498140+977189241+979019060+980839938+982014307+981164506
869+975362424+962146113+944754120+932844643+934267564+947209631+962972785
860+974854131+981967923+986347521+989618952+992381651+994776024+996904092
850+998998215+1001297256+1003816780+1006347368+1008665663+1010798107+1013169975
840+1016334758+1020397416+1024896476+1029395162+1033913664+1038571508
831+1043063067+1046748209+1048794134+1046313931+1030289536+985869047+904721294
821+802376883+717265681+681919142+692997571+714571246+711839427+679127249
811+637242225+610847985+611487868+636427868+675688221+718437737+756194340
801+783259157+796151963+794663216+784076514+774094938+772849242+781296749
792+793873489+804474569+811541039+817912614+826885230+839057012+852576011
782+865409305+876758541+886668477+895209003+902421566+908622168+914306038
772+919759484+924869610+929315847+932963668+936061813+939044683+942204528
762+945554974+948900108+952029384+954919860+957743259+960654052+963622170
752+966527962+969407811+972473323+975829459+979342064+982797470+986011139
742+988899927+991245477+991191591+983832311+963794330+931567815+896717629
732+872955687+868657918+880667604+896870349+906337943+908099059+909645943
722+917474572+930867920+944502256+954580039+961065325+965660344+969773949
712+974001578+978202140+981976050+985361441+988816535+992540997+996266459
702+999629471+1002184940+1003269791+1002935346+1003224594+1007197858+1016050824
692+1027931483+1037938626+1036043982+1008958286+953960973+890881041+849715291
683+844049800+862827518+887306672+907763802+923282530+934953520+943531366
673+949851118+954882852+959576828+964313939+968206811+970720333+972705809
663+974783116+976928625+978926790+980700472+982359379+984060358+985911306
653+987974547+990139372+992105469+993832953+995694590+997816844+999810634
643+1001433596+1003036242+1005174875+1007979770+1011026279+1013583061
634+1013367704+1004117467+978592221+939270355+903254114+889296711+899467514
624+918416142+931361022+937336890+943688399+954475330+967382764+978269529
615+985418265+989738602+992855187+995665647+998033264+999551455+1000458144
605+1001333013+1002154684+1002545640+1002786815+1003665061+1005405110
596+1007562684+1009842095+1012324299+1014937968+1017215129+1018786581
588+1019863680+1020863012+1021257782+1018664680+1009925488+994712136+978193075
578+968149424+968672470+977118414+985982445+985102137+962958282+914538523
568+854062508+811851791+809254501+840604584+883038284+918312246+942146328
558+958134091+969964301+979496221+987360357+993376608+997354623+999613343
548+1000504403+1000148517+998777794+996500320+992723222+986649397+978757443
538+971727918+969301101+973276678+981633791+990277089+996247643+998769917
528+998462979+996787568+994953061+990903219+978094492+949973143+908080493
518+867352397+847897601+856464320+882432346+911776261+936986817+956448303
508+970918187+981484322+989040894+994444268+998302195+1000203028+998743724
498+993098925+984710868+977466612+975401932+979579739+987717431+996549518
489+1003902547+1009143700+1012781207+1015497271+1017254825+1017949281
480+1018386685+1019606814+1021796894+1024340048+1026597705+1028607998
472+1031029564+1034017123+1036842961+1038911954+1040235854+1041189115
463+1042454441+1044628705+1047252439+1048794134+1048650042+1047119974
455+1046045500+1046541041+1048269400+1049756959+1050197051+1050530620
446+1051417055+1049578422+1036735001+1005786939+961036569+918188970+893860535
436+895725298+916697535+941668854+961882745+977260881+988865045+995344142
426+995700717+992024577+988750959+988528287+987933664+978016976+957809836
416+942249725+940726283+951152951+966603540+979487782+987152501+992793737
406+1000095318+1009568851+1019668326+1028686827+1035107100+1038334084
398+1040597992+1044880320+1048794134+1053516616+1056348455+1061075314
389+1068162538+1073741823+1070872601+1050923702+1012379936+970706206+945089878
379+942620114+959920837+989980527+1023657281+1048794134
##END=
