##TITLE=X8156
##JCAMP-DX=5.0
##DATA TYPE=LINK
##BLOCKS=1


$$ === CHEMSPECTRA SPECTRUM ORIG ===
##TITLE=X8156
##JCAMP-DX=5.00
##DATA TYPE=INFRARED SPECTRUM
##DATA CLASS=XYDATA
##ORIGIN=ComPlat
##OWNER=
##XUNITS=1/CM
##YUNITS=TRANSMITTANCE
##XFACTOR=1
##YFACTOR=8.8679719e-010
##FIRSTX=3997.453
##LASTX=373.96442
##MAXX=3997.453
##MAXY=0.9521912314218773
##MINX=373.96442
##MINY=0.37614089164152026
##NPOINTS=2559
##XYDATA= (X++(Y..Y))
2559I29688340I30579253I31246615I31260931I30893879I30593973I30490532I30614473
2551I31086042I31751925I32161053I32197483I32222553I32435956I32634504I32634370
2543I32457666I32164078I31832917I31614474I31572533I31578380I31485223I31335673
2535I31343738I31696878I32357787I33056873I33453364I33267789I32433335I31334261
2527I30773433I31380639I32879430I34133228I34329828I33871499I33745138I34292457
2519I34832449I34708373I34144991I33725579I33697551I34098614I34955248I35838432
2511I35966608I35315041I34731226I34776326I35007070I34684848I33838363I33123818
2503I32990197I33172346I33070652I32618306I32363433I32758446I33621802I34430917
2495I35084432I36007944I37370024I38560574I39043032I39011442I38634845I37795888
2487I36726724I36127987I36574553I37578183I37781571I36968760I36274109I36291585
2479I36142707I35332987I34903830I35454913I36039131I36168047I36475749I37046324
2471I37257441I37360009I38174030I39174434I39481532I39615825I40043503I39778951
2463I38077377I35992485I34785333I34771285I36121737I39400876I43375674I44502641
2455I42887907I40927158I39667176I39121941I39046258I39143785I39202261I39420368
2447I40220342I41349863I41840924I41379638I40500084I39649700I38919158I38502905
2439I38700109I39241110I39538529I39936365I41260402I42498540I41751463I40007611
2431I39371773I39697758I39260064I37616764I35566285I34203870I34604529I36499543
2423I37908336I37959485I37695471I38027639I38779220I39909278I41339378I41974880
2415I41003176I39221887I37901077I37532478I37951957I38818808I39528783I39435289
2407I38677324I38046661I37930314I37905580I37536982I36983076I36723028I37261004
2399I38659580I39977634I40204816I39783452I39669461I39849458I39937373I40157565
2391I40747496I41120732I40749110I40140022I40201388I41568508I43839716I44939797
2383I43855914I42242793I41976628I42882664I42716983I40789438I38253745I36418282
2375I36544442I38760534I40660926I40224238I38633568I37656890I37726053I38470038
2367I39266382I39591897I39463990I39160857I38687473I38058087I37588333I37513121
2359I37843676I38626175I39715636I40412102I40243665I39370563I38162201I37242654
2351I37280563I38071731I38553315I38416738I38271154I38508753I39212208I40674234
2343I43226594I46251601I47678877I46303691I43476898I40858667I39239094I38864041
2335I39503847I40664421I42271896I44406392I45767127I45200047I43986510I43692384
2327I44203407I44315049I43703004I42733316I41735130I40957740I40454648I40247227
2319I40718393I41949272I42821634I42547202I42184586I43656425I46923197I48378165
2311I46558497I43858670I42119725I41593646I41805032I42181091I42208447I41571734
2303I40403566I39133837I38154807I38004249I39277405I41052914I41415665I40511914
2295I39715099I40211604I42550160I45748374I47461375I46936640I45643925I44754355
2287I44312091I44246289I44917617I46159115I46699780I45701258I43915263I42602183
2279I42122951I41841462I41356987I41042899I41133973I41155146I40654070I40003713
2271I40107827I41459958I43241382I44132968I43965942I43170472I42140023I41479652
2263I41579060I41962647I42002169I41889519I42103728I42666640I43729082I45930791
2255I48797577I49870168I48183381I45586457I43858401I43252069I43182503I43262689
2247I43390394I43447122I43377153I43315653I43518301I44229889I45279561I45760943
2239I45021327I43918826I43857057I45026234I46321570I46635457I45861293I44688755
2231I43866198I43846975I44601042I45490473I45793138I45473875I45023007I44740846
2223I44550228I44262219I43808932I43379438I43265646I43459288I43652862I43680084
2215I43645267I43661264I43774586I44038667I44422792I44723303I44677060I44189897
2207I43508152I43110383I43258454I43662205I43789709I43446921I42921850I42679142
2199I42968160I43668321I44478781I45103999I45275864I44929850I44381926I44057218
2191I44118786I44429177I44686873I44674103I44500154I44369962I44129473I43484288
2183I42635789I42147753I42176251I42346503I42432200I42697290I43366802I44054933
2175I44136530I43712950I43696551I44655350I45941478I46349933I45546062I44347244
2167I43682167I43747835I44049220I43996726I43493365I43005127I43042565I43621070
2159I44300531I44663953I44667314I44601109I44745618I45016286I45027577I44564881
2151I43851007I43359409I43506136I44347580I45361427I45783392I45376617I44643319
2143I44274385I44643857I45690907I46937177I47691110I47535645I46660998I45633439
2135I44897923I44528182I44336423I44097681I43743735I43457473I43494306I43807386
2127I43976159I43680218I43198567I43205692I43941477I44808597I45060445I44739770
2119I44555337I44965002I45704282I46137069I45938118I45469237I45320427I45488258
2111I45527444I45526704I46081013I47131222I47719609I47233320I46210668I45555808
2103I45529998I45871912I46386969I46973943I47392615I47395774I46974750I46372047
2095I45944772I45868417I45863107I45545188I45066494I44976630I45519849I46458148
2087I47363781I47817538I47678071I47337366I47330981I47619797I47642313I47111395
2079I46405587I46096069I46401957I47192387I48109984I48523817I47887373I46505802
2071I45512657I45734730I46881928I47975355I48311826I47908814I47183111I46431329
2063I45770084I45406594I45587533I46250727I47009970I47531545I47756374I47763969
2055I47618923I47458014I47551306I47995923I48393087I48184389I47327015I46290719
2047I45467288I44978243I44908677I45230159I45590557I45648428I45574829I45768538
2039I46085920I45866401I44875003I43733518I43129808I42977704I42676252I41933947
2031I41050226I40557955I40718527I41224375I41472326I41355576I41429981I41915396
2023I42057485I41111927I39541890I38515676I38515810I38995042I39151447I38668250
2015I37892137I37517423I37919157I38701454I39138475I39097811I39129469I39528582
2007I39888913I39879301I39866799I40306980I40971989I41254756I40970510I40480525
1999I40126982I39852416I39520180I39415193I40022197I41296630I42544178I43058293
1991I42635789I41646946I40772903I40392543I40257175I40084100I40115758I40603189
1983I41228207I41582421I41766384I42063400I42402223I42518973I42364046I42093041
1975I41882999I41899937I42191576I42518368I42585715I42489600I42566224I42801739
1967I42790985I42240171I41244674I40279422I40003713I40683778I41809737I42649366
1959I42953037I42819618I42366398I41813165I41371169I40977232I40635116I40766451
1951I41624564I42676386I43131959I42870364I42443021I42362836I42702465I43213018
1943I43547942I43383068I42588336I41429107I40394693I39689020I39115824I38481531
1935I37741848I36762952I35422247I34016344I33193854I33358325I34253944I35183236
1927I35691974I36014464I36613739I37417073I37962106I38148758I38270750I38434348
1919I38519507I38611791I38977701I39666503I40439794I41019643I41209118I40910422
1911I40263627I39689625I39585108I40021256I40820961I41705086I42267124I42184519
1903I41679343I41433140I41911834I43029794I44405451I45627455I46406797I46696890
1895I46540618I45882868I44888177I44224781I44527443I45661266I46828359I47356455
1887I47242998I46930053I46678608I46392278I46063336I45914996I45889993I45524957
1879I44573887I43172219I41226862I38257039I34073610I29265164I24970363I22275106
1871I21639335I22772284I24981386I27468147I29467342I30649491I31426411I32483677
1863I34063999I35903226I37547803I38526363I38555466I37736135I36336752I34421439
1855I31858459I28568834I24698685I20674890I17004299I13923103I11383647I09310652
1847I07576479I05880887I04022571I02220916I01034062I01063367I02594623I05256407
1839I08206873I10844324I13054370I14700628I15334450I14606529I12659492I09978686
1831I07024993I04075334I01286785H98737179H96387063H94127483H91869785H89541715
1823H87190255H85165653H83899622H83394513H83253567H83239721H83410174H83661283
1815H83545071H82715322H81343159H79920791H78799470H78085059H77745228H77494791
1807H76826555H75588283H74337307H73818890H74293955H75471063H76845106H78079480
1799H79196230H80302832H81193812H81513950H81253431H80808209H80594471H80662759
1791H80546883H79561334H77421394H74435775H71029468H67398936H63749048H60535844
1783H58290312H57356315H57837359H59578457H62108974H64766524H67058568H68923874
1775H70647158H72510044H74474691H76206377H77431476H78193205H78663968H78828103
1767H78544126H77912320H77410505H77502319H78115574H78679225H78715789H78212562
1759H77412521H76529136H75688364H74872259H73878509H72515556H70861703H69252278
1751H67979526H67005200H66064347H65103532H64434960H64338442H64691783H65097684
1743H65295493H65477104H66158513H67583101H69379782H71053731H72600177H74346112
1735H76432214H78711353H80978931H83137556H85186489H87058113H88530557H89443651
1727H89926781H90271048H90676613H91211229H91880674H92668617H93574451H94609739
1719H95743831H96894390H97967855H98844586H99368716H99482239H99387065H99431964
1711H99784162I00333631I00915699I01433310I01807016I02051673I02334977I02753717
1703I03188251I03498979I03652494I03592271I03240073I02659080I01970882I01111425
1695H99874564H98251361H96571564H95222322H94373484H94099926H94532645H95611219
1687H96880947H97855541H98503141H99155515I00011410I00873422I01365760I01353191
1679I01088169I00922421I00962614I01085346I01197256I01348822I01594017I01855544
1671I02052816I02343648I03056782I04314277I05844793I07230666I08211646I08762527
1663I09114254I09703043I10794118I12104578I13081390I13563848I13872760I14272344
1655I14676700I14875786I14790963I14510347I14209836I14032056I14029099I14207147
1647I14508599I14764144I14847691I14865166I15019555I15369199I15890976I16625350
1639I17519154I18283034I18701102I18968342I19397499I19881369I20033136I19842452
1631I19785791I20198011I20859458I21305217I21293522I20875992I20255008I19703119
1623I19449254I19519492I19770399I20059014I20287606I20414304I20559955I20905432
1615I21363222I21616953I21593495I21629522I22067887I22861274I23588120I23830088
1607I23618971I23440452I23654392I24098673I24423986I24539391I24526015I24360872
1599I23936218I23220664I22361408I21743448I21823499I22656878I23706281I24402679
1591I24780485I25231823I25812816I26272623I26678188I27439178I28654060I29935887
1583I30985491I31870960I32655542I33239559I33695132I34306437I35139615I35941874
1575I36513859I36829695I36778949I36151714I35021857I33957264I33648687I34311680
1567I35569243I36886289I37916603I38486035I38580201I38445707I38473063I38898053
1559I39644525I40425813I41036648I41534901I42008554I42323113I42398593
1552I42458951I42612937I42616029I42520720I42991819I44367139I45887304
1545I46444100I45757919I44360216I42847108I41673831I41305502I41940803
1538I43163213I44235939I44712750I44636329I44354436I44298783I44717590
1531I45440739I45999954I46030400I45536383I44883472I44547002I44681294
1524I44951291I44963994I44735536I44525158I44436436I44390664I44209793
1517I43621608I42605947I41788565I41975888I43193324I44603797I45424137
1510I45589549I45567705I45818343I46428439I47136532I47660125I47853834
1503I47544585I46637002I45528788I44907064I44933210I45139421I45190705
1496I45129070I44899671I44386228I43943224I44201727I45307858I46779495
1489I47981606I48502241I48386903I48203814I48513802I49196623I49677803
1482I49784874I49923872I50413992I51061189I51491288I51677402I51958757
1475I52489071I52823524I52381596I51297780I50344426I49908681I49601583
1468I49035714I48443564I48296434I48725591I49506073I50352290I51084445
1461I51591839I51750664I51520795I51096073I50791933I50826346I51335420
1454I52414800I53954927I55576182I56826754I57433422I57481076I57363318
1447I57386507I57507827I57580821I57572419I57419912I57037804I56580282
1440I56413862I56792677I57643262I58581695I59206377I59546476I59988875
1433I60623369I61033102I60920654I60522213I60204899I60042108I59983095
1426I60062810I60230843I60291066I60126999I59615572I58361504I56044256
1419I52940946I49558903I45935564I41844957I37429642I33050824I28741236
1412I24252793I19430837I14331962I09119832I03946015H99129369H95549046
1405H94144824H94651815H95761037H96980759H99301570I03648999I09724350
1398I16391246I22253934I26039527I27033613I25279478I21694584I17962628
1391I15497443I14501743I14561026I15495157I17325983I19770198I22075886
1384I23607544I24462230I25145118I25800516I26247283I26587921I27249838
1377I28514055I30401474I32976016I36239696I39649700I42374531I44158105
1370I45459088I46741452I48137273I49833604I52205027I55280779I58367486
1363I60599576I61885368I63011999I64731653I67011263I69168140I70457226
1356I70637894I70258879I70215056I70880334I71938273I72980618I73788456
1349I74146434I74016981I73875228I74311443I75243357I75910584I75686764
1342I74656718I73447818I72720166I72745640I73311241I74166195I75510396
1335I77510935I79365285I79809767I78834165I77879466I77960525I78605438
1328I78996418I79036276I78942782I79014902I79996688I82311450I84805604
1321I85653367I84696786I83621304I83689795I84377186I84426857I83512015
1314I82442180I82046965I82339074I82763460I82892173I82868716I83341360
1307I84724276I86546700I87918256I88377391I87953947I87026267I86458919
1300I87120299I89079031I91708218I94252379I95990584I96526073I96219446
1293I95806756I95597319I95358106I94799563I94019484I93494077I93557124
1286I93931166I93862071I92724686I90651825I88438622I86608738I85261311
1279I85237988I87907300I92933316I98107537A001987027A004571314A005319735
1272A003104046I98645513I94846478I93834513I94814216I95495289I94944609
1265I94153239I94522509I96752650A000028966A001617219I99520027I95501607
1258I93002075I93727711I96901595A000196529A001705940A001589191A001128712
1251A000708830I99976674I98854681I97224488I95077289I93722334I95124540
1244I99339155A003976610A006650292A006849311A005449256A003570238A001934735
1237A000673207I99701503I99262129I99563178A000077091A000177777A000293854
1230A001240286A002634023A003224358A002632679A001738673A001480574A001895885
1223A002239211A001908454A001182079A000714946A000550677A000288948I99900051
1216I99589928I99190547I98439639I97574737I97032661I96809512I96692695
1209I96847421I97445216I98054506I98362881I99132071A001249561A004152373
1202A006371222A007404493A007999332A008830694A009796618A010594373A011442472
1195A012844610A014562719A015317727A013993354A010849650A007383254A005419615
1188A006072122A008539593A009979102A007941864A003337545A000067144A001110295
1181A005776114A011447309A016531130A020454779A022083494A020293265A016205616
1174A012925401A012186860A012756023A013121194A013853147A015926680A018768194
1167A021461569A024242052A027380581A029656359A029285678A026110383A022236136
1160A020560976A022521322A026637067A029350807A028453643A025647955A024171612
1153A024467889A024370430A022928299A021764567A022835007A025944164A028640631
1146A028871441A027334809A026224242A026303688A026566627A026179680A024931661
1139A022413310A018487242A014343334A012157085A013605063A018633632A025145669
1132A030107092A031920373A031542165A030695680A029638884A027704079A025671748
1125A025635654A027892478A030246157A031082023A031219138A032206167A033914529
1118A034607701A033038806A030026436A027923128A028638816A032102658A036343218
1111A039119669A039601320A038359754A036347654A034560719A033882872A034325270
1104A034811962A034232045A032430525A030046668A028037524A027231435A027569653
1097A028115291A028318947A028579130A029162946A029558161A029469842A029498878
1090A030289913A031549895A032592509A033368891A034399272A035840394A037140503
1083A037930596A038545330A039228756A039587070A039270630A038638286A038344362
1076A038624642A039209331A039797179A040428784A041134054A041480808A041314589
1069A041664502A043446329A045741733A046704834A046003395A045009511A044744488
1062A044997211A045263846A045595477A046540027A048517041A050893035A051830460
1055A050492040A048519528A047716395A048220899A049012875A049215523A048912323
1048A048825685A049420793A050471202A051433766A052079418A052651135A053517986
1041A054846056A056393980A057353182A057040170A056015636A055308484A055207597
1034A055258275A054901641A054198925A053805458A054152548A054878318A055426040
1027A055956085A056628689A056764124A055762443A054081503A052550584A051531024
1020A050812647A049915886A048652342A047222982A045709336A044060390A042736287
1013A042541905A043695018A045759343A048294901A051016640A053475709A055261569
1006A056534859A057840345A059534122A061408435A062537284A062209686A061112494
999A060346396A060211499A060340011A060549918A061035468A061585744A061688244
992A061561345A061972691A063196580A064610346A064902052A063366159A060880272
985A058539767A056743490A055625328A055243421A055207193A054850290A054184810
978A053679500A053402312A053343836A053916495A055480080A057594411A059016781
971A059072501A058275081A057227964A056190794A055396466A055025179A054994060
964A055369850A056712706A059393041A062385382A063856481A064000250A063900842
957A063859707A063962208A064374562A065104970A066020483A067213991A069127489
950A071846002A073741823A072827519A069979083A067163850A065434986A065019810
943A065589309A066538026A067289539A067617339A067790010A068188317A068609610
936A068377522A067453137A066103089A064701689A064020280A064459452A065519139
929A066385788A067120162A068449978A070065856A070147385A068363273A065974577
922A063867101A062156654A060190259A057419522A054130838A050103479A043566238
915A033134921A020454376A007023393I91084410I69774002I43627052I16575747
908H90914145H67285346H45448589H21067268G88485914G58606471G40600273
901G26481563G08304979F86181557F68118160F57408984F52119089F50566123
894F51828794F55319521F59527281F60857300F57987221F52839280F46349357
887F38167135F28101527F16732718F04308861E90560967E76858912E65793841
880E58367871E54534220E54093200E55607585E57677723E60544072E64678233
873E69510137E73868522E77195383E79761455E82074470E84383855E86573196
866E88558545E90543626E92603447E94307777E95004646E94346223E92507601
859E90060496E87546715E85095510E82509340E79594766E76493877E73885997
852E72790957E74442389E79799162E86968814E92406646E96316920F01129869
845F07591831F13508895F17398063F19998818F21722438F22579207F23803634
838F28159801F35190657F39040438F40152753F41692141F44881282F49798277
831F55874771F62109687F68233095F75098674F83139882F91782180G01473947
824G12011259G19175534G22482433G25533249G30949169G38257752G44757354
817G50063649G55999398G63311744G70541821G76373389G81439733G86356997
810G90392691G93372193G95997145G98393638H00559993H03271179H07320786
803H12848886H20217288H29529905H36021575H35651028H30517740H21752643
796H08448560G89421323G65622339G43139796G29222861G25937672G32778785
789G48704594G68357924G83188424G89517102G87542641G76876414G57257028
782G31560206G05347052F83436966F69489717F67833512F81843874G06222372
775G28410049G43080917G51663261G54973453G53337680G50337947G50471970
768G55146460G63990331G74613003G80667451G80055473G76931664G73461907
761G68848716G60532067G46197804G27058388G07689371F92571332F84714356
754F85108361F92987787G07211551G23540641G33090790G31671176G21030422
747G02924076F80179334F57977878F40110744F27888057F22229362F24047551
740F34307675F52669566F71525140F79458740F73992342F59567676F42750416
733F31282266F30463136F40461531F59030977F83659644G10147701G34790683
726G58198822G82487859H06847268H29042809H48862021H66460032H81021880
719H92980151I04215406I15909259I26846356I34349656I36711937I32106678
712I16104447H83497014H33892659G73927763G14571955F68413294F44184414
705F40788323F51591800F70712530F93788903G18781798G46362409G76306915
698H04568599H27324768H44791108H58689694H69787499H78032968H83321587
691H85617596H84688102H80212228H72112880H60652527H46282775H28914566
684H06963547G78195477G43295194G08009105F80106744F65895145F68912421
677F88818338G21417370G60689683H00948554H37663128H67498950H88445263
670H99801839I01455961H93211902H75121688H47875329H12636088G71479314
663G27747392F84632154F43804456F06148222E72896414E45519561E25183175
656E12475644E07056968E07434976E11466032E17374794E24481400E33061862
649E43569667E55985929E69773411E84278128E99131144F14328361F30002657
642F46190128F62793717F79664009F96654680G13658189G30645567G47646051
635G64629194G81368352G97463002H12596029H26773752H40207356H52895631
628H64333670H73678011H80299337H84262305H86334158H87677754H89507974
621H92715397H97584469I03839146I10862542I17774431I23455709I26751518
614I26722079I22643167I13782896H99244976H78121354H49929235H15033657
607G74807788G31521155F87894289F46262719F07869355E72976802E41637080
600E14385714D92521434D77811111D71373615D72280390D77412906D83187510
593D87435262D89417687D88805743D86152663D84377960D87970516D99711485
586E18660015E40968038E61338400E74383107E77280676E72496427E66922690
579E67259496E76080178E91935548F12019782F34122300F56988228F80062921
572G03054067G25466640G46649074G66187738G83842880G99155838H11506970
565H20375979H24975257H23519146H13198059G91216256G56194989G09130225
558F53704652E96009150E43373908E02159162D75502197D62650930D60233634
551D64149116D70852274D78038629D84991955D92279970E00767643E10873781
544E22641467E35971260E50475506E65426789E80110226E94124285F07357122
537F19825945F31483570F42040374F50842975F56708016F57961075F53266959
530F42817092F28443777F12346708E95735188E78458726E59643816E38916047
523E17437807D97772312D82520014D72976015D68887727D69052501D71956086
516D76245812D81112699D86360520D92059845D98171290E04516066E10986935
509E17636254E24527509E31552686E38412955E44760285E50400227E55421740
502E60096834E64613507E68954416E73080041E77162784E81501072E86125622
495E90591951E94354692E97364306F00128927F03149295F06485230F09923934
488F13336761F16722770F20115702F23659125F27623975F32178422F37230315
481F42423893F46861052F48613238F44878123F33391892F14655690E93216164
474E75932779E67734292E68712717E75368388E84054173E92826932F01009826
467F08358535F14820699F20530610F25736489F30625389F35128149F39046824
460F42462944F45759156F49107525F52237317F54886465F57215880F59577422
453F62052152F64417257F66525405F68582269F70971369F73816915F76842996
446F79728534F82478435F85312823F88249377F90920370F92803958F93608435
439F93520789F93236611F93722563F95674709F99003721G02935637G06695352
432G09985381G12853578G15407283G17780991G20202085G22901307G25907628
425G28997158G31931628G34696114G37415232G40154648G42924846G45741358
418G48612781G51609019G54913431G58629794G62602307G66565813G70392876
411G74128865G77865661G81571538G84959026G87521469G88590631G87002447
404G80431801G65415590G39273010G03347453F64484873F32176473F13071739
397F07706027F11941075F20801346F31045675F41300220F51036079F59929620
390F67916989F75279949F82321358F88962511F94811084F99680694G03904384
383G08014953G12230980G16393640G20254981G23657054G26572234G29143616
376G31634477G34263999G37071234G39907168G42548654G44888957G47012766
369G49042140G50945354G52587243G54002623G55488912G57282233G59258441
362G61138332G62812886G64262007G65423387G66391529G67492215G68988856
355G70910957G73147012G75467554G77581550G79400277G81137474G83045058
348G85213361G87642857G90290930G93019861G95651668G98106167H00433161
341H02771045H05318163H08208272H11308288H14293839H17093680H20106722
334H23771734H28044422H32526815H37000337H41558547H46248832H50636925
327H53287687H51188747H39914037H15213184G75646813G25204508F74088726
320F35159605F16418226F15412109F21009707F20555412F06492355E79449921
313E47584490E22161765E10901473E13409439E22168285E27678674E23538766
306E09257635D90735641D77723163D77915494D91085823E08681751E19939422
299E19283050E08622367D93779635D79951085D69951715D64649285D63782971
292D66631643D72494969D80801300D90956370E02223182E13796790E25075399
285E35847688E46152240E56067123E65678234E75032389E84054106E92664275
278F00935555F08998406F16873732F24463131F31643067F38406616F44983177
271F51673800F58456639F64939505F70882244F76599818F82628725F89151986
264F95968835G02916952G10102735G17673382G25472959G33070894G40167015
257G46519487G50565263G47725430G31545957F99429921F58498110F23600716
250F07055065F10292264F25773120F45062758F63573594F79881579F93775595
243G05395378G14980411G22921605G29914419G36559001G42737927G47945621
236G52210445G55901468G58411955G57540198G50287470G34643150G12177747
229F89528784F75415115F74453963F84398722F99514476G15096421G28819580
222G39999923G48898169G56228797G62590679G68225648G73286278G78059840
215G82805442G87567510G91997545G95133049G96063014G95638360G97683730
208H04879125H12862328H17674740H20005230H21377189H21485067H17514167
201H04767349G78756507G39886198F97842744F68734306F64213331F83150032
194G14422338G46412887G73071532G93439138H08836717H20841297H30611032
187H39250776H47855165H56670470H64848793H71426228H76005812H78440147
180H78658792H77349677H76518516H78527592H84225338H92475512I01596773
173I10523719I18343190I23580390I24312344I18175896I01908710H71078802
166H20337936G45817107F51216413E52558483D73095622D29885915D24156612
159D44021361D75159510E08138397E38696696E65577750E89112720F10264169
152F29677479F47257880F62742568F76575554F89532548G01556485G12024097
145G21034119G29338333G37419534G45557932G54148677G63066751G71322101
138G78169869G84163488G90339323G96718681H02331133H06564837H09845052
131H12763323H15083126H16009394H15055905H11895262H05250412G92913462
124G73631352G48283166G18919922F88066893F59366574F37381276F25608246
117F24791738F33426978F49348956F70324037F93670002G16217608G35407299
110G49961821G57837348G54125623G34063567F97463728F47991178E91522858
103E36778560D93917389D69477122D63313015D70853618D86633272E06151099
96E26465002E45955272E64032716E80870208E96198893F08814913F18662481
89F27730641F37422679F46986002F55183213F62086498F68565802F75242309
82F82427555F89969502F96898396G02196895G06223850G10418033G15321653
75G19722988G21987541G21796655G19807070G15853983G08738169F97753821
68F83127179F66009945F49446684F37537950F32671499F34405269F41017789
61F51357897F63945688F75672542F84767925F92350335F99248579G04398940
54G07118864G09106162G13183595G20380872G28552004G34466043G37436135
47G39518272G42508999G46561361G50757022G53810056G55015796G55560898
40G57936017G62864910G68049011G70742655G70615487G69275588G68284728
33G69271219G72850198G75936301G75216849G70169123G62199900G52958194
26G43129378G33470814G25740401G21066113G18583385G16547961G13982964
19G11754571G13789053G23987811G39297274G53306292G63357449G69849790
12G72113808G68626912G62072396G61018625G71413377G87149846G98127272
5H01835031H02290469H04643677H09534728H10561681
##END=


$$ === CHEMSPECTRA PEAK TABLE EDIT ===
##TITLE=X8156
##JCAMP-DX=5.00
##DATA TYPE=INFRAREDPEAKTABLE
##DATA CLASS=PEAKTABLE
##$CSTHRESHOLD=0.93
##MAXX=3997.453
##MAXY=0.9521912314218773
##MINX=373.96442
##MINY=0.37614089164152026
##$CSSOLVENTNAME=- - -
##$CSSOLVENTVALUE=0
##$CSSOLVENTX=0
##NPOINTS=38
##PEAKTABLE= (XY..XY)
385.29667513682534, 0.6748691781876637
399.4619940578573, 0.6311819535324554
463.20592920250147, 0.5610513075062878
514.2010773182169, 0.41086467979242786
538.2821194839717, 0.5540635575936163
599.1929908444095, 0.37614089164152026
650.1881389601249, 0.5890225154913399
694.1006276153244, 0.598103879172764
726.6808611336978, 0.5383347258172674
787.5917324941356, 0.4112814354526515
803.1735833072712, 0.42364355854631197
813.0893065519936, 0.45306599062326086
823.0050297967159, 0.5457457289531737
934.9110492728691, 0.5389119970896641
1042.5674730727128, 0.5034651748122395
1107.7279401094602, 0.41580831872908713
1154.473492548866, 0.4081338933746885
1194.136385527756, 0.5027454484392411
1206.8851725566847, 0.4295450138259324
1218.2174276935102, 0.41801279722214185
1300.3762774354964, 0.4496566943923199
1334.373042845973, 0.5905139434206426
1371.2028720406565, 0.5682492842212123
1409.4492331274432, 0.5590929374033878
1423.6145520484752, 0.5517912497570928
1442.0294666458167, 0.6072027668534596
1463.277445027365, 0.6653975829499689
1474.6097001641906, 0.5922328818294312
1493.0246147615321, 0.6437594876447417
1579.4330601798279, 0.5079494111250108
1616.262889374511, 0.491368292758108
1640.3439315402657, 0.5769202097855943
2342.9437500234694, 0.8118605599045852
2364.1917284050173, 0.7941703774999808
2845.8125717200937, 0.766492901574578
2872.7266776700544, 0.778085170310481
2896.807719835809, 0.7603011709707548
2927.97142146208, 0.774900136220919
##END=


$$ === CHEMSPECTRA PEAK TABLE AUTO ===
##TITLE=X8156
##JCAMP-DX=5.00
##DATA TYPE=INFRAREDPEAKTABLE
##DATA CLASS=PEAKTABLE
##$CSTHRESHOLD=0.93
##MAXX=3997.453
##MAXY=0.9521912314218773
##MINX=373.96442
##MINY=0.37614089164152026
##NPOINTS=174
##PEAKTABLE= (XY..XY)
3988.953808647381, 0.8251563890992051
3969.1223621579356, 0.8261159045455823
3964.872766481626, 0.8259058577631588
3952.1239794526973, 0.8254072649110532
3943.624788100078, 0.8280425645545622
3935.125596747459, 0.8280003645366817
3926.62640539484, 0.828917024622055
3918.1272140422207, 0.8273730849971465
3912.4610864738074, 0.8268172724431533
3894.046171876466, 0.8301556683519565
3886.96351241595, 0.8302852489309537
3881.297384847537, 0.8290700893642377
3857.2163426817824, 0.8289525488306891
3844.4675556528537, 0.832743582874415
3828.8857048397185, 0.8322617389608369
3816.13691781079, 0.8330322486617179
3809.054258350274, 0.8284493668031253
3801.9715988897574, 0.8315457087585265
3789.2228118608286, 0.8314011670241368
3773.6409610476935, 0.8306833490386913
3765.1417696950743, 0.8332962375436146
3755.226046450352, 0.8337135297161381
3745.310323205629, 0.8353422267560753
3738.227663745113, 0.8304131011422275
3729.728472392494, 0.8315114952361391
3715.563153471462, 0.8313840012909299
3704.2308983346365, 0.8311441519153422
3697.1482388741206, 0.8320562228252573
3681.566388060985, 0.8325819933508448
3670.2341329241594, 0.8368637543556009
3658.901877787334, 0.8338085988088921
3651.819218326818, 0.8355266433261133
3641.903495082095, 0.8350025993946547
3630.5712399452696, 0.8318195322212603
3623.4885804847536, 0.8333367091937718
3610.739793455825, 0.8373549557531279
3596.574474534793, 0.8345141985026537
3590.90834696638, 0.8335926512779664
3579.576091829554, 0.8349015098357778
3573.9099642611413, 0.8352649787396516
3558.328113448006, 0.8364115933175665
3551.2454539874902, 0.8365296703634151
3541.329730742768, 0.8370097859092698
3531.414007498045, 0.8370008452200002
3515.83215668491, 0.8364853242963347
3510.166029116497, 0.8368219711323998
3497.4172420875684, 0.8363476375042237
3488.9180507349492, 0.8359652141972109
3477.5857955981237, 0.8371872881216174
3463.4204766770913, 0.835493979925214
3450.6716896481626, 0.8368674496394917
3442.1724982955434, 0.8368546939487107
3435.0898388350274, 0.836254296779193
3426.590647482408, 0.8376696091320837
3418.0914561297886, 0.8365684730612607
3408.1757328850663, 0.8373798712069781
3389.7608182877248, 0.8366554359409009
3382.678158827209, 0.8364258388276267
3374.1789674745896, 0.837629018651103
3365.6797761219705, 0.8383074983132001
3361.430180445661, 0.8384904241771617
3351.514457200938, 0.8384933452871056
3333.0995426035965, 0.8380026200996696
3323.183819358874, 0.8400904519507434
3316.1011598983578, 0.8389953354592461
3306.1854366536354, 0.8384779673370338
3293.4366496247067, 0.8383839109666709
3282.104394487881, 0.8402031044581806
3269.3556074589524, 0.8379423595702176
3263.6894798905396, 0.8385331012919305
3248.107629077404, 0.8340841515261465
3242.441501508991, 0.8347914795876314
3233.942310156372, 0.8322730642477504
3225.443118803753, 0.8313878162924413
3219.77699123534, 0.8327892999299511
3212.694331774824, 0.8334712363274948
3199.945544745895, 0.8330707533957077
3185.780225824863, 0.833663938243679
3170.198375011728, 0.8352591968219728
3163.115715551212, 0.835797128884224
3153.1999923064895, 0.8335926512779664
3139.034673385457, 0.834152577684124
3129.118950140735, 0.8356847149252308
3107.870971759187, 0.8275536874524703
3076.707270132916, 0.8332214335402465
3066.791546888194, 0.8348602631248766
3052.626227967162, 0.8373358825191654
3022.8790582329943, 0.8173071724714687
2983.2161652541045, 0.7990344742758858
2947.8028679515246, 0.783254502679184
2927.97142146208, 0.774900136220919
2912.3895706489443, 0.7809087024123365
2896.807719835809, 0.7603011709707548
2872.7266776700544, 0.778085170310481
2845.8125717200937, 0.766492901574578
2799.067019280688, 0.7975739219643473
2766.486785762314, 0.7928853019560079
2749.4884030570756, 0.798935471350797
2708.408978186083, 0.8105584365714318
2682.911404128225, 0.8156634548607272
2671.5791489913995, 0.8153650147947963
2657.413830070367, 0.8172665216882791
2647.4981068256448, 0.8189043979659298
2633.332787904613, 0.8173994995873111
2595.0864268178266, 0.8279570320787895
2585.1707035731038, 0.8322110159351633
2566.7557889757622, 0.8358247260127768
2554.007001946833, 0.8347470741051394
2544.0912787021107, 0.8374015072848198
2534.1755554573883, 0.8376216271965243
2518.593704644253, 0.8351754530161323
2510.094513291634, 0.8385267837487489
2497.3457262627053, 0.8379409291663501
2487.430003017983, 0.8370861985627406
2477.51427977326, 0.8408644778024826
2449.183641931196, 0.8409466129582205
2436.434854902267, 0.8431596144590683
2423.6860678733383, 0.8489871002114764
2412.3538127365127, 0.8481451252986477
2393.938898139171, 0.851310311093503
2362.7751965129005, 0.7929251173762445
2341.527218131352, 0.8109775759425022
2290.532070015637, 0.8603839853564926
2280.616346770915, 0.8636298156010093
2270.7006235261924, 0.8626055098651335
2257.9518364972632, 0.8671807626075005
2250.8691770367473, 0.8681237082483826
2240.953453792025, 0.8722726084113357
2232.4542624394057, 0.8708764890100283
2226.7881348709925, 0.871605215487708
2215.455879734167, 0.8747889974196376
2197.0409651368254, 0.8810277557652436
2184.2921781078967, 0.8737062792396537
2170.1268591868647, 0.8813296534534184
2164.460731618452, 0.8816122987745983
2154.5450083737296, 0.8805914497741693
2137.546625668491, 0.8812301734314414
2086.5514775527754, 0.883864281219527
1640.3439315402657, 0.5769202097855943
1616.262889374511, 0.491368292758108
1579.4330601798279, 0.5079494111250108
1493.0246147615321, 0.6437594876447417
1474.6097001641906, 0.5922328818294312
1463.277445027365, 0.6653975829499689
1442.0294666458167, 0.6072027668534596
1423.6145520484752, 0.5517912497570928
1409.4492331274432, 0.5590929374033878
1371.2028720406565, 0.5682492842212123
1334.373042845973, 0.5905139434206426
1300.3762774354964, 0.4496566943923199
1218.2174276935102, 0.41801279722214185
1206.8851725566847, 0.4295450138259324
1194.136385527756, 0.5027454484392411
1154.473492548866, 0.4081338933746885
1107.7279401094602, 0.41580831872908713
1042.5674730727128, 0.5034651748122395
992.9888568491006, 0.6147602786399231
934.9110492728691, 0.5389119970896641
823.0050297967159, 0.5457457289531737
813.0893065519936, 0.45306599062326086
803.1735833072712, 0.42364355854631197
787.5917324941356, 0.4112814354526515
726.6808611336978, 0.5383347258172674
694.1006276153244, 0.598103879172764
670.0195854495696, 0.7055698619042083
650.1881389601249, 0.5890225154913399
624.6905649022669, 0.7772941569717701
599.1929908444095, 0.37614089164152026
538.2821194839717, 0.5540635575936163
514.2010773182169, 0.41086467979242786
463.20592920250147, 0.5610513075062878
420.70997243940565, 0.6813127379103143
399.4619940578573, 0.6311819535324554
385.29667513682534, 0.6748691781876637
##END=

##END=

