##TITLE=X8147
##JCAMP-DX=5.0
##DATA TYPE=LINK
##BLOCKS=1


$$ === CHEMSPECTRA SPECTRUM ORIG ===
##TITLE=X8147
##JCAMP-DX=5.00
##DATA TYPE=INFRARED SPECTRUM
##DATA CLASS=XYDATA
##ORIGIN=ComPlat
##OWNER=
##XUNITS=1/CM
##YUNITS=TRANSMITTANCE
##XFACTOR=1
##YFACTOR=9.2349778e-010
##FIRSTX=3997.453
##LASTX=373.96442
##MAXX=3997.453
##MAXY=0.9915981898336529
##MINX=373.96442
##MINY=0.25720533745206253
##NPOINTS=2559
##XYDATA= (X++(Y..Y))
2559A046755796A047731352A048085689A047441364A046380999A045640828A045372655
2552A045413316A045792502A046523831A047236184A047515071A047427487A047264776
2545A047004090A046522862A046079715A046033826A046274956A046427534A046406493
2538A046341628A046153874A045630501A044919116A044614154A045119455A046070679
2531A046664468A046407590A045410347A044186884A043269351A042915982A043114772
2524A043643438A043991579A043746835A043336410A043746835A045086668A046383774
2517A046961234A046738111A045634051A043875855A042544864A042605405A043479823
2510A043821058A043141880A042035561A041399239A041445322A041573438A041265572
2503A040750524A040782666A041784814A043428835A045157471A046596763A047297951
2496A046575206A044069159A040522045A037718974A036957569A037880330A039656146
2489A041860845A043914645A045054397A044918471A043940333A043240436A043367133
2482A043575152A043148463A042253778A041330824A040371661A039703391A040466409
2475A042657942A044452669A044526118A043005567A040790411A038937855A038826067
2468A041052905A043807634A044925570A044222318A043293490A043462139A044376703
2461A044985982A044490878A042461669A039253144A037376125A039148972A042587785
2454A045465402A047085929A047312214A046268953A044355210A042160063A040344876
2447A039709845A040847015A043143235A045147918A045980643A045783660A045360779
2440A045354841A045793987A046309615A046384742A045542014A043803826A042192786
2433A041572793A041599191A042268688A044096138A046452640A047893482A047647512
2426A046014786A044391999A044203342A044694315A043924391A041871817A040991912
2419A042769729A045926363A049031621A051331197A052461526A052580155A052139460
2412A051475256A050709203A049968516A049528983A049463473A049305086A048606545
2405A047805963A047875604A048857744A049890872A050367258A050177827A049432299
2398A048431958A047697855A047761235A048847030A050398174A051209664A050469622
2391A048506892A046619611A045674390A045149984A043913096A041347024A038500323
2384A037475198A037968430A038136240A037504887A037050251A037543742A038216401
2377A037904146A035956389A032710881A029921106A029492287A031548281A034959534
2370A038410351A040665716A041072526A040172484A039473297A040118914A042098748
2363A044591112A046675763A047836943A047794991A046202926A043148012A040378761
2356A040397349A042920306A045640376A047134981A047267809A046663823A046201958
2349A046265791A046560103A046833311A047162412A047618919A047985326A047870763
2342A047203654A046628970A046739015A047200298A047400508A046948454A045776754
2335A044254073A042726163A041020182A039387133A039107794A039806658A039591668
2328A038498128A039100178A042430882A046133414A047961703A047377402A045274421
2321A042919016A040829589A039163494A038540791A038934498A038716346A036327184
2314A031814518A027552921A026561939A028728042A032020601A034791336A036158729
2307A036360488A036351839A036385853A035636517A033512754A030499340A027139076
2300A023236075A019591890A019070001A021821502A024839628A026510498A026800745
2293A026185657A025532425A025716564A026346948A026335460A025645696A025328148
2286A025997452A027400149A029318539A031320124A032288581A031571516A029769173
2279A028050929A026979850A026164423A025058878A023870849A023583894A024546929
2272A025508157A024935086A023122868A022707345A025165696A028594504A030799978
2265A031436429A031573194A032010339A032266959A031731581A030876719A030337339
2258A029690754A028150130A026019525A024923920A025785689A027455526A028748243
2251A029595361A030338888A031084157A031589072A031484771A030692128A029828423
2244A029754458A030371094A030649852A029954474A028755020A028058609A028470970
2237A029882961A031516526A032332986A031939536A030964109A030212966A029828552
2230A029515909A029103742A028698610A028462838A028411978A028610898A029369269
2223A030710716A031903005A032243917A032076559A032259730A032732890A032455422
2216A030932935A029138079A028460062A028972270A029445300A029001959A028113728
2209A027797729A028162458A028486331A028409461A028249784A028308904A028447670
2202A028401910A028063256A027391694A026451507A025534877A024845566A024110688
2195A022891097A021247851A019692317A018559084A017855186A017450183A016933264
2188A015619313A013231442A010294640A007509383A005070072A002802315A000526941
2181I98133649I95717703I93664807I92198988I90941188I89216747I86747102I83859545
2173I81022525I78240043I75007443I70994786I66589259I62469204I58927317I55760744
2165I52454566I48515293I43941570I39275745I34978972I30936108I26744282I22283507
2157I17833059I13666339I09603790I05083314H99853712H94510516H90013210H86647847
2149H83831545H80897905H77695640H74459362H71448594H68827145H66734491H65307526
2141H64548702H64111041H63337566H61815337H59902498H58409505H57671788H57244518
2133H56681774H56209131H56308655H56988027H57854894H58640761H59314582H59904369
2125H60502483H61266405H62158444H62881898H63309684H63746119H64467831H65270349
2117H65747639H65804759H65706590H65826316H66355950H67124713H67904836H68934995
2109H70617547H72607837H73898747H74037126H73650066H73578940H74086953H75022622
2101H76171023H77290379H78199844H78893867H79393812H79671473H79856709H80167351
2093H80532079H80714153H80846142H81364675H82425556H83771391H85099607H86258463
2085H87188647H87931464H88634974H89358558H89912847H90125449H90240722H90772292
2077H91976586H93717033H95653753H97274603H98082672H98143923H98181422H98869765
2069I00259102I01880920I03188482I03919359I04183401I04263305I04446411I05031487
2061I06215192I07844691I09468123I10717274I11543350I12083504I12499479I13068032
2053I14191003I15959591I17794398I18941702I19329214I19545237I20041502I20813299
2045I21762264I22809462I23680266I24142970I24510796I25389087I26836448I28231723
2037I29064447I29470483I29839729I30202005I30291073I30156244I30383756I31497174
2029I33331595I35209840I36618539I37599324I38526280I39522812I40211737I40290026
2021I40167267I40505468I41310052I42072038I42592701I43096712I43741424I44521611
2013I45448245I46411861I47116921I47471839I47794421I48361876I49067517I49769221
2005I50611949I51722593I52909138I53938522I54867996I55860075I56798713I57313502
1997I57242958I56966910I57111614I57942467I59134756I60095016I60450450I60312394
1989I60054742I59824197I59520977I59324252I59767529I61074897I62811084I64372749
1981I65526248I66327799I66781273I66888865I66927332I67295158I68100323I69230394
1973I70648710I72221476I73592225I74632001I75579675I76498370I77141211I77406415
1965I77393055I77161219I76861807I76803397I77130174I77707118I78265473I78465425
1957I78156848I77687561I77500582I77539114I77574612I77788764I78422181I79208565
1949I79699667I79856956I79947896I80134101I80416989I80752545I81026978I81058862
1941I80796950I80465332I80332955I80324888I80112285I79642611I79242062I79084385
1933I78986216I78919867I79319190I80540007I82252636I83708387I84540402I85012270
1925I85450125I85818597I86043397I86321639I86717993I86777889I85997443I84518651
1917I83028563I82036807I81445471I80795143I79818812I78704941I77800962I77137661
1909I76427438I75557989I74810460I74398681I74009814I73082083I71398950I69181793
1901I66816900I64662221I62850132I61153961I59337613I57600522I56340140I55628949
1893I55350191I55656509I56820593I58683606I60610063I62089308I63202791I64317823
1885I65494816I66555310I67625421I69101697I71051648I73133136I75101352I76961396
1877I78682674I80118288I81138637I81654781I81628771I81120048I80238143I79117883
1869I77882027I76407559I74302384I71498603I68678557I66720280I65855607I65602666
1861I65275050I64397791I62893892I61026361I59016773I56775026I54131891I51146359
1853I47997213I44743056I41312440I37618815I33666505I29596727I25583424I21670420
1845I17766516I13756827I09656973I05805284I02801164I01066849I00655456I01571505
1837I03831259I06987763I10098571I12469403I14078571I15147649I15721430I15847610
1829I15831087I16063955I16729451I17783168I19058588I20312580I21386498I22385355
1821I23453400I24351119I24549328I23746293I21993712I19318241I15556072I10662155
1813I04957199H98952508H93102849H87797280H83234142H79035602H74376747H68943966
1805H63511185H59233130H56617360H55388088H55103457H55649872H57118531H59346530
1797H61807979H64039593H65992771H67901350H69932367H71945763H73517496H74334279
1789H74620201H75008874H75970167H77491106H79240395H80908684H82436593H84017556
1781H85896833H88132836H90559496H92973119H95284506H97442090H99351638I00961516
1773I02257073I03115808I03407926I03243730I02829046I02125213I00996304H99660924
1765H98713186H98662907H99515317I00739748I01636757I01828964I01418927I00707865
1757H99860747H98863569H97685092H96406703H95304515H94892219H95695899H97803979
1749I00827526I04470098I08848646I14066824I19782042I25413162I30604813I35432446
1741I40236134I45192141I50040169I54385994I58179401I61637899I64837001I67699903
1733I70293470I72813200I75290268I77570675I79559416I81259072I82619688I83636745
1725I84555440I85686027I87056259I88481288I89866365I91227626I92547645I93764202
1717I94799977I95530401I95840721I95784440I95636832I95736549I96240237I97021457
1709I97791188I98270415I98319789I98057102I97823137I97886453I98176118I98383041
1701I98279386I97866703I97251034I96518737I95802383I95325609I95207238I95335226
1693I95595396I96078946I96919093I98113706I99583463A001175139A002602879
1686A003683769A004618986A005767838A007170536A008525665A009584675A010379642
1679A011075343A011741871A012330432A012821147A013292241A013782569A014172210
1672A014327112A014334857A014469621A014897536A015510624A016082274A016492957
1665A016698008A016594353A016182960A015819329A015941443A016502832A017024721
1658A017241970A017350982A017589853A017917405A018165957A018291944A018393856
1651A018563989A018795502A019068968A019440280A019904468A020241055A020178514
1644A019701289A019069678A018548564A018226369A018096381A018147950A018298656
1637A018409604A018471565A018554308A018515776A018121487A017529119A017229062
1630A017398485A017724423A017921923A018025771A018102706A018061399A017885779
1623A017774895A017924117A018352291A018980739A019669276A020196844A020439007
1616A020522525A020624630A020768366A020954248A021295160A021901535A022763561
1609A023709945A024415973A024651423A024581459A024573327A024720418A024826591
1602A024774440A024621991A024388284A023993931A023445644A022954477A022822230
1595A023215938A024008904A024823105A025310528A025444196A025400049A025185833
1588A024681758A024055117A023692260A023651405A023639206A023557689A023559690
1581A023581376A023411953A023228137A023444999A024008517A024413843A024425396
1574A024224153A023883886A023297584A022668426A022543279A023147007A023981087
1567A024319224A023972890A023355285A022891484A022628797A022415291A022209143
1560A022142084A022328030A022638995A022785893A022647966A022295372A021740889
1553A021080880A020718539A020875635A021153490A021229908A021536096A022443948
1546A023262409A022905554A021254757A019133898A017288053A016003985A015360627
1539A015250454A015346880A015357852A015126662A014472138A013382407A012386778
1532A012155264A012612934A012926609A012460356A011400313A010416625A010003619
1525A010162264A010572172A010972334A011291043A011492415A011564767A011597619
1518A011556699A011199845A010603475A010413720A011106840A012345922A013423391
1511A013986522A014156785A014316075A014809824A015550059A016041613A015984428
1504A015537215A014890050A014065393A013265585A012912474A013167997A013759785
1497A014331113A014673058A014702038A014608903A014934519A016086082A017813105
1490A019433632A020425388A020621468A020174319A019599183A019504241A019984048
1483A020532400A020742033A020823937A021222356A021913346A022380567A022324997
1476A022134597A022374565A022969580A023352187A023376519A023464684A023772809
1469A023985605A024092938A024530341A025342671A026039792A026451249A026949063
1462A027738738A028585855A029219918A029524816A029433811A029022871A028669437
1455A028860999A029776337A031088934A032222941A032789622A032788332A032498730
1448A032220811A032027830A031839754A031793090A032201513A032994092A033613375
1441A033686308A033422782A033248260A033358885A033671012A033987785A034233498
1434A034495087A034735507A034662704A034121517A033385799A032843322A032632978
1427A032761030A033295182A034210972A035144254A035365569A033997531A030504245
1420A025155369A018791049A011968802A004554573I96224166I87077752I77657872
1413I68530433I59848787I51315976I42725529I34227183I25853985I17590574
1406I10342025I05698725I04225935I05058272I07524819I12070209I19200258
1399I28605035I39418125I50064437I58067550I61048176I58048897I50650868
1392I43002028I38732557I37892926I38588757I39737738I41419903I43783700
1385I46238888I48004312I49236295I50774660I52778440I54593626I55983157
1378I57591292I60199058I64054943I69010305I74765926I80588220I85354151
1371I88510268I90704705I93060950I96124642I99854024A004194169A009050652
1364A013851887A017723262A020297788A022087675A023917319A026183011A028645492
1357A030698711A031951799A032768065A033954610A035773089A037711487A039303035
1350A040535728A041361030A041561563A041310235A041209291A041534907A041914480
1343A041925775A041610292A041240013A040948927A040741940A040546894A040212823
1336A039802140A039695839A039930321A039843189A039023760A038026453A037443701
1329A037057286A036606459A036417608A036712566A037456997A039097919A041983734
1322A045000891A046385839A046054350A045728218A046563524A047748067A047851401
1315A046905856A046324460A046898047A047854240A048067294A047335450A046368994
1308A046152132A047168543A048885626A050209840A050381909A049284626A047463824
1301A046017496A045776625A046632262A048009658A049562416A051157127A052708981
1294A054088056A054911938A054796214A053970847A053246683A053291281A054022933
1287A054767428A055087041A055088913A054719408A053675760A052258411A051167970
1280A050449098A049911654A050196286A052061170A055194310A058615373A061279033
1273A061819058A059276867A054992745A052300364A053096880A055604670A056651029
1266A055561814A054508678A055753762A059675222A064223516A065944794A063788178
1259A060676015A059454294A060422493A062530572A064341306A064532415A062955067
1252A060576490A058172549A056072537A054437810A052848070A050912770A049759786
1245A051091552A054463756A057458324A058648225A058557931A058014420A057236041
1238A056244800A055128864A054134268A053790322A054282780A054709533A054044425
1231A052824254A052560276A053445279A054000859A053177622A051619701A050593608
1224A050543394A050952399A051236062A051501008A052197742A053136445A053507627
1217A053029175A052361163A052194450A052565826A053103399A053422819A053371249
1210A053174331A053120567A053092233A052832450A052603325A052990837A053988854
1203A054822030A054912841A054596907A054468726A054447814A054169508A054038616
1196A055055996A057465037A060133924A061557597A061142526A059387041A057356025
1189A056244478A056786439A058334485A058863474A056937855A053790000A052636823
1182A055398522A060765535A066063293A069970876A072526750A073382581A071635680
1175A067633865A063638118A061738961A062002294A063611784A066335791A069375151
1168A070790692A070126617A069732393A071466062A073741823A073708196A071091201
1161A068304072A067601917A069220960A071433856A071633485A068700684A064862614
1154A063445330A064568882A065285236A064027372A062421948A062657204A064698934
1147A066277574A065345390A062374896A059859232A059761063A061889667A064416433
1140A065151827A063006184A059330179A056923204A057211708A059485791A062697027
1133A066222777A068753286A068668994A066149586A063120489A060934506A059591253
1126A059135584A059946171A061241921A061410054A060435530A060283856A062142286
1119A064451027A064560814A061642277A057490853A054838231A055139256A057648853
1112A060211117A061142268A060526212A059572019A059104281A059122288A059427832
1105A059829994A059878788A059143781A057798462A056525559A055833085A055636102
1098A055348115A054286136A052380396A050612067A050062425A050430768A050702297
1091A050969696A052096669A053752307A054548629A053917341A052674451A051892392
1084A051713739A051667075A051713610A052139976A052685229A052647666A051831400
1077A050733019A049912687A049581908A049484256A049033234A047881606A046445089
1070A045750485A046538224A048497985A050343571A050842483A050145233A049528467
1063A049775664A050543007A051167324A051349398A051063347A050283999A049000769
1056A047614337A047018289A047621372A048823149A049704732A049832009A049437011
1049A048973145A048764222A048996316A049608370A050165693A050144071A049423650
1042A048399623A047591553A047292658A047660291A048678510A049870606A050681773
1035A050993125A050978474A050638142A049729903A048110215A045964959A044113629
1028A043724568A044832823A046300321A047350036A048006625A048285770A047951506
1021A047139951A046381257A045833035A045094865A043903221A042567389A041660699
1014A041402659A041517028A041543426A041031993A039807110A038297660A037241426
1007A036846362A036681715A036249153A035200922A033590205A032311880A032258633
1000A032919417A033176941A032410178A030681155A028590309A026705416A025176603
993A023882402A022569805A020912489A018645183A015750592A012808303A010767412
986A009740803A008971265A007695716A005325014A001297512I95600172I89280321
979I82861141I75302918I66017286I55739962I44386266I30069112I11184753
972H89369078H68193662H48185687H27346988H04772361G80735786G54872665
965G28094399G03957526F83157875F61327226F36060927F13709745E98734066
958E88215999E79853902E73219602E68131090E64537828E62353524E61150262
951E60560346E60873827E63189669E67658188E72780844E77808945E82649680
944E86481038E87962477E86075455E80806869E73727873E66388513E58819899
937E51829325E48732071E51710116E60731964E73697796E88152554F04974916
930F25950574F48944597F70775117F94766835G27200553G61219494G85574326
923H02337826H15850332H27701390H38753480H48811876H56339183H61395102
916H66376152H72706974H78483830H82111042H84281921H86452284H89459244
909H92722630H95158004H96268002H96179256H95974205H98230345I02433079
902I04693027I04928929I05496901I08459391I12226272I13854028I12377430
895I07952347I00827913H90332436H75947448H61889109H53022872H47869172
888H43858902H40279452H37024069H33306435H28001705H21160999H14783448
881H10822876H10334807H15921393H30084032H48434949H64705798H78215851
874H90266474I01267833I11044374I19464171I26644628I33008754I38939027
867I44309074I48669227I51895630I54440403I56935156I59582486I62097505
860I64282777I66373559I68717412I71326791I73887312I76037474I77454499
853I77815290I76923639I75038165I73494508I73928813I75253285I74917730
846I71745413I66598295I61750332I57852688I53948785I49738692I45260491
839I39928848I34186199I32506745I35452067I37896863I38425271I37560856
832I35886372I34011935I32308729I30477923I28137426I25635833I23622307
825I22465645I23085638I25045787I25726192I23875119I20244488I17250242
818I16450564I16736809I16841174I16591330I16043108I14602331I11582656
811I07555219I03736575H99568693H93867610H86744144H78058497H66129923
804H49566246H27679317G96403164G49288790G00345288F71219039F57291204
797F51507635F54043501F67022888F88461959G08981044G19229002G16878759
790G01225516F70252131F26794916E80346489E37088161D98158554D64308197
783D37724881D21472008D16975574D22974520D37172335D58113624D84352445
776E08888029E22026608E22015088E11286387D90928335D64164914D39180245
769D20989103D07772652C97243355C92843315D02152763D23259474D49783249
762D79297979E09487239E37251937E60171608E76844232E87582452E94542562
755E99947073F04950455F10641922F19323696F32391828F46229820F56556519
748F63486358F68660906F72772830F75618563F77104003F77672556F78025086
741F78777649F80891537F86497744F97198207G11263259G26566425G42960162
734G60550384G78471578G94917659H08219370H18096854H25206250H29719691
727H31328343H30116497H26838976H22970506H20110443H19220600H20463426
720H22864269H24914971H25839733H25705291H24717084H22776169H19840658
713H16394358H13382881H11565370H10645062H09260501H06067014H01033814
706G95753094G92041139G90993231G93184054G98117213H04012504H08965995
699H11742216H12027428H10513331H08352714H06814801H07196052H10122980
692H14789386H19363948H22084082H21752851H17641251H09564689G98152389
685G84627039G70551015G58447145G51695055G51975427G57854518G66654276
678G76048274G84343957G90776304G95832288H00894274H07234584H15199358
671H24165958H33075890H40986900H47304943H51690462H53878574H53728384
664H51388339H47106669H40786884H32053153H20881660H07958684G94386025
657G81271358G69647488G60457185G54395956G51765019G52343640G55274440
650G59276578G63222240G66516994G69018007G70882892G72532721G74474282
643G76989817G79977479G83007609G85517658G86995031G86975539G84995447
636G80728364G74091482G65033426G53284280G38528625G20920590G01378223
629F81294539F61984782F44427219F29193629F16226893F04707776E93253588
622E80278526E64431010E45082851E22627626D98351245D73964367D51135378
615D31181070D14802984D01991698C92440733C86192202C83685541C85078137
608C89621978C95641222D01050672D04131016D04099552D01131737C96036512
601C89928263C83925703C78863136C75063597C72183979C69292421C65295350
594C59422262C51471138C41847595C31426728C21258094C12285653C05130174
587B99909995B96278814B93705675B91745494B90190994B89120044B88764674
580B89273783B90578280B92413087B94498932B96864213C00047728C04926091
573C12234826C22031923C33459294C45129763C55933139C65563782C74429663
566C83186242C92199699D01221225D09501708D16203035D20795831D23316884
559D24386285D24921954D25821802D27925945D32101345D39090080D49167064
552D61956503D76548801D91750829E06325668E19238576E29868850E38053681
545E44007835E48292667E51792343E55487323E60025355E65370617E70823600
538E75467997E78706664E80446917E80967773E80794800E80589233E80922722
531E82142055E84479970E88077104E92687359E97483947F01439936F04013947
524F05425486F06267698F06922350F07335421F07161867F05917750F03011605
517E97830410E89961351E79454450E67032903E54142068E42683040E34474780
510E30781864E32156228E38492859E49121648E62947377E78679814E95113051
503F11388095F27093037F42060454F56050314F68761850F80213198F90901076
496G01351502G11603978G21344375G30457227G39127126G47353103G54688203
489G60594531G64769125G66920448G66543263G63246250G57128805G48563077
482G37734110G24567809G08907724F90475613F68658970F42577825F11595405
475E75864545E36430669D94974974D53602054D14679547C80468173C52630704
468C31972433C18458379C11344368C09448859C11536349C16499715C23276685
461C30948599C39173899C48368333C59223407C72036210C86375211D00975060
454D13886742D23458167D30009530D36637312D47758558D66163788D91058065
447E18800592E45537293E69308470E90170339F09013520F26496860F42725691
440F57491930F70635835F82228982F92557359G01959232G10609252G18499803
433G25661865G32247565G38322284G43711692G48096565G51197886G52926070
426G53461448G53258592G53008878G53451121G54951665G57222391G59594965
419G61594097G63243798G64968238G67275237G70401148G74049658G77286776
412G78600082G76128113G68049421G53087038G31033331G03022437F71259830
405F38332751F06600091E77972366E53926820E35392442E22422801E14119309
398E09194508E06741449E06553631E09078138E15273841E26161832E42042006
391E62071603E84727167F08624266F32716669F55787821F76215450F92708130
384G05354220G15730810G25742349G36212849G46540387G55627164G62949807
377G68711302G73340403G77179119G80483297G83445658G86242339G89183788
370G92659454G96707287H00683801H03608212H04918226H04738670H03384766
363H00848449G96875033G91325430G84276381G75844127G66021439G54689107
356G41846034G27982418G14169985G01469292F90153095F79707574F69524353
349F59188940F48198295F36109657F23234119F10768360F00055053E91921694
342E86675827E84388642E84966941E87814546E91402903E93603859E92994193
335E89851759E85710791E82160966E80200107E80256904E82281208E85787015
328E89997301E93979882E96832973E98183262E98635574E99437125F01550691
321F05098709F09576006F14454304F19619687F25244546F31257110F37083470
314F41963060F45423429F47544288F48971770F50678655F53590673F58268309
307F64640116F71915773F79020005F85322042F90891459F95996236G00360520
300G03064002G03643527G03509344G05679901G12432506G23138004G34566375
293G43180832G47066277G46278474G42346107G37694352G34770522G34757614
286G36546016G36869889G32142232G21215419G06521596F92011332F80323372
279F72626706F70161514F73888636F82210717F90112434F91310790F81596726
272F60582408F30798731E95508889E57177814E17188423D76381539D35798843
265C96919482C61297892C30302660C05237411B87487060B78512134B79697388
258B92105027C16012840C49974467C90214315D31618150D69693637E01858246
251E27565820E47609229E63179277E75496847E86096173E96688205F08119932
244F19691652F29926378F37815122F43318189F47196470F50439332F53620556
237F56848057F60168240F63448020F65844410F66130204F63883100F60071362
230F56446475F54527762F54907529F57160119F60365740F63751111F66916328
223F69755027F72325552F74697738F76840477F78623457F79931923F80824284
216F81461381F81815008F81631256F80475692F77387796F71144041F62428446
209F57253447F62550108F72995823F80040999F82766168F83678279F84478926
202F84988294F84361653F82407313F79636578F76550231F73327635F70439626
195F69121415F70509074F74418398F79499232F84362944F88180748F90453475
188F90757146F88917369F85279508F80801824F76883785F74720974F74434858
181F74874261F74552066F72808844F69881271F65888751F60249434F52381731
174F42413436F30573091F16516753F00637288E85898351E76647894E74911707
167E78730609E84612411E90581409E96318313F01659961F06179469F09815587
160F12920780F15692483F18170519F20613573F23243865F25783990F27842179
153F29557325F31273440F32985359F34805645F37681455F42954752F51241270
146F62011761F73939754F85260533F94429924G01085330G05692809G08075452
139G07306366G03297581F97623089F92247234F87901925F83990535F79746622
132F75038328F70099941F65261271F61267911F59094838F58838928F59110199
125F57986582F54690473F50159606F46019025F43333615F42229942F42179599
118F42449450F42569112F42466360F42151459F41642607F41229343F41281300
111F41886706F43101650F45179072F48001312F50636573F51899601F50974968
104F47842344F43787799F40758766F39420933F38492622F36187236F31688769
97F25322642F17946170F10851619F05745616F03407314F02592661F01595096
90F00634126F00984784F02520116F03773462F03641602F02163068F00105847
83E98304085E96897193E94999779E91347332E85394534E77892850E70164107
76E62899616E56435578E52210964E52769383E59710518E71822649E85093509
69E95824178F03378528F08435092F10793919F09973457F06553685F02091168
62E97937743E94365845E90670994E85876600E79735080E73215536E67969218
55E65071399E64720740E67448039E73942540E83409536E93637163F02564521
48F08986993F12186805F11635679F07250741E99181538E86514988E67363553
41E41812558E14073000D90144727D74326481D68376942D70850202D77939106
34D88347838E04870466E26107261E43772900E54982280E62368949E68120117
27E72466523E74804438E75549320E76819899E81009338E88438347E96564284
20F01449618F00487357E96746809E98726579F08683193F20905175F30779433
13F36991369F39235245F37486537F33796978F33139938F39240860F49164364
6F57143338F60612097F59205399F52886129F44380813F40077909
##END=


$$ === CHEMSPECTRA PEAK TABLE EDIT ===
##TITLE=X8147
##JCAMP-DX=5.00
##DATA TYPE=INFRAREDPEAKTABLE
##DATA CLASS=PEAKTABLE
##$CSTHRESHOLD=0.93
##MAXX=3997.453
##MAXY=0.9915981898336529
##MINX=373.96442
##MINY=0.25720533745206253
##$CSSOLVENTNAME=- - -
##$CSSOLVENTVALUE=0
##$CSSOLVENTX=0
##NPOINTS=34
##PEAKTABLE= (XY..XY)
424.95956811571523, 0.4325450661401888
449.0406102814695, 0.5215183497099573
477.37124812353386, 0.5099655993456599
500.03575839718496, 0.5546842819532403
610.525245981235, 0.5309296851105104
648.7716070680217, 0.6179321413029587
668.6030535574664, 0.6069720992018477
696.9336913995307, 0.6044549351553684
740.8461800547302, 0.25720533745206253
766.3437541125877, 0.6188926704204389
842.8364762861606, 0.5358135107702625
855.5852633150898, 0.5396816135442147
933.494517380766, 0.4678011536794392
1031.2352179358872, 0.28577533431003305
1094.9791530805314, 0.49017587306826194
1195.552917419859, 0.26667353538142374
1236.6323422908522, 0.354332745331599
1297.54321365129, 0.6942533261281578
1338.6226385222826, 0.694188714529478
1369.7863401485533, 0.7304804928235272
1457.6113174589523, 0.3627899292903407
1478.8592958405002, 0.38507601690322574
1501.5238061141513, 0.6016658545755503
1531.2709758483188, 0.846340061333748
1619.0959531587177, 0.7483423953212285
1698.421739116497, 0.5067528493833023
1719.669717498045, 0.5176762350870319
2340.110686239263, 0.8667846334224595
2361.3586646207973, 0.8350506435909243
2854.311763072713, 0.8264309775857738
2871.310145777951, 0.8299131995828465
2923.7218257857703, 0.7896861442098254
2977.5500376856917, 0.8317533141608877
3392.593882071931, 0.7907072316942292
##END=


$$ === CHEMSPECTRA PEAK TABLE AUTO ===
##TITLE=X8147
##JCAMP-DX=5.00
##DATA TYPE=INFRAREDPEAKTABLE
##DATA CLASS=PEAKTABLE
##$CSTHRESHOLD=0.93
##MAXX=3997.453
##MAXY=0.9915981898336529
##MINX=373.96442
##MINY=0.25720533745206253
##NPOINTS=64
##PEAKTABLE= (XY..XY)
3392.593882071931, 0.7907072316942292
3368.512839906177, 0.7994781139963703
3352.9309890930413, 0.8067482117447532
3250.9406928616104, 0.8589972263871383
3235.3588420484753, 0.8682423839031672
3199.945544745895, 0.8837568169184598
3185.780225824863, 0.8859338170221606
3151.7834604143864, 0.9020757686259586
3141.8677371696635, 0.9027196174257079
3109.28750365129, 0.9040303239723952
3054.042759859265, 0.882263780511076
2977.5500376856917, 0.8317533141608877
2963.3847187646597, 0.8457679756994868
2923.7218257857703, 0.7896861442098254
2871.310145777951, 0.8299131995828465
2854.311763072713, 0.8264309775857738
2799.067019280688, 0.9194684040382329
2787.7347641438623, 0.9214874518521359
2773.56944522283, 0.9190716749329316
2361.3586646207973, 0.8350506435909243
2341.527218131352, 0.8661420350387042
1719.669717498045, 0.5176762350870319
1698.421739116497, 0.5067528493833023
1654.5092504612976, 0.8274301892547649
1619.0959531587177, 0.7483423953212285
1576.5999963956215, 0.8990200169801923
1558.1850817982795, 0.8611679088425261
1541.1866990930412, 0.8518949752837681
1531.2709758483188, 0.846340061333748
1501.5238061141513, 0.6016658545755503
1478.8592958405002, 0.38507601690322574
1457.6113174589523, 0.3627899292903407
1395.2839142064108, 0.756548405430268
1369.7863401485533, 0.7304804928235272
1357.0375531196246, 0.7450916775946418
1338.6226385222826, 0.694188714529478
1297.54321365129, 0.6942533261281578
1236.6323422908522, 0.354332745331599
1195.552917419859, 0.26667353538142374
1127.5593865989053, 0.5361728677674027
1094.9791530805314, 0.49017587306826194
1031.2352179358872, 0.28577533431003305
973.1574103596558, 0.6954020271532908
933.494517380766, 0.4678011536794392
855.5852633150898, 0.5396816135442147
842.8364762861606, 0.5358135107702625
794.6743919546516, 0.6496893173932563
779.0925411415164, 0.6785470253670969
766.3437541125877, 0.6188926704204389
740.8461800547302, 0.25720533745206253
696.9336913995307, 0.6044549351553684
668.6030535574664, 0.6069720992018477
648.7716070680217, 0.6179321413029587
630.3566924706797, 0.6228390941176153
610.525245981235, 0.5309296851105104
552.4474384050036, 0.6084362873855799
541.115183268178, 0.5930514340377903
532.6159919155589, 0.5921738747313585
500.03575839718496, 0.5546842819532403
477.37124812353386, 0.5099655993456599
449.0406102814695, 0.5215183497099573
424.95956811571523, 0.4325450661401888
398.0454621657541, 0.551094353333584
385.29667513682534, 0.5847033271723376
##END=

##END=

