##TITLE=NiW-X13194
##JCAMP-DX=5.0
##DATA TYPE=LINK
##BLOCKS=1


$$ === CHEMSPECTRA SPECTRUM ORIG ===
##TITLE=NiW-X13194
##JCAMP-DX=5.00
##DATA TYPE=INFRARED SPECTRUM
##DATA CLASS=XYDATA
##$CSCATEGORY=SPECTRUM
##ORIGIN=Angelika Moesle
##OWNER=
##XUNITS=1/CM
##YUNITS=TRANSMITTANCE
##XFACTOR=1.0
##YFACTOR=8.8814317e-10
##FIRSTX=3997.453
##LASTX=373.96442
##MAXX=3997.453
##MAXY=0.9536364664407989
##MINX=373.96442
##MINY=0.42057704879781915
##NPOINTS=2559
##XYDATA= (X++(Y..Y))
2559A068543297A068787515A068896841A068708257A068386927A068153983A068182036
2552A068553162A069093007A069424069A069344072A069009923A068673359A068408403
2545A068204853A068153178A068370552A068804227A069264142A069647550A070047199
2538A070562683A071004746A070916159A070068406A068872814A068081368A068070563
2531A068615241A069200789A069324274A068757718A067833727A067314284A067630312
2524A068301763A068527928A068251966A068131098A068604771A069357360A069785062
2517A069653053A069186762A068833219A068969254A069647416A070486780A070953071
2510A070826834A070301351A069736808A069342461A069011266A068514640A067913388
2503A067696417A068257268A069231593A069887340A069949485A069525541A068671279
2496A067515618A066561762A066415258A067132210A068120427A068973415A069805732
2489A070587984A070935689A070619929A069834053A069053546A068608060A068182371
2482A067389381A066739876A067149256A068329882A069011803A069041130A069238036
2475A069657684A069660368A069192198A068641682A068190223A067976809A068267737
2468A068855902A069252867A069610169A070300612A070931259A070768245A069859086
2461A068727115A067635614A066865375A067520652A070469129A073343919A073741823
2454A072297382A070419400A068998045A068257737A067924126A067677088A067661720
2447A068394712A069822510A070921260A071076422A070831599A070839317A070912200
2440A070540804A069863582A069321925A068829125A068247335A068240624A069287564
2433A070319336A070592279A070975553A072089135A072964873A072570324A070983539
2426A069081531A068002043A068077811A068329614A068132776A068094992A068708190
2419A069338434A069592250A069945391A070643015A071223127A071249435A070825894
2412A070328933A069962773A069672247A069384204A069133342A069051868A069381990
2405A070203032A071033336A071301849A071032464A070556173A070102365A069898346
2398A070121626A070553287A070807975A070764554A070428795A069831637A069180521
2391A068765235A068618126A068492225A068221766A067897281A067943253A068834964
2384A069939754A069916197A068774899A067896879A068565914A069868481A069992839
2377A068804696A067310257A066681288A067527967A069378164A071097897A071792099
2370A071342653A070388461A069769425A069807007A070154041A070474633A070765158
2363A070930387A070715429A070055118A069142133A068316393A068074053A068790670
2356A070032569A070896697A071051657A070717509A070303230A070173704A070235111
2349A069874521A068842010A067697558A067097782A067059461A067074024A066831214
2342A066692361A067225696A068144520A068589134A068232973A067424615A066763432
2335A066536998A066478074A066330227A066387272A066723635A066611022A065896217
2328A065288925A065021821A064309164A062864991A061388403A060493269A060021475
2321A059415861A058583946A058105508A058425697A058935812A058630857A057364731
2314A055938678A055468227A056002367A056461746A056368997A055937806A055277965
2307A054259548A053012213A052098892A051839976A051810179A051345431A050462243
2300A050120377A051351807A053234755A053538502A052166138A050379898A048920490
2293A047896637A047378200A047363369A047418266A047145323A046557695A045869667
2286A045386330A045459079A046047580A046461994A046108987A045161641A044207114
2279A043621096A043258022A042775088A042183567A041774656A041584194A041292795
2272A040719059A040098009A039843589A039992912A040025260A039564338A038693902
2265A037658236A036717132A036097692A035783140A035435503A034732040A033684295
2258A032534406A031564308A031085938A031210496A031408341A030984264A029897057
2251A028563484A027354469A026463564A025916404A025492863A024873088A024071642
2244A023457572A023201004A023099532A022917928A022519755A021869579A021086186
2237A020210380A019037472A017565918A016391599A016082619A016232546A015837125
2230A014613078A013342791A012787107A012674897A012262362A011522860A011033751
2223A010932614A010703764A009957685A008915510A008055744A007503551A006978000
2216A006323797A005798851A005685567A005834487A005798717A005269341A004332061
2209A003393305A002707828A002081141A001195335A000037058I98895222I98078542
2202I97671040I97451318I97090795I96504173I95901780I95498708I95322540I95229725
2194I94975909I94396601I93574687I92756732I92095482I91502888I90767211I89826173
2186I88862183I88092817I87575991I87255869I87032052I86715955I86120879I85332050
2178I84733012I84575904I84554630I84030556I82773221I81243146I80041380I79327246
2170I78861894I78376208I77768312I77023374I76054485I74733395I73191776I71902093
2162I71193597I70781197I70046191I68754496I67281867I66112181I65306171I64564052
2154I63660328I62627549I61559536I60465081I59362774I58337444I57403520I56425638
2146I55306487I54224179I53497764I53183883I52983085I52615918I52088355I51512403
2138I50927795I50424861I50195742I50216413I50029440I49138669I47637719I46201734
2130I45334989I44811720I44085238I43089101I42236584I41640566I40883414I39761578
2122I38721819I38237676I38160968I37971243I37327711I36159501I34586608I32987407
2114I31824096I31181369I30707897I30097316I29345936I28538584I27722307I26943746
2106I26136461I25086636I23712594I22206611I20805725I19600939I18576616I17681080
2098I16842186I15935777I14790184I13421176I12203370I11488565I11099519I10526723
2090I09542398I08340497I07176985I06100382I04996129I03782215I02509848I01265869
2082I00082156H99027699H98234307H97688220H97066566H95951508H94264324H92342586
2074H90467758H88524074H86364492H84278129H82789394H82135124H82127741H82319479
2066H82172035H81297505H79738705H77950586H76406014H75278675H74519173H74070734
2058H73840072H73600752H73141911H72473211H71739414H70995080H70206050H69442589
2050H68882275H68500075H67951035H67047647H66180096H65906483H66314588H67049660
2042H67723594H68103781H68174181H68136599H68179617H68308874H68511886H68864557
2034H69377692H69939684H70433692H70818711H71206750H71872899H72957891H74207440
2026H75260957H76115958H77016125H77985350H78785722H79331271H79878029H80742895
2018H82031638H83683588H85535329H87263384H88508571H89210424H89697452H90367158
2010H91313632H92267823H92907933H93234833H93590993H94284860H95266232H96198210
2002H96790335H97069452H97322328H97763251H98345980H98980654H99790824I00927090
1994I02214691I03281161I04046903I04829021I05917100I07260539I08584515I09628301
1986I10302771I10787786I11422930I12404570I13672710I15077354I16533808I18018449
1978I19478125I20792706I21905482I22937926I24009093I25034691I25940294I26871467
1970I27895454I28721597I29043934I29008566I29047289I29325131I29586531I29588678
1962I29449622I29401772I29440697I29489890I29627737I29796925I29613644I28866692
1954I27894582I27117229I26512688I25863384I25200322I24674772I24189421I23455758
1946I22372847I21110949I19810260I18385147I16735076I15008699I13462919I12129950
1938I10831409I09503406I08249964I07041621I05638185I03989993I02502801I01700751
1930I01688000I02030873I02127648I01682833I00887829I00129469H99497413H98630332
1922H97069452H94702764H91857839H89069355H86838232H85476472H84957566H84916427
1914H84953472H84910655H84770526H84496711H84155785H83926330H83786737H83431853
1906H82609200H81319719H79728974H78128364H76883982H76210250H76108509H76612449
1898H77841060H79710921H81835739H83863514H85771361H87697260H89617723H91383898
1890H92972562H94409352H95467500H95795407H95409515H94776117H94324926H94024803
1882H93439322H92174136H90399304H88912046H88494008H89287937H90965860H93254363
1874H95989762H98927703I01840275I04616949I07111081I09155433I10776445I12093173
1866I13028305I13398492I13251719I12947637I12931933I13422719I14247587I15084535
1858I15896047I16897217I18053415I18937408I19217867I19032102I18763320I18661579
1850I18779763I19054719I19319541I19409671I19377055I19423563I19546512I19452891
1842I18933784I18156833I17478135I17085465I16931578I16953994I17199085I17677724
1834I18207972I18526148I18500109I18156028I17583701I16915740I16335158I15961414
1826I15680552I15139164I13992295I12250818I10380084I08925509I07959371I07019071
1818I05702612I04149248I02737222I01546395I00412680H99272052H98108070H96779329
1810H95238113H93745888H92614052H91902334H91555166H91636640H92237758H93300133
1802H94709475H96472025H98614225I00962189I03228545I05309607I07321409I09360794
1794I11418568I13507213I15669613I17834832I19809454I21441137I22734645I23809436
1786I24791345I25722450I26521279I27072331I27428694I27836262I28415367I28959709
1778I29241644I29347949I29444992I29420832I29092724I28609252I28316646I28332552
1770I28452346I28339665I27723783I26670602I25741980I25577623I26218337I27091861
1762I27671235I27886797I27900085I27794250I27580366I27336080I27211655I27281921
1754I27416077I27407084I27274538I27274673I27517885I27788546I27942902I28262353
1746I29109502I30366366I31530751I32296628I32785066I33282295I33962068I34814653
1738I35747167I36749210I37878764I39024760I39898150I40386319I40703488I41089044
1730I41561106I42028135I42448321I42814145I43127019I43421572I43718004I43958800
1722I44116914I44354154I44915609I45821010I46776746I47423768I47621411I47513428
1714I47380212I47427191I47708388I48202597I48828882I49394901I49724150I49894143
1706I50181313I50735588I51446701I52144930I52786382I53390050I53901171I54206529
1698I54276794I54244648I54354979I54798317I55531176I56280141I56801329I57099170
1690I57338288I57645927I58063629I58539987I58906886I59044867I59116407I59409685
1682I59928525I60372132I60524341I60432062I60222070I59991207I59875305I60022011
1674I60421056I60861710I61133378I61254246I61427393I61766038I62159849I62445408
1666I62592785I62672849I62739625I62807810I62888613I62991763I63102497I63210747
1658I63363494I63636504I64028838I64445667I64783909I65000747I65141278I65311809
1650I65575892I65882592I66152380I66382841I66629812I66940337I67302806I67632861
1642I67856611I68004390I68126600I68184652I68161968I68162371I68258206I68393838
1634I68549671I68814091I69154615I69307495I69050323I68497727I68014323I67874798
1626I68069421I68414106I68743288I68973212I69093275I69157902I69196090I69123072
1618I68865163I68536383I68333438I68300755I68325318I68294849I68177269I68035933
1610I67970432I67961573I67865067I67627291I67353811I67134356I66993959I66987919
1602I67130330I67265090I67196166I66928123I66665247I66574982I66642362I66776986
1594I66965034I67220125I67496826I67741112I67935735I68065395I68143177I68219483
1586I68259951I68153311I67917414I67743461I67811109I68154519I68632017I68966434
1578I68949522I68658526I68366725I68257870I68287534I68299010I68270420I68370148
1570I68669801I68953414I68988715I68837378I68742751I68863485I69163138I69406082
1562I69334339I68994218I68756509I68915161I69406753I69929283I70195313I70111558
1554I69842642I69666407I69732848I69997334I70312221I70485302I70371682
1547I70055855I69834387I69874990I70024246I70092498I70162294I70436847
1540I70934882I71501840I71965044I72150138I71930750I71422380I70996759
1533I70951526I71214603I71469493I71547812I71570831I71699954I71892094
1526I71968131I71808674I71399227I70795424I70155650I69723385I69633321
1519I69790496I70038943I70337053I70614223I70668047I70448860I70234976
1512I70255378I70390876I70511744I70790257I71366946I71959809I72137722
1505I71846458I71451171I71358289I71710020I72312346I72743068I72691728
1498I72290267I71941555I71789682I71648949I71467144I71444124I71605461
1491I71664854I71429360I71055280I70859516I71060111I71625191I72270737
1484I72757296I73178823I73718333I74255426I74555683I74663666I74687692
1477I74428306I73713031I72904404I72593409I72886552I73355930I73602968
1470I73590485I73520555I73621759I73987383I74397434I74411796I73896782
1463I73368682I73495187I74289452I75112441I75449542I75354579I75114655
1456I74810976I74409112I74094359I74213616I74831377I75578060I76051532
1449I76187433I76148710I76079987I76053009I76049317I75945362I75651212
1442I75238879I74836679I74502128I74316833I74480988I75114387I75965428
1435I76504535I76431450I75965227I75537659I75343371I75293642I75263441
1428I75235120I75243979I75296393I75380887I75502962I75598194I75474641
1421I75038014I74494142I74105566I73878058I73769069I73992618I74709771
1414I75590743I76153609I76371453I76485945I76452859I76214546I76411317
1407I78033268I81121003I84437117I86647771I87205132I86175574I84235850
1400I82680473I82276797I82319547I81668901I80234057I78770757I77990250
1393I78080582I78525866I78608817I78326009I78183531I78419093I78836056
1386I79039606I78777804I78207691I77774218I77787439I78176015I78637406
1379I78958334I79206982I79633476I80284860I80804840I80859133I80609680
1372I80501832I80665584I80769674I80549884I80255667I80284726I80594983
1365I80817189I80766520I80557333I80358414I80250163I80224191I80202447
1358I80089498I79832393I79484757I79292885I79566230I80278149I80990135
1351I81356631I81425622I81325223I81071005I80823430I80918057I81470317
1344I82188479I82616784I82513500I82092105I81823191I81906208I82119085
1337I82225323I82212974I82142239I82132642I82453166I83269444I84346047
1330I85270307I85909075I86433820I86958632I87330832I87294055I86814141
1323I86212553I85871828I85845117I85934778I86003970I85973166I85863640
1316I86109470I87128625I88281333I88283816I87078493I86168259I86707433
1309I88238381I89429276I89328407I88100736I87001583I87217548I88479043
1302I89410820I89354513I89016540I89175930I89694366I90097572I90218708
1295I89926102I89026808I87768265I86838099I86715822I87341369I88307372
1288I89255390I90274478I91636037I92873238I92866124I91286252I89186466
1281I87904367I88106440I89564774I91041898I91131962I89923552I88797286
1274I88345357I88016242I87886382I88894262I90990357I92784047I93394359
1267I93285974I93046654I92499158I91386919I90169247I89728257I90477356
1260I91830526I92838810I93279598I93580660I93822732I93261679I91003444
1253I87234125I83697683I82417060I83571446I85166955I85256885I83933513
1246I82597926I82005533I81747891I81184759I80247278I79408518I79155440
1239I79522675I80077217I80258016I79714546I78537075I77303296I76729560
1232I77147530I78334599I79748639I80834571I81274084I81134492I80824437
1225I80849939I81481928I82564505I83683925I84506309I84913005I84988036
1218I85005686I85227423I85572645I85689016I85434797I85110313I85044208
1211I85052530I84650733I83913916I83556413I83881501I84333497I84442017
1204I84457117I84686101I84974614I85188028I85554457I86303757I87387005
1197I88529176I89260826I89167943I88448709I87919400I88153687I88872720
1190I89376123I89344447I89013318I88775609I88957012I89882949I91687981
1183I93835886I95263281I95443408I94878195I94348953I94204730I94250031
1176I93905279I92970415I92600899I94425393I97954990A000454424A000379662
1169I99215814I99174809A000644484A002375827A002950839A001648674I98821735
1162I95811380I94031717I93826087I94466264I95346633I96621081I98414301
1155I99894244I99730224I97554401I94623037I92904042I93595693I96217875
1148I98877773I99756464I98500606I96093383I93848435I92658481I92448220
1141I92249101I91439937I90569836I90284478I90084083I89172977I87998055
1134I87843564I89236934I91556241I93878032I95493473I96083048I95850708
1127I95093690I93768506I91939784I90200186I89033720I88134023I86800114
1120I84920656I83323804I82990528I84050689I85740289I87198153I87977452
1113I87920273I87054937I85679150I84326719I83620973I83980759I85249435
1106I86865817I88312607I89148884I89125797I88582060I88190397I88112078
1099I87943158I87497873I87022656I86637906I86135777I85429160I84873275
1092I85004747I86007527I87307007I87955037I87596594I86702199I85897599
1085I85286951I84635029I84063239I83985256I84378261I84668250I84478861
1078I84090151I83975457I84228199I84607514I84863276I84877436I84671135
1071I84384703I84191422I84213368I84486512I84856497I84971594I84609863
1064I83913044I83233674I82923417I83161126I83780901I84459935I85159909
1057I86022762I86739446I86674213I85892834I85197357I85199235I85796461
1050I86425498I86667972I86542809I86354024I86373822I86612001I86908835
1043I87195535I87455861I87586930I87597668I87712227I87975170I88178988
1036I88303681I88446763I88517029I88310526I87771352I87134196I86857360
1029I87159564I87556461I87485323I87066614I86671797I86416840I86318522
1022I86424760I86641932I86719513I86516300I86212620I86131549I86294026
1015I86332951I86040143I85664252I85477816I85510164I85738276I86196244
1008I86854743I87493645I87779339I87543777I86972524I86540795I86683072
1001I87221910I87501228I87209964I86536836I85795925I85152728I84628318
994I84107734I83355481I82285253I81055770I79803872I78535330I77212696
987I75786374I74211871I72414289I70264505I67769231I65147721I62608556
980I60160999I57673443I55011397I52112850I49041021I45873022I42617442
973I39345151I36147353I32953113I29722029I26573290I23601525I20828342
966I18194349I15443917I12320144I08817996I04986263I00880447H96613765
959H91888710H86217921H79628307H72466500H64826524H56853876H49144305
952H42144371H35814479H30130066H25330249H21567037H18656478H16335492
945H14562674H13496205H13269771H13964107H15353047H16637427H17463302
938H18615405H20398424H21166784H19784622H16553471H11812780H05688786
931G97781437G87612631G75952339G63780522G49764414G32220924G14577371
924G00725081F89557321F79436500F69605131F59469210F49255372F39824323
917F30829634F21008935F10388201F00430259E91387182E82159482E72095034
910E61945557E52799598E44780273E37591589E30923790E24251562E17758991
903E13213897E10774057E09638094E10227904E12949880E16481188E19612310
896E22449852E25260282E28172922E31763422E36861751E42580693E46889421
889E49985410E53354375E57887692E63356174E69125819E75419471E82876770
882E90813043E97924181F04782039F13517141F24606852F35143898F43409690
875F50472842F57288420F63823003F69837873F75544232F81583263F88621719
868F96887980G05965217G15058359G23520250G31098484G37643670G42800587
861G46212402G47775698G47636375G46268239G44413344G42614553G40852003
854G38649135G35484423G31056405G24994824G16841646G07475025F98781062
847F90839419F82481887F73406663F64671427F56717436F48860555F40951931
840F33393428F25573056F15440356F03322565E93279929E84998702E76433459
833E67204953E57368819E46947439E36623673E27186919E18894753E12261886
826E08413309E08633703E13123598E18580973E22309287E25235283E28944470
819E33518384E37681082E41052497E44429179E48389196E52591015E56694650
812E61534230E67902242E74819896E81608831E89270820E97984044F06582373
805F14605489F22320228F29934701F38800940F51399384F64869943F72439989
798F73512565F68818248F57510090F41097563F27554994F26229608F36514383
791F51399048F67063080F82575977F96314512G06557342G13608750G18575137
784G22200904G24935565G26930791G28144503G28628712G28574755G28232821
777G27809415G27175815G25983243G24216331G22105539G19772541G16866746
770G12365576G05157999F94024868F76545738F51537499F27846124F16788224
763F16525281F20853975F25711910F28927894F29843631F28781860F26285848
756F22691354F18209714F13144740F07674747F01667662E95447832E90309707
749E87099494E85915781E87040503E90505404E95525883F01488339F08369754
742F15666053F22401969F28532675F34750088F40557248F44594812F46891972
735F48280174F49041018F48893372F47616844F45453504F43018094F41043673
728F40097601F40383698F41951759F44758698F48295140F51750780F54592685
721F56445768F57009639F56375838F54829387F52433236F49015717F44430724
714F38676515F31853219F24178546F15997651F07736356E99751225E92189970
707E85205741E79247110E74751845E71878264E70722738E71295669E73423440
700E76982431E81796341E87265662E92827194E98548519F04738283F11400041
693F18193271F24726176F30781783F36240232F40923207F44647495F47341418
686F49047192F49901790F50062925F49532274F48132261F45801276F42813336
679F39647350F36813163F34788073F33940387F34397819F36012053F38533701
672F41795053F45670274F49939775F54254241F58180467F61329138F63551201
665F64959268F65727762F65922922F65482402F64291374F62287223F59504376
658F56008402F51854803F47171760F42180139F37024095F31670474F26072567
651F20350840F14731323F09388642F04417691E99874576E95787350E92176682
644E89094317E86614747E84791394E83635868E83137297E83289908E84093569
637E85494992E87343981E89457122E91716700E94051443E96350818E98468589
630F00310264F01886915F03290351F04612918F05881863F07077857F08192848
623F09249050F10301224F11448361F12789183F14336036F16028455F17855767
616F19892200F22185199F24682218F27311043F30067448F32974988F36001181
609F39069520F42144100F45279819F48581841F52099491F55747338F59341161
602F62725528F65867421F68838650F71713574F74456891F76855860F78577472
595F79373079F79229125F78247887F76436480F73799601F70707303F68017339
588F66652693F67001472F68757646F71316475F74217773F77204370F80071979
581F82638390F84784483F86412810F87407806F87690748F87251033F86096916
574F84236383F81739633F78762499F75465779F71927995F68145119F64056014
567F59546455F54503292F48907063F42830785F36370093F29626257F22709072
560F15702830F08693970F01854903E95435551E89719729E85080175E81984790
553E80788527E81500849E83795862E87214389E91354298E95976470F01035136
546F06652102F13025348F20266413F28274631F36768533F45381963F53684196
539F61254443F67892444F73674572F78703575F82911736F86205838F88657489
532F90418697F91554157F92084942F92117760F91827301F91366312F90863445
525F90441448F90192196F90176223F90422455F90856331F91262759F91424632
518F91296717F90987937F90576007F89991599F89114519F87961341F86721926
511F85592305F84609255F83696337F82868113F82346992F82380078F82861067
504F83178504F82555776F80553974F77263026F73266266F69711100F68191762
497F69964580F74987341F81909559F89142303F95864194G02022951G07663944
490G12551072G16423407G19330075G21519790G23141741G24210022G24722285
483G24651549G23917752G22475995G20382652G17759262G14751323G11524534
476G08230633G04923914G01557332F98168065F95041742F92489222F90338029
469F87715176F83384000F76396415F66785037F55976659F46356892F39850631
462F36601829F35147254F33975956F32770298F32135892F32515542F33671069
455F35032090F36183791F36976982F37388645F37414684F37019531F36083124
448F34426946F31990126F28989099F25845596F22969129F20645795F19092566
441F18524601F19157797F21255235F25211124F31409947F39807277F49688912
434F59969727F69746535F78608209F86571730F93792863G00278521G05859180
427G10417731G14065108G17110764G19907301G22640686G25229245G27532714
420G29632298G31722017G33742074G35352147G36313989G36745650G37011345
413G37529244G38620746G40290884G42132894G43673506G44824469G45818860
406G46772112G47558794G48083203G48418425G48680093G48955183G49334431
399G49867095G50523647G51330931G52434916G53877076G55395273G56625024
392G57440228G57978530G58381333G58623404G58622263G58454082G58363548
385G58527301G58893461G59289151G59586052G59763428G59916845G60183814
378G60578900G60960630G61190890G61244244G61173172G61060828G60945866
371G60731176G60262133G59548000G58791116G58121611G57379962G56225979
364G54447255G52152041G49647439G47092570G44302878G41046358G37519983
357G34273396G31607256G29346202G27239974G25246090G23374148G21557708
350G19708382G17711612G15434787G12884415G10270555G07836555G05701737
343G03874894G02313343G00930913F99644720F98458792F97433597F96613158
336F96192973F96716040F98694220G01837858G04981899G07117522G08378950
329G09689235G11532856G13501439G14962255G15563642G15088358G13501304
322G11244277G08922822G06713779G04495877G02431996G01047754G00718437
315G01193184G01788866G02183751G02716415G03658795G04614933G04977268
308G04628422G03955294G03394644G03033986G02546421G01516528F99842565
301F97872707F96250622F95530649F95799834F96708322F97785261F98595230
294F98822403F98430136F97570907F96274379F94435993F92046487F89145323
287F85642303F81598296F77702136F74957342F73702960F73390087F73408542
280F73508069F73333109F72351804F70406241F67642790F63891524F58756821
273F52332570F45391359F38784967F32730702F26633351F19662678F11533325
266F02599505E93303418E83908811E74799427E66568466E59575345E53699161
259E48678749E44470017E41238261E39262632E38792281E39687717E41246113
252E42645724E43483779E43705382E43268788E42089772E40001127E36635350
245E31722014E25564297E18797777E11717981E04221690D96346354D88625475
238D81860398D76697441D73665409D73546454D77098063D84099138D92992321
231E01599039E08298212E13106116E18013881E25921800E38549237E54963642
224E72219056E87619206F00188121F10135727F17859391F23803191F28547708
217F32456149F35448853F37496157F39120189F40881531F42513012F43235334
210F42757365F41817469F41675259F42245707F42782800F42955344F42503818
203F41413524F40071562F38713560F37313077F36216139F36026750F36633640
196F37196303F37301735F37355089F37629307F37733531F37250261F36226676
189F34911894F33647043F33042301F33513222F34563451F35144972F34715391
182F33437856F31609805F29392440F26876429F24145930F21439657F19201085
175F17715437F16804600F16067983F15363447F14899840F14852728F15068559
168F15196674F14922188F13958735F12085049F09429177F06524590F03951735
161F02033621F00781320E99945714E99237553E98609993E98317588E98787772
154F00364356F02928285F05860387F08561022F10841472F12746634F14297447
147F15579277F16788694F17942207F18786537F19312557F20200577F22371232
140F26148336F31065061F36330363F41243061F45271028F48217224F50565389
133F53340786F57211511F61738653F65708971F68113040F68838583F68830261
126F69664591F72380528F76346215F79722596F81400451F81982979F82505845
119F82888113F82403366F81355688F81176366F82536582F84428926F85647000
112F86087051F86104097F85838939F85636665F85922829F86404153F86529651
105F86515491F86980775F88027245F89205186F90000190F90137433F89821673
98F89634969F89850531F90047033F89683356F88815805F87969462F87449348
91F87022048F86292345F85208896F83989950F82779258F81612926F80604710
84F79830176F79189731F78886588F79640384F81673595F83801568F84649186
77F84575833F84925820F85939741F86932186F87772154F88609437F88714937
70F87242107F84646368F81640845F77986085F73622292F69574528F66867249
63F65470993F64820213F65079397F67702720F74043350F83423931F93607703
56G02544139G09714603G15987317G21903198G27025150G31221231G35322550
49G39658827G42910649G43807327G43300299G43837258G46656479G50695050
42G54199949G56272085G57423182G59248280G62624258G66446796G69158102
35G70602946G71053600G70712942G71717467G75899254G80889734G82670203
28G79524417G73868190G69665801G68198206G67765269G66550953G64925311
21G64644919G65543811G63832869G56871458G50654179G52659673G60386894
14G66836446G68913145G68364575G68431888G70664622G74175561G77382754
7G80204055G83554129G87559747G91483825G94766921G97104282G96887243
$$ === CHEMSPECTRA INTEGRALS AND MULTIPLETS ===
##$OBSERVEDINTEGRALS= (X Y Z)

##$OBSERVEDMULTIPLETS=
##$OBSERVEDMULTIPLETSPEAKS=
$$ === CHEMSPECTRA SIMULATION ===
##$CSSIMULATIONPEAKS=
##END=


$$ === CHEMSPECTRA PEAK TABLE EDIT ===
##TITLE=NiW-X13194
##JCAMP-DX=5.00
##DATA TYPE=INFRAREDPEAKTABLE
##DATA CLASS=PEAKTABLE
##$CSCATEGORY=EDIT_PEAK
##$CSTHRESHOLD=0.93
##MAXX=3997.453
##MAXY=0.9536364664407989
##MINX=373.96442
##MINY=0.42057704879781915
##$CSSOLVENTNAME=- - -
##$CSSOLVENTVALUE=0
##$CSSOLVENTX=0
##NPOINTS=41
##PEAKTABLE= (XY..XY)
396.6289302736509, 0.6666883821108074
460.3728654182951, 0.5904555314538952
488.7035032603594, 0.602948486336804
536.8655875918685, 0.6049821370283202
552.4474384050036, 0.5940170281964673
593.5268632759967, 0.531391679273074
613.3583097654414, 0.5460772509290678
637.4393519311961, 0.5622321959542341
653.0212027443313, 0.5648828139497974
667.1865216653632, 0.569899498638831
705.4328827521499, 0.42057704879781915
733.7635205942138, 0.47852468441887075
772.0098816810005, 0.5980668065147557
796.0909238467552, 0.6177307954350173
820.1719660125095, 0.6223382939146253
848.5026038545734, 0.6183190339719444
997.2384525254101, 0.5493383998551251
1021.3194946911649, 0.5614271749916576
1077.980770375293, 0.5934499496705655
1090.7295574042219, 0.6060218205148447
1113.394067677873, 0.6129752985538469
1155.8900244409692, 0.5158233634694106
1205.4686406645815, 0.5920830360500567
1279.128299053948, 0.5179094075028114
1330.1234471696635, 0.5630298249012068
1368.3698082564501, 0.5068835017183995
1403.7831055590304, 0.5684983124615351
1432.1137434010943, 0.5203770990903658
1453.3617217826427, 0.5475627174524808
1495.8576785457385, 0.5561815491969774
1542.6032309851444, 0.4515438079254495
1648.8431228928848, 0.45263159235791794
1708.3374623612194, 0.722299992481114
2930.8044852462863, 0.7918286313611161
3032.794781477717, 0.7891098847911253
3063.9584831039874, 0.7781097884472334
3085.2064614855353, 0.7859324806608535
3106.4544398670837, 0.80082803867096
3260.856416106333, 0.7710295910288788
3269.3556074589524, 0.7690489287351711
3301.935840977326, 0.783455728236679
##END=


$$ === CHEMSPECTRA PEAK TABLE AUTO ===
##TITLE=NiW-X13194
##JCAMP-DX=5.00
##DATA TYPE=INFRAREDPEAKTABLE
##DATA CLASS=PEAKTABLE
##$CSCATEGORY=AUTO_PEAK
##$CSTHRESHOLD=0.93
##MAXX=3997.453
##MAXY=0.9536364664407989
##MINX=373.96442
##MINY=0.42057704879781915
##NPOINTS=136
##PEAKTABLE= (XY..XY)
3398.260009640344, 0.8439098584203821
3301.935840977326, 0.783455728236679
3269.3556074589524, 0.7690489287351711
3260.856416106333, 0.7710295910288788
3158.8661198749023, 0.8250926127643942
3150.366928522283, 0.8254418359876972
3106.4544398670837, 0.80082803867096
3085.2064614855353, 0.7859324806608535
3063.9584831039874, 0.7781097884472334
3032.794781477717, 0.7891098847911253
3010.1302712040656, 0.8108142609688476
2994.5484203909305, 0.8159030069302654
2987.465760930414, 0.8165384520529643
2976.1335057935885, 0.8143665183580222
2930.8044852462863, 0.7918286313611161
2882.6424009147768, 0.8244780887422077
2872.7266776700544, 0.8220454441722849
2859.9778906411257, 0.8234966985326463
2854.311763072713, 0.8235525476396054
2800.483551172791, 0.841409264680952
2776.4025090070363, 0.8475058666302541
2746.6553392728692, 0.8525066961874168
2692.8271273729474, 0.8598664393329585
2677.2452765598123, 0.8596113912588296
2660.2468938545735, 0.8599897020590933
2643.248511149335, 0.8588237157323632
2634.749319796716, 0.8584569685561729
2614.9178733072713, 0.8594947451993113
2603.5856181704457, 0.8599516140392478
2599.336022494136, 0.8599627602360314
2590.836831141517, 0.8603822577876606
2582.3376397888974, 0.8603944768613935
2572.421916544175, 0.8612025965554901
2562.5061932994527, 0.8613517868451868
2544.0912787021107, 0.8623439662179774
2525.676364104769, 0.8611732114505676
2515.760640860047, 0.8617075672295139
2501.595321939015, 0.8627052299982361
2487.430003017983, 0.8627814637672331
2480.347343557467, 0.8622622481649057
2460.515897068022, 0.8638021933903665
2453.433237607506, 0.8646256317778593
2444.934046254886, 0.8644907468102019
2432.1852592259575, 0.865135251881378
2410.9372808444095, 0.8653328406449806
2395.3554300312744, 0.8661484109721304
2379.7735792181393, 0.8648463477896087
2368.4413240813133, 0.8670182814845507
2354.2760051602813, 0.8724024283050265
2347.1933456997654, 0.8685953608640925
2340.110686239249, 0.8687670220641333
2331.6114948866298, 0.868403493518791
2316.0296440734946, 0.8708260052632874
2310.363516505082, 0.8706073754998443
2291.9486019077403, 0.8697522872423454
2280.616346770915, 0.871111630330473
2270.7006235261924, 0.8719995612342554
2262.2014321735733, 0.8722743980263551
2243.7865175762313, 0.8755716073414008
2238.1203900078185, 0.8755880584173388
2229.621198655199, 0.875858603701641
2221.1220073025797, 0.8765987147206381
2214.0393478420638, 0.8783882850180318
2201.290560813135, 0.8763449180402357
2187.125241892103, 0.8774005161642233
2174.3764548631743, 0.8773845429093109
2160.2111359421424, 0.8790203916105547
2144.629285129007, 0.8725270019304802
2129.0474343158717, 0.8696302164043448
2119.131711071149, 0.8674756876511052
2109.2159878264265, 0.8711125246906453
2089.384541336982, 0.8748602854832593
2083.718413768569, 0.8735389105156491
2062.470435387021, 0.877413867620498
2053.971244034402, 0.8781743037959405
2041.222457005473, 0.882996140531194
2035.55632943706, 0.8815717089827098
2015.7248829476152, 0.8826598513368757
2002.9760959186863, 0.8818409433676931
1978.8950537529317, 0.8773465143950578
1956.2305434792804, 0.8730363236178937
1943.4817564503514, 0.8735962490387044
1920.8172461767003, 0.8747084725067817
1905.2353953635652, 0.8739197844971015
1898.1527359030492, 0.8739110815821787
1888.2370126583264, 0.8741028894218877
1876.9047575215009, 0.8729767194416118
1864.1559704925721, 0.8749963037216016
1855.656779139953, 0.8760235896176161
1831.5757369741982, 0.8764706240482312
1821.6600137294758, 0.8759920587587947
1813.1608223768567, 0.8758259999658703
1806.0781629163407, 0.8752453914669167
1793.329375887412, 0.8761894690056201
1708.3374623612194, 0.722299992481114
1648.8431228928848, 0.45263159235791794
1542.6032309851444, 0.4515438079254495
1495.8576785457385, 0.5561815491969774
1453.3617217826427, 0.5475627174524808
1432.1137434010943, 0.5203770990903658
1403.7831055590304, 0.5684983124615351
1368.3698082564501, 0.5068835017183995
1330.1234471696635, 0.5630298249012068
1279.128299053948, 0.5179094075028114
1205.4686406645815, 0.5920830360500567
1155.8900244409692, 0.5158233634694106
1113.394067677873, 0.6129752985538469
1090.7295574042219, 0.6060218205148447
1077.980770375293, 0.5934499496705655
1021.3194946911649, 0.5614271749916576
997.2384525254101, 0.5493383998551251
919.329198459734, 0.6735354055331672
848.5026038545734, 0.6183190339719444
820.1719660125095, 0.6223382939146253
796.0909238467552, 0.6177307954350173
772.0098816810005, 0.5980668065147557
733.7635205942138, 0.47852468441887075
705.4328827521499, 0.42057704879781915
667.1865216653632, 0.569899498638831
653.0212027443313, 0.5648828139497974
637.4393519311961, 0.5622321959542341
613.3583097654414, 0.5460772509290678
593.5268632759967, 0.531391679273074
552.4474384050036, 0.5940170281964673
536.8655875918685, 0.6049821370283202
526.9498643471461, 0.608943521121328
521.2837367787329, 0.6097240444308465
511.3680135340105, 0.6124945875105117
488.7035032603594, 0.602948486336804
481.62084379984344, 0.6080013504260106
460.3728654182951, 0.5904555314538952
437.708355144644, 0.6601570838158078
419.29344054730245, 0.6845034354679062
402.29505784206367, 0.6791141622850532
396.6289302736509, 0.6666883821108074
389.5462708131349, 0.6824177493562027
##END=

##END=

