##TITLE=X7373
##JCAMP-DX=4.24
##DATA TYPE=INFRARED SPECTRUM
##DATE=26/10/2018
##SAMPLING PROCEDURE=Diamant-ATR
##ORIGIN=ComPlat
##XUNITS=1/CM
##YUNITS=TRANSMITTANCE
##RESOLUTION=4
##FIRSTX=3997.453
##LASTX=373.96442
##DELTAX=-1.4165319
##MAXY=0.96967763
##MINY=0.53759098
##XFACTOR=1
##YFACTOR=9.0308267e-010
##NPOINTS=2559
##FIRSTY=0.95222241
##XYDATA=(X++(Y..Y))
3997+1054413337+1053892257+1052763371+1051755860+1051182903+1051170693
3989+1051961455+1053387677+1054657344+1055055464+1054485543+1053441402
3980+1052713210+1052640410+1052557644+1051658575+1050216644+1049091651
3972+1048491303+1048202086+1048442396+1049497361+1050798115+1051148516
3963+1050122196+1048867709+1048839394+1049949866+1051050438+1051690255
3955+1052028446+1051474893+1048771545+1043795508+1038890818+1037096968
3946+1038129361+1038561735+1037035455+1036489558+1039649899+1044980033
3938+1049160161+1050049990+1046613896+1039262537+1031530615+1028733347
3929+1032115321+1037064561+1038735847+1037030307+1035630221+1036207798
3921+1036169452+1033272324+1029621527+1029948035+1035882808+1044024928
3912+1050146550+1052504843+1051029780+1045207078+1034218255+1019570450
3904+1006657887+1000916564+1002722756+1009835388+1020518559+1031463030
3895+1037771238+1036370294+1029206775+1023845554+1025300817+1028799151
3887+1027751974+1022357224+1017909989+1015779005+1014415814+1016931652
3878+1025438958+1033424655+1033746279+1026633449+1017629352+1010622454
3870+1007534516+1009815588+1013935258+1014340242+1011683227+1012727764
3861+1020013979+1028056306+1031404685+1028147190+1016956798+997833049+983398627
3852+990302563+1009812948+1027089386+1036387454+1037144093+1031244829
3843+1021816343+1011516376+1001895298+995725825+997042023+1005029172+1013824772
3833+1020051798+1024483984+1028036439+1029566548+1028454228+1026510555
3825+1024422273+1018948982+1008814744+1001994498+1004987262+1011992311
3816+1018279597+1026404293+1036939621+1045001880+1046439982+1040605334
3808+1030932247+1023765758+1020610037+1016072579+1008237100+1004133997
3799+1008238618+1015975359+1024444384+1034280560+1043982159+1050404880
3791+1052783105+1052527350+1050448638+1046714152+1043215422+1042236821
3782+1042445055+1040712718+1037960793+1038770233+1043851015+1048861967
3774+1049813904+1045547513+1038163087+1032467834+1031248261+1032478328
3765+1034040579+1035499934+1034871668+1029571960+1021522307+1017103651
3757+1018147000+1018935254+1013129514+998689680+982322740+976749918+981884359
3747+987434674+989455436+992621189+1000704304+1009035452+1011715766+1005494548
3737+990988316+977058211+977037354+992295076+1011150795+1023531057+1026449570
3727+1022038306+1015774055+1013039290+1014911154+1019553488+1025619405
3718+1031916855+1036132491+1035413538+1027718907+1014326646+1003823394
3710+1006541593+1020003023+1033948837+1042060333+1042794664+1038376866
3701+1034754053+1036452267+1041310492+1044908950+1045222456+1041580834
3693+1033073594+1020020579+1007625994+1005433497+1015540080+1029538167
3684+1040401456+1045445475+1043919788+1036636873+1024968500+1009566301
3676+995196296+992437837+999624325+1004223956+1003519260+1007285625+1020391903
3666+1035344567+1045626054+1050392405+1051452848+1050178429+1046230956
3657+1039411634+1032521757+1028185668+1022650006+1009041722+986303279+968485168
3648+973581195+995084094+1016367011+1030412487+1037616530+1040875609+1042368427
3638+1042390934+1040595830+1037310812+1032852225+1025591091+1013107470
3629+999860543+999443415+1012907552+1026838911+1033001124+1029856756+1019468940
3619+1008365671+1004034797+1005436071+1006441469+1005802642+1006398172
3611+1008583607+1010408016+1013090705+1019409935+1027408503+1032110569
3602+1031432537+1027779430+1024873260+1023652038+1022882529+1022689013
3594+1024625689+1027662806+1027029325+1018916377+1006868497+1002197056
3585+1009666227+1021410039+1030079246+1034416457+1036098170+1036823591
3577+1037417536+1037948187+1037987524+1036387454+1030761964+1018499579
3568+1001121961+988868288+991896164+1005520948+1018708011+1026870922+1031387326
3558+1034220235+1034968228+1032494828+1027764052+1023976830+1023119209
3550+1022832368+1019201305+1012412674+1007780569+1009804500+1016933830
3541+1024323733+1028450730+1028669458+1027053614+1026553852+1027913281
3533+1028995834+1027431075+1022974666+1017440456+1012860691+1010094113
3524+1009478585+1011535912+1015839726+1020377581+1023252400+1024219583
3516+1024054646+1023076572+1020814179+1017145166+1013557797+1012195529
3507+1012741096+1012048478+1008287195+1004004898+1003236247+1006191522
3499+1009545247+1010891937+1010662913+1010396400+1010417784+1009807470
3490+1008123644+1006225908+1005137481+1004532843+1002992504+999935983+996904410
3480+996238457+998274004+1000849441+1001747455+1000694272+998942663+997552279
3471+996527213+995416345+994202977+993220019+992403385+991324197+990016051
3461+989030387+988615437+988478484+988242530+987670958+986623649+984942860
3451+982299903+978628976+975021080+973243268+973614790+974509834+974490693
3441+973597828+972392973+970995264+969447929+968061241+966934665+965736411
3431+964276924+962860733+961814414+960972172+959786062+957849913+955450370
3421+953656850+953438583+954509785+955500927+955280482+953745754+951520717
3411+949338978+947738248+946991443+947008339+947331218+947476486+947279473
3401+946740968+945821833+944740204+944017225+943850572+943946142+944175365
3391+944713605+945454470+946013831+946373538+947016985+948354436+950170264
3381+951684268+952253464+952064172+952000349+952763456+954223207+955638209
3371+956399336+956472070+956235323+956135529+956473126+957282104+958408879
3361+959740521+961115593+962133861+962526701+962640355+963125267+964259961
3352+965840825+967455613+968696174+969446543+970016794+970677797+971161521
3342+971021994+970387655+969961155+970322182+971505850+973146643+974743874
3332+975846492+976241906+976085549+975865765+976202041+977476263+979494847
3322+981566562+983039382+983782689+984132628+984447982+984823727+985154526
3312+985281249+985204225+985397675+986555602+988593657+990398199+991060588
3302+990890238+990855126+991508275+992677224+993763078+994286732+994365010
3292+994562618+995247975+996246905+997013775+997056213+996481012+996137541
3282+996858143+998540781+1000245991+1001120244+1001052527+1000622793+1000635531
3272+1001531103+1003004318+1004297482+1004998548+1005333769+1005593418
3264+1005706610+1005625758+1005687140+1006241353+1007156923+1007954879
3255+1008390685+1008708812+1009204746+1009728400+1009935446+1009827006
3247+1009683519+1009714276+1010067251+1010838938+1011863411+1012833564
3238+1013686103+1014493299+1015043750+1014972073+1014342948+1013767219
3230+1013803387+1014444326+1015367025+1016414598+1017483423+1018263096
3221+1018563402+1018615675+1018677585+1018754212+1018948652+1019470524
3213+1020127172+1020507669+1020716695+1021176395+1021758922+1021883467
3204+1021404165+1020772136+1020393157+1020263200+1020202809+1020225712
3196+1020579017+1021328528+1022112491+1022677660+1023352128+1024403199
3187+1025294217+1025343520+1024786931+1024450390+1024659482+1025078458
3179+1025341936+1025362660+1025154822+1024752280+1024387293+1024435870
3170+1024962890+1025599143+1026110125+1026684996+1027395963+1027862394
3162+1027760224+1027267392+1026846436+1026880822+1027454836+1028220649
3153+1028608209+1028363542+1027796591+1027474108+1027756528+1028589794
3145+1029609119+1030374866+1030588974+1030291770+1029872596+1029666936
3136+1029584830+1029448736+1029518499+1030186168+1031248657+1032026021
3128+1032117169+1031623611+1030831397+1030097726+1029814449+1030038193
3119+1030378430+1030580592+1030867104+1031426993+1032009389+1032268972
3111+1032090042+1031503225+1030790212+1030554060+1031071114+1031649021
3102+1031235919+1029688914+1027982648+1027152682+1027417545+1028322489
3094+1029369138+1030309789+1030942807+1030989140+1030431231+1029733135
3085+1029325973+1029062760+1028656984+1028385982+1028786742+1029860254
3077+1031036661+1031671924+1031382970+1030356518+1029338843+1028820271
3068+1028471190+1027931695+1027671782+1028337009+1029582322+1030258044
3060+1029679542+1028321433+1027240397+1027007677+1027313263+1027502291
3051+1027235447+1026631073+1026075276+1025966110+1026362514+1026768620
3043+1026568768+1025825989+1025289795+1025408069+1025766126+1025700917
3034+1025000907+1023914855+1023007073+1022957110+1023920399+1025218513
3026+1026067158+1026351030+1026422905+1026520257+1026615233+1026521973
3017+1025991059+1024894249+1023470204+1022348446+1022109257+1022649676
3009+1023191679+1023153728+1022737854+1022416955+1022243306+1021997385
3000+1021633058+1021214081+1020710953+1020154232+1019765682+1019727798
2992+1019959924+1020183867+1020109351+1019603649+1018804241+1017983911
2983+1017245356+1016431758+1015335410+1013925490+1012406338+1011019716
2975+1009682265+1007912374+1005212128+1001332637+996125001+989397157+980906153
2965+970338088+957696328+944047190+931343587+921070482+913589827+909269446
2955+909581237+916049564+927989070+942008607+954176346+962385524+966505260
2945+967073465+964581058+959490046+952061730+942132954+929310284+913376642
2935+894650155+874174302+853425601+833545740+814636231+795595115+774601416
2925+750041204+721353996+689437410+656735407+627083194+605139604+595284354
2915+599984043+618269510+645695829+676260181+704847001+728524775+746613888
2905+760234250+771362336+781573663+791445678+801021677+810432673+819869541
2895+829286675+838494783+847466078+856331110+865172779+873997683+882777970
2885+891348043+899366213+906456536+912236404+916152328+917431499+915378264
2876+910111293+903368929+898180961+896867733+899134812+902524904+904667373
2866+904646252+902507744+898299104+891637063+881597272+866878847+846376396
2856+819517226+785897410+745599712+701818795+663650761+643884819+651084177
2846+683119500+728912995+776234157+817786408+851599212+878315225+899138376
2836+915232071+927666455+937445606+945530504+952672506+959130735+964742233
2826+969423706+973422726+976992869+980102587+982626214+984627506+986344134
2816+988007829+989710861+991385116+992910407+994250959+995478914+996714129
2806+998053295+999506380+1000966197+1002248075+1003205754+1003852105+1004355101
2796+1004885224+1005509002+1006230264+1007030134+1007857065+1008671389
2788+1009502082+1010389733+1011291113+1012135930+1012966953+1013872887
2779+1014724964+1015213704+1015327028+1015513482+1016122080+1016975015
2771+1017715549+1018236102+1018541292+1018561158+1018351538+1018194059
2762+1018310287+1018676793+1019179855+1019731626+1020184923+1020380485
2754+1020373423+1020411175+1020616043+1020898331+1021188605+1021485017
2745+1021667180+1021540920+1021083993+1020472952+1019903955+1019478643
2737+1019170021+1018847868+1018413513+1017897053+1017414913+1017104443
2728+1017111175+1017523618+1018257552+1019033728+1019558306+1019802643
2720+1020031800+1020435200+1020856288+1021070726+1021197185+1021548972
2711+1022135196+1022557538+1022470482+1022003127+1021603819+1021542636
2703+1021705527+1021826903+1021724601+1021343312+1020799263+1020397909
2694+1020381013+1020641256+1020862954+1020937140+1021013569+1021129006
2686+1021081551+1020816621+1020638748+1020758804+1020893711+1020642774
2677+1020059586+1019529332+1019277405+1019303409+1019603781+1020128360
2669+1020614855+1020773192+1020628980+1020481071+1020504567+1020618947
2660+1020781641+1021114287+1021560654+1021722489+1021352222+1020804543
2652+1020658482+1021021951+1021516961+1021866174+1022140476+1022408375
2643+1022495101+1022277692+1021962008+1021850466+1022016657+1022401379
2635+1023014861+1023795261+1024409139+1024467154+1023976500+1023407437
2626+1023200853+1023298535+1023333780+1023226527+1023296819+1023744044
2618+1024301689+1024552692+1024409139+1024119987+1023877564+1023609203
2609+1023211017+1022742870+1022245814+1021685199+1021297705+1021560192
2601+1022466588+1023280252+1023354900+1022827417+1022245946+1021911649
2592+1021804595+1021860894+1022083979+1022439528+1022753826+1022836922
2584+1022730660+1022708087+1023022385+1023758630+1024800329+1025783484
2575+1026296843+1026325025+1026269254+1026389839+1026504483+1026356970
2567+1025966770+1025510041+1025199835+1025351968+1026143324+1027158292
2558+1027625449+1027307323+1026735025+1026460526+1026622229+1027275510
2550+1028410271+1029540939+1030040173+1029998460+1030065914+1030431693
2541+1030625803+1030307677+1029662250+1029018407+1028587550+1028583986
2533+1029150410+1030058786+1030767838+1030895286+1030544093+1030174024
2524+1030198774+1030662632+1031315055+1031999554+1032768602+1033541279
2516+1033950487+1033704632+1032913871+1032002788+1031466264+1031587706
2507+1032166538+1032621287+1032590134+1032411403+1032812229+1034027445
2499+1035422515+1036283964+1036732641+1037293850+1037815458+1037630655
2490+1036698848+1035716023+1035080562+1034593142+1034283398+1034670562
2482+1035820173+1036830257+1036861937+1036311618+1036329241+1037340777
2473+1038597178+1039120106+1038652421+1037688208+1036966879+1037004500
2465+1037806548+1038871083+1039539413+1039426353+1038646349+1037803446
2456+1037624187+1038329147+1039486810+1040658201+1041792170+1042728992
2448+1042982635+1042511518+1042016310+1041904174+1041671915+1040932503
2439+1040340273+1040736677+1041894802+1042825948+1043022500+1042835123
2431+1042811692+1043114638+1043564833+1044040043+1044632536+1045279811
2422+1045526062+1045092566+1044393810+1043935562+1043545891+1042806742
2414+1041898498+1041439591+1041706830+1042405520+1043085598+1043557771
2405+1043936090+1044403182+1044972509+1045408316+1045383301+1044851727
2397+1044245373+1044107430+1044540927+1045143387+1045415378+1045158633
2388+1044558153+1043902760+1043257927+1042541813+1041865101+1041582814
2380+1042031094+1043336865+1045430954+1048209676+1051613496+1055370093
2371+1058886907+1061889043+1064839301+1068101416+1071156947+1073174938
2363+1073741823+1072819917+1070786152+1068532141+1066848844+1065548816
2354+1063405423+1059494845+1054910921+1052133388+1052709843+1056321370
2346+1061257410+1065461232+1067798734+1068253418+1067350784+1066067982
2337+1065236695+1064635093+1063474328+1061627875+1059730008+1058318635
2329+1057325646+1056205801+1054327602+1051439846+1048035696+1045175133
2320+1043648589+1043276803+1043180243+1042626096+1041528428+1040320274
2312+1039537565+1039414010+1039724018+1040071515+1040287934+1040380402
2303+1040320406+1040261731+1040708032+1041937901+1043355675+1043904278
2295+1043242087+1042234445+1042038619+1042778889+1043468537+1043359239
2286+1042867595+1042858949+1043544835+1044487795+1045277699+1045877189
2278+1046538126+1047544844+1048842364+1049888485+1050076787+1049320874
2269+1048097605+1046955057+1046081331+1045332810+1044681971+1044581913
2261+1045631730+1047746016+1049929472+1051132940+1051089313+1050076457
2252+1048285577+1045979095+1044081557+1043731816+1044798860+1045635822
2244+1045143453+1044315994+1044755695+1046498460+1048305510+1049379549
2235+1049959503+1050626182+1051257749+1050732972+1048373953+1045470621
2227+1044032782+1044325432+1044976337+1045047619+1044751207+1044654185
2218+1045253015+1046812032+1048841044+1050143712+1049881093+1048318380
2210+1046395894+1044956801+1044604024+1045775745+1048306104+1051112810
2201+1052978205+1053813188+1054521184+1055368245+1055263500+1053216008
2193+1049745196+1046171357+1043374617+1041916648+1042338397+1044452617
2184+1046947269+1048277129+1047874851+1046562943+1045856399+1046553703
2176+1048128560+1049689029+1050814088+1051172343+1050509030+1049425288
2167+1048955491+1048873187+1047635662+1044810014+1042241177+1041725772
2159+1042843967+1044516176+1046794079+1049247876+1050209384+1048842232
2150+1046027540+1043217930+1041912754+1043092528+1045496494+1046121328
2142+1043993578+1041538725+1041262377+1043141435+1045659385+1047470131
2133+1047755917+1046428894+1044271575+1042295034+1041154993+1041136183
2125+1042052677+1043127904+1043552821+1043171861+1042256093+1040954547
2116+1039482586+1038488408+1038564441+1039526477+1040611208+1041176311
2108+1040954151+1040124646+1039439949+1039691876+1040791524+1041957899
2099+1042784500+1043334686+1043331122+1042328100+1040714170+1039630759
2091+1039787710+1040791788+1041652313+1041795668+1041441571+1041027214
2082+1040715622+1040555305+1040515308+1040330637+1040053893+1040538079
2074+1042348231+1044533798+1045491412+1044610294+1042347901+1039403318
2065+1036595292+1034909750+1034846323+1035891586+1037030967+1037736983
2057+1038272254+1039180762+1040788026+1043035371+1045274795+1046304020
2048+1045327530+1042959931+1040600252+1039180432+1039036087+1039929217
2040+1040695558+1040224374+1039215148+1039397114+1040680642+1041085560
2031+1040136395+1039755501+1041024772+1042652827+1043430388+1043970213
2023+1045028346+1045638066+1043963415+1039936675+1036339933+1035863469
2014+1037541619+1038462073+1038178664+1038605428+1040246617+1041563475
2006+1041746365+1041158689+1039693460+1037235571+1035047429+1034855101
1997+1036554965+1037675734+1035837795+1031874746+1029625949+1031478804
1989+1035454525+1038074448+1038060125+1036365277+1034426357+1033257275
1980+1033112073+1033314565+1033199458+1033553291+1036012302+1040563159
1972+1044461527+1044323848+1039657159+1034177202+1032605380+1035747439
1963+1040277506+1043043819+1043509260+1042333183+1039610166+1035405090
1955+1031112167+1028989498+1029923879+1032189506+1033102304+1031552923
1946+1028254574+1024461346+1021876404+1022501701+1026429967+1031212753
1938+1034526349+1035740377+1035373674+1034368804+1033576260+1033395812
1929+1033869504+1034419031+1033269024+1028897427+1022900349+1019134776
1921+1018752232+1019517913+1020407479+1022869196+1026946692+1030021561
1912+1030024267+1027719171+1025860046+1026331559+1028460300+1030435125
1904+1031463822+1031881214+1031946423+1031380528+1030001497+1028451126
1895+1027834805+1027960604+1026805251+1023373908+1020139844+1020352104
1887+1023494493+1026668958+1028510989+1029334685+1029602453+1029699607
1878+1029960048+1030205771+1029969354+1028724371+1025219833+1017995131
1870+1008483945+1002858587+1005920718+1014451322+1022245220+1026309845
1861+1027135125+1026833103+1027231091+1028659888+1030231445+1031175462
1853+1031300270+1030139637+1026811323+1021079307+1013726364+1006516974
1844+1003097776+1006563175+1014146264+1020294155+1022729868+1023049380
1836+1023499047+1023497067+1020385765+1013409228+1006238383+1003607768
1827+1004834535+1006449125+1008449757+1012596223+1017551272+1020165848
1819+1019631634+1017854548+1016292429+1014013272+1009582273+1003799502
1810+999638581+998881084+999989378+999884040+995968644+987158854+974905908
1800+962108648+949066656+932749415+910825823+883813597+856660457+840885614
1790+844476218+859186063+871177117+872583539+862260669+843711791+821918024
1781+802264152+789643710+784279717+781251445+775584374+766429859+758609627
1771+757757286+762722169+768847752+772971514+772794498+766185654+753436378
1761+738770160+725194283+711809546+699079146+689044900+680338864+669738459
1751+658359832+652809583+656572516+665569486+674941408+682938788+689380318
1741+694215839+697957718+700810096+700823297+695791818+688868082+687884003
1731+693133021+700308222+707843461+715323720+722864832+731601295+741453113
1721+749635626+753286225+753638540+758880299+775161701+796724926+815956587
1711+829558996+836765614+838138442+835897367+833995209+834384485+833983659
1701+828938320+821604452+820024710+827560279+842859186+860581001+873127522
1691+877774146+876905767+874043356+869306177+860521204+852457493+856753321
1681+871020958+885330241+895388248+900136844+900587699+899720112+898555387
1672+895684989+893824676+899987153+912766130+922884990+926017742+925442607
1662+927657941+933475561+937581239+935581333+925427097+907905001+895896458
1652+902447352+911698163+912273892+909266608+915246394+930952661+945016221
1642+952034801+951909333+945105389+933402960+925333111+932194212+948022911
1632+959733393+963310334+960775356+956343697+952396423+948706883+947079621
1622+950327413+955411165+956409039+952617791+951397889+958150747+967119402
1612+972080589+972506100+971527630+972290737+975026096+977981107+980231356
1602+982420487+985105421+987390981+987963278+986996095+986217675+986966394
1592+988915941+991100387+993155668+995089572+996703436+997771866+998317235
1582+998114215+995954189+989965362+979772911+970681493+971288441+978412756
1572+981564318+977490783+972100918+972905804+977954376+981396147+980861734
1562+974461587+957575480+930088638+916202423+929994652+948824431+961745707
1553+968566085+971433644+973570833+975212748+971750781+959383718+940309338
1543+920728397+908375855+915473438+938683659+957315831+963500748+961943447
1533+962663059+968801050+972837426+969426082+960921021+952698709+945338902
1523+937124642+931922418+933420252+937575233+942524738+951132563+961343165
1513+965790994+959533079+942380855+919284882+908651410+929994322+961493384
1503+980558656+986382481+983075419+975866227+972562861+978079977+986412577
1493+987682376+977903093+962777770+956223707+963286442+973475527+977441810
1483+974500066+969381003+965560913+959518823+942902397+908998445+857680045
1473+804146114+779955707+795497367+827142292+851241221+856683822+846642381
1463+837379294+838699387+846318711+854727675+867278881+891138951+918961146
1453+940671223+954664822+962035585+965114942+968194366+974237446+981548742
1443+986890823+988901817+987171328+980897837+971158749+964645079+967155307
1434+973948229+978511890+980515623+983241478+987118461+988911981+987449458
1424+985087403+982570640+977116886+969672003+969265501+979605597+992624687
1414+1001206640+1004579373+1005663511+1006475459+1005903558+1002792322
1405+999559445+999337945+1000015976+996588066+987939650+978071793+971303754
1395+969367209+972257473+976860273+977814454+972162233+962242763+954695908
1385+953475412+955668042+957113339+956809073+955566994+953360570+949417915
1375+945060376+944674467+950653328+959540339+967208042+973060247+977162097
1366+977647404+974082079+971211352+974610882+982721850+989665584+992678874
1356+993182860+993735489+995221113+996878604+998163716+999307716+1000303610
1346+1000287704+997692796+990936835+980466651+970909132+968569781+974492475
1336+983764340+991793070+997167162+1000263679+1001776364+1002209332+1001845995
1326+1000889966+999335107+996672878+992379558+987070412+982528136+979840826
1316+978164723+976313386+974598671+973934104+974039574+974014758+973984991
1306+974691733+975822402+976015720+974473137+971755269+968962951+966634887
1296+964460407+961572256+956946817+950172970+942538334+936946636+935634134
1286+937774755+940114634+940020384+937238824+932834556+927374334+920765490
1276+913570884+907600405+904689087+905031700+906907853+907912921+906319188
1266+901573495+894136599+885066962+875371896+865618156+856596040+850304332
1256+849189504+853775408+861623360+869121704+873881191+875192637+872920805
1247+866738792+856701246+844452722+833106567+825153871+820874213+819296254
1237+819773047+821551519+822513752+819762817+811655611+798771494+783131360
1227+767084328+752725544+741482286+733729375+728801255+725400009+722111361
1217+717915526+712473783+706062151+699461624+693821811+690107455+688487849
1207+688463560+689479122+691184530+693310169+695600151+697867230+700020853
1197+702042275+703978952+706029349+708599638+712104770+716636156+721857652
1187+727217355+732275828+736930835+741410476+746096966+751291401+756974709
1177+762810083+768552132+774319855+780224860+785937274+790907306+794861180
1167+797984561+800886045+804389922+809016087+814544357+820209184+825320788
1157+829651068+833341136+836616781+839608885+842231579+844070772+844601291
1147+843871646+842954492+843389374+845989694+850212128+854723450+858532122
1137+861467399+863662075+865027972+865563309+865858929+866843404+869055306
1128+872360982+876243312+880134617+883601798+886504602+888997868+891216700
1118+892985932+893974961+894091454+893579415+892768325+891903312+891287652
1108+891444405+892879471+895597472+899012182+902425704+905455230+908016411
1098+910164226+912048894+913828883+915522213+916989422+918088872+918862804
1088+919496548+919901466+919404015+917235739+913519007+909583349+907190009
1078+907434874+910212011+914459328+918850924+922435059+924768140+925535207
1068+924309892+921053189+916840919+913606063+912712801+913770208+915090103
1058+915476408+915437665+916376600+918706315+921148693+921807849+919643665
1048+915161846+910135780+906532438+905420316+906859672+910452718+915458522
1038+920646225+924792890+927524025+929366715+930822440+931555187+930874251
1028+929120992+928003656+929097892+932338425+936236924+939059009+939417660
1018+936313816+929562475+920587814+912370782+907904935+908417897+913085577
1009+920103695+927698400+934522540+939780073+943177095+944703573+944498639
999+942843788+940195221+937372609+935665089+936224186+938981655+942317230
989+943821334+941253354+933503678+921988824+911011881+905118822+905495755
979+909684067+914580770+918705721+922064726+925253843+928745445+932123920
969+933601162+930107118+918277570+897369673+872747552+854835191+851880312
959+863453379+881926355+899491351+912647922+921353693+926577962+929228113
949+929875717+928452135+924411732+917704151+909891905+904137316+903334476
939+907787981+914995127+921854379+926846323+930258921+932953689+935245585
929+936867039+937645326+937676413+936835292+934851755+932148077+929968845
919+929283290+929863969+930630508+930704496+929988118+928800820+927170851
909+924615347+920535277+914914407+908941882+904799903+904228596+907133842
899+911816107+916313965+919239869+919921069+918610019+916520351+914950312
890+913998705+912266896+908050270+900968923+892619756+885784660+882944887
880+885210053+892061517+901662729+911639092+920221969+926932521+932095738
870+935953185+938575813+940313826+941717344+942917248+943429682+942854282
860+941661705+940959715+941463701+943026216+945170136+947648090+950350250
850+952998025+955173560+956624863+957459714+958017491+958605562+959338243
840+960096334+960616293+960668896+960094156+958786076+956975066+955465616
830+955186892+956343235+958033199+958860592+958304992+957555746+958450063
820+961444807+965138637+967809512+968882495+968871671+968457447+967987518
810+967702194+967902310+968603244+969326156+969471689+968730824+967241901
800+965682422+964980102+965493394+966532585+966835993+965501380+962729721
790+959946973+958987380+960695824+964144327+967382484+969136535+969714508
781+970148467+970701228+970575363+969014498+966270097+963362607+961295644
771+960729023+961941863+964568055+967530194+969727180+970792376+970981073
761+970545927+969533994+968028702+966238021+964274218+962031031+959362994
751+956254662+952704979+948427301+942616810+934219594+922888884+909552856
741+895482431+880969270+865385699+848130183+829291361+810448645+795387013
731+788379191+790004144+795301475+797129844+790355601+772421261+743346295
721+708920734+681649188+672638689+682065195+700916095+720507265+737683646
711+752929290+766963810+779577520+790168751+798625433+805514123+811276368
701+815704264+818631753+820603872+822246843+823406090+823563305+822829304
691+821928518+821386845+821112412+820589748+819290380+817123820+814602834
681+812506368+811593834+812583722+815758187+820406990+825148657+829020096
671+832193373+835613693+839659970+842733651+843631071+843592064+843833101
662+844570138+845553888+846659146+847861492+848857253+849181254+848792110
652+848233277+847980294+847865914+847495514+846975160+846679474+846480678
642+845857230+844735207+843566060+842605477+841891936+841861840+842997987
632+844780484+845829575+845219063+843327993+841595657+841433755+842940103
622+844885096+846217201+846983938+847641773+848447781+849830047+852283712
612+855473951+858194526+859498448+859487359+858995980+858903050+859699026
602+861423904+863921526+866958180+869819866+871111973+869828248+867013754
592+865674587+867963117+872713363+876936259+879084470+879627595+879377384
582+878754134+878210811+878079864+878420563+879559416+881784584+884372034
572+886111234+886574498+886305014+886425929+887911552+890333405+891897108
562+891590664+890463295+889977130+889937463+888906852+886330293+883311129
552+880850402+878228631+874240304+869459564+866039706+865561461+867789335
543+871055542+873675860+875296193+876545334+877465260+877391405+876431481
533+875620061+875169272+873815123+870813911+868019746+868470271+872237098
523+875657352+875136602+870150004+863921262+861345891+864037226+868759620
513+872112421+873973658+875438228+875985379+874109819+869165132+862134408
503+856296328+856199174+863235970+873821393+883089364+888166581+888904740
493+887257215+885215993+882698108+878017559+869974639+858929912+847033901
483+837326559+831349480+828521126+828208214+830424340+834421775+839115987
473+844941395+852319418+858676731+860884871+859411788+857803138+859211408
463+863957101+869083555+870298441+866772519+863782725+866452280+873156364
453+880532605+887694870+892988440+893011870+887176100+879379166+873725757
443+871172497+870362858+868368959+861852583+850933721+841484048+840609597
433+849387574+862887219+875300285+882551717+882853872+877609143+871167678
424+866770011+862168399+853299802+844128853+846350853+859393968+872808867
414+883390528+893293894+902478307+907425238+906351264+901369419+893994498
404+881991894+862166551+833635040+799892923+772825783+766433951+778201590
394+795645540+812832349+830379855+848303436+861635702+865029688+862417092
384+865511498+876549162+885645925+885780370+875340150+853718646+828295005
374+817238531
##END=
