##TITLE=HMS-Q10
##JCAMP-DX=4.24
##DATA TYPE=INFRARED SPECTRUM
##DATE=8/1/2020
##SAMPLING PROCEDURE=Diamant-ATR
##ORIGIN=Angelika Moesle
##XUNITS=1/CM
##YUNITS=TRANSMITTANCE
##RESOLUTION=4
##FIRSTX=3997.453
##LASTX=373.96442
##DELTAX=-1.4165319
##MAXY=0.91891825
##MINY=0.35651159
##XFACTOR=1
##YFACTOR=8.5580931e-010
##NPOINTS=2559
##FIRSTY=0.85971147
##XYDATA=(X++(Y..Y))
3997+1004559608+1004279975+1004280463+1004565459+1004883119+1004994763
3989+1004901575+1004795294+1004816745+1004919057+1004971710+1004903177
3980+1004702385+1004390226+1004063233+1003885912+1003970185+1004268205
3972+1004580363+1004748839+1004898790+1005314095+1005981315+1006485769
3963+1006479570+1006030694+1005486054+1005169578+1005190611+1005409790
3955+1005608006+1005673265+1005575411+1005314374+1004949980+1004529312
3946+1004061004+1003714719+1003786177+1004271478+1004729338+1004772380
3938+1004425607+1004031822+1004033355+1004637891+1005530698+1006116987
3929+1006143105+1005834847+1005541075+1005469339+1005558766+1005561134
3921+1005363754+1005080429+1004798498+1004455625+1004043523+1003740071
3912+1003767860+1004204965+1004908053+1005615110+1006174307+1006622973
3904+1006965568+1006924545+1006254679+1005289858+1004665611+1004538226
3895+1004590531+1004621524+1004683928+1004742710+1004605297+1004338548
3887+1004254623+1004395380+1004455068+1004490309+1004988077+1005878794
3878+1006330386+1005987165+1005284147+1004561628+1003858889+1003480078
3870+1003914885+1004907356+1005654530+1006010357+1006352464+1006683984
3861+1006639480+1006242491+1005900663+1005867581+1006257256+1007400096
3853+1009221646+1010341154+1010068625+1009057627+1007897724+1006813528
3844+1005985284+1005656063+1005863054+1006335888+1006779470+1007073242
3836+1007215392+1007168310+1006825925+1006232044+1005747649+1005738107
3827+1006099436+1006267007+1005887709+1005405194+1005627995+1006487788
3819+1006912496+1006510981+1005819873+1005388061+1005355396+1005594216
3810+1005897668+1006155223+1006471143+1006795002+1006728141+1006216304
3802+1005781149+1005836936+1006157313+1006425872+1006577563+1006526164
3793+1006296816+1006205996+1006511259+1007061332+1007496348+1007682654
3785+1007712672+1007601167+1007325086+1007078953+1007146441+1007456092
3776+1007600122+1007350298+1006861236+1006499071+1006535775+1006848630
3768+1007049841+1007004361+1006810672+1006437782+1005871829+1005464324
3759+1005708507+1006579792+1007511253+1008164194+1008596564+1008858228
3751+1008789625+1008188710+1007107299+1005858736+1005042332+1005152026
3742+1005603758+1005585649+1005231285+1005018583+1005098329+1005289022
3734+1005604524+1006157243+1006532989+1006283096+1005668808+1005346481
3725+1005540727+1005876217+1006089198+1006252590+1006348076+1006300089
3717+1006190674+1006084253+1006051728+1006512792+1007950587+1009832173
3708+1010881755+1010550652+1009160496+1007406921+1006160865+1006088293
3700+1006927888+1007753485+1008091274+1008150892+1008207793+1008229245
3691+1008131948+1008051296+1008109382+1008155488+1008062858+1007892988
3683+1007747635+1007666984+1007566413+1007402185+1007534236+1008452255
3674+1009613620+1009931559+1009631171+1009670034+1010244553+1010653870
3666+1010604629+1010438869+1010402931+1010319424+1009871872+1009131871
3657+1008643506+1008784193+1009118220+1008995293+1008481228+1008213087
3649+1008521693+1008887967+1009050872+1009454546+1010198029+1010723865
3640+1010515968+1009777500+1009180624+1009135005+1009526492+1009953568
3632+1010174976+1010389977+1010861000+1011176292+1010840315+1010297833
3623+1010282999+1011122595+1012656990+1014274614+1015114837+1014860416
3615+1014080229+1013517828+1013354993+1013213958+1012758466+1011968946
3606+1011033446+1010317335+1010224843+1010897565+1012061229+1013188049
3598+1013778726+1013600151+1012946304+1012471868+1012381675+1012292039
3589+1012081914+1012142228+1012500354+1012525287+1012092152+1011810569
3581+1012045767+1012461282+1012544301+1012234232+1011850059+1011680050
3572+1011788351+1012046255+1012247186+1012263205+1012201637+1012276995
3564+1012372133+1012119732+1011493744+1011010532+1011126495+1011637705
3555+1012087973+1012414688+1012743004+1012873384+1012494434+1011722047
3547+1011086239+1011085403+1011750533+1012633380+1013246831+1013412174
3538+1013257836+1013023821+1012846500+1012703932+1012608516+1012715145
3530+1013096881+1013572501+1013918369+1014043385+1013866342+1013339810
3521+1012643757+1012103226+1011936212+1012185061+1012697525+1013126342
3513+1013164160+1012849355+1012542281+1012581005+1012993594+1013533220
3504+1013908200+1013973460+1013804148+1013579118+1013416561+1013391349
3496+1013563935+1013837160+1013979171+1013943372+1013908200+1013923383
3488+1013881804+1013803939+1013714442+1013427426+1012967477+1012870041
3479+1013470886+1014311387+1014750373+1014751418+1014692636+1014740623
3471+1014751836+1014565669+1014213603+1014002711+1014365503+1015353587
3462+1016365211+1016721038+1016443703+1016152300+1016318060+1016892440
3454+1017494051+1017744154+1017518080+1016996144+1016513211+1016380673
3445+1016716581+1017315198+1017792141+1017966677+1017967791+1017922869
3437+1017776819+1017485624+1017149507+1016924547+1016942098+1017215950
3428+1017487853+1017328570+1016581117+1015574716+1014784152+1014403879
3420+1014316820+1014357842+1014491634+1014688248+1014683512+1014121529
3411+1013083718+1012174753+1011770243+1011452304+1010468747+1008508739
3403+1005775368+1002488373+998523711+993370034+986083414+975081678+958200821
3393+933651886+901724746+865955383+832613919+808529461+798200656+801970097
3383+816605879+837338570+859624113+880234782+897726096+912036418+923650213
3373+933169580+941223920+948219276+954172571+959005802+962919273+966354129
3363+969621693+972595067+974847176+976252864+977361785+978913105+981020278
3353+983096807+984568868+985444680+986198819+987260241+988649074+990093068
3343+991405916+992576335+993508074+993977426+993952980+993764167+993870797
3333+994549229+995729957+996972670+997701388+997715665+997427117+997414372
3323+997834832+998440761+999027329+999617728+1000256879+1000837249+1001181584
3313+1001272056+1001357164+1001727687+1002368789+1002969077+1003273505
3305+1003310835+1003316895+1003514902+1003868570+1004076536+1003977498
3296+1003831378+1003958832+1004287636+1004525411+1004568244+1004470321
3288+1004215830+1003835835+1003626824+1003945530+1004761724+1005617896
3279+1006095884+1006180923+1006130917+1006122907+1006113505+1006009452
3271+1005869043+1005841045+1005955963+1006151950+1006444746+1006826761
3262+1007095877+1007103608+1007085291+1007403230+1008037854+1008587022
3254+1008689473+1008306483+1007731129+1007409568+1007570940+1007957900
3245+1008139330+1008114814+1008273680+1008717750+1009048225+1008942083
3237+1008545860+1008194491+1008030402+1007974893+1007898908+1007788657
3228+1007783085+1008036461+1008542169+1009050384+1009194414+1008918751
3220+1008742962+1009218512+1010173444+1010922707+1011105879+1010909683
3211+1010629841+1010397150+1010230415+1010127477+1010108533+1010190856
3203+1010323742+1010400702+1010338298+1010152410+1010013325+1010134581
3194+1010533241+1011061793+1011669394+1012375755+1013020130+1013365789
3186+1013438152+1013496168+1013688115+1013946367+1014160044+1014256645
3177+1014139638+1013740212+1013155733+1012601830+1012214731+1011979115
3169+1011816001+1011684716+1011631227+1011729639+1011925974+1012096261
3160+1012349777+1012994012+1013991568+1014757547+1014819463+1014443438
3152+1014274335+1014536139+1014893359+1014947266+1014562326+1013809371
3143+1012894138+1012132129+1011776093+1011821921+1012043887+1012213825
3135+1012267454+1012268986+1012247465+1012158386+1012017351+1011945475
3126+1012022226+1012183181+1012288766+1012234929+1012045419+1011899717
3118+1011984686+1012284517+1012610884+1012838073+1012959746+1012946792
3109+1012725314+1012325818+1011949306+1011880007+1012278040+1012925410
3101+1013261597+1012915241+1012128926+1011463239+1011249840+1011478282
3092+1011919288+1012128299+1011595847+1010168081+1008222976+1006281633
3084+1004536276+1002906046+1001461844+1000564580+1000497649+1001135478
3075+1002091036+1003058713+1003897821+1004460082+1004504935+1003861535
3067+1002540051+1000561028+997849806+994549647+991256801+988642249+986937079
3057+985983958+985661770+986060361+987234541+988911017+990577812+991931891
3047+993119792+994476796+996151809+997993627+999651228+1000826175+1001519512
3037+1001957105+1002313280+1002661307+1003076752+1003550213+1003880061
3029+1003829428+1003326506+1002502163+1001680327+1001279578+1001512547
3020+1002183249+1002914404+1003530363+1004128493+1004883885+1005872038
3012+1007003943+1008068081+1008891728+1009443124+1009758835+1009893811
3003+1009941101+1009961090+1009955797+1010056367+1010524187+1011351873
2995+1012136517+1012607889+1013002300+1013642984+1014443090+1015055288
2986+1015265483+1015085376+1014724673+1014567758+1014875320+1015422328
2978+1015705444+1015526869+1015145063+1014929018+1015078620+1015541146
2969+1016003116+1016090314+1015705792+1015109265+1014644022+1014445319
2961+1014381661+1014261799+1014075562+1013945601+1013902559+1013859587
2952+1013725028+1013399428+1012813975+1012085814+1011464632+1011053783
2944+1010748311+1010437755+1010098573+1009739403+1009398411+1009144965
2935+1008965554+1008628741+1007604023+1005097353+1000552949+994625005+989496262
2925+987520443+989283768+993274060+997378086+1000349858+1002046114+1002862517
2915+1003167641+1003081696+1002550150+1001449168+999604356+996938961+993751143
2905+990732776+988554006+987256550+985889934+982937315+977620524+970974240
2895+965375448+962872679+963951582+967574068+971986352+975587804+977597610
2885+978348754+978938944+980351109+982733527+985537450+988244355+990684093
2876+992690348+993893571+994000480+992953126+990838919+988058885+985547410
2866+984376154+984988770+986917160+989114317+990490335+990299920+988193582
2856+984051738+978057838+971093615+964855323+961182553+960948399+963459177
2846+966949891+969729298+971067149+971405495+971964691+973847392+977177499
2836+981152468+984980065+988493343+991798099+994763882+997131256+998866793
2826+1000197679+1001395610+1002587898+1003675438+1004445248+1004866473
2817+1005235603+1005899201+1006844730+1007706961+1008241712+1008631944
2809+1009154924+1009701376+1009906904+1009684173+1009321102+1009085626
2800+1009000865+1008981433+1008971335+1008968618+1009045718+1009292477
2792+1009661120+1009946742+1010006221+1009912337+1009803896+1009682919
2783+1009482614+1009231049+1009021620+1008918681+1008957823+1009112440
2775+1009260718+1009335659+1009460884+1009801876+1010344427+1010924797
2766+1011419222+1011833622+1012213477+1012539774+1012796493+1013062963
2758+1013374007+1013562542+1013460996+1013171125+1012929798+1012813348
2749+1012740427+1012683804+1012762505+1013112204+1013662416+1014112754
2741+1014223911+1014088308+1013996583+1014089561+1014255530+1014355404
2732+1014441070+1014688457+1015150983+1015660382+1015987445+1016060784
2724+1016004091+1015966899+1015980202+1016022129+1016116083+1016237130
2715+1016248900+1016075897+1015808870+1015556956+1015348363+1015191448
2707+1015073188+1014946012+1014838337+1014870654+1015064900+1015288536
2698+1015460286+1015685177+1016108422+1016714282+1017330172+1017792420
2690+1018054641+1018167957+1018239275+1018400509+1018709602+1019068842
2681+1019306966+1019364494+1019374593+1019544114+1019939292+1020404465
2673+1020731319+1020862673+1020869359+1020814686+1020747338+1020733269
2664+1020775057+1020779584+1020700047+1020622042+1020594114+1020470490
2656+1020094257+1019573157+1019152906+1018852588+1018475797+1018008326
2647+1017717828+1017782460+1018075048+1018395842+1018707652+1019054007
2639+1019393746+1019623999+1019721436+1019797142+1019970145+1020220527
2630+1020433577+1020575727+1020748382+1021055665+1021439142+1021643139
2622+1021436356+1020913655+1020437895+1020245182+1020305914+1020583319
2614+1021114656+1021760912+1022186316+1022222603+1022055728+1021997225
2605+1022219817+1022641948+1022926387+1022776297+1022419634+1022509758
2597+1023323863+1024394060+1025164845+1025648265+1026184130+1026811093
2588+1027086478+1026503393+1025088720+1023480290+1022290926+1021584426
2580+1021131720+1020873747+1020941444+1021469439+1022504047+1023915236
2571+1025381726+1026522615+1027022821+1026777245+1026100066+1025584329
2563+1025508971+1025590667+1025484873+1025270151+1025259217+1025574091
2554+1026070675+1026511332+1026725915+1026757256+1026833381+1027045177
2546+1027175139+1027041208+1026772718+1026557090+1026441546+1026516904
2537+1026849051+1027155847+1027026303+1026487095+1025954364+1025702799
2529+1025661150+1025547416+1025064623+1024176274+1023210199+1022534831
2520+1022287444+1022490605+1023132612+1024042899+1024939118+1025617272
2512+1025988561+1026149516+1026477971+1027257253+1028134040+1028419036
2503+1027994050+1027427122+1027180641+1027194710+1027225842+1027161627
2495+1027034382+1027016901+1027321746+1027938053+1028615163+1029124492
2486+1029382116+1029423557+1029444033+1029627344+1029755286+1029354258
2478+1028462496+1027813664+1028013063+1028900646+1029852722+1030305080
2469+1029976833+1029082913+1028335669+1028309342+1028834272+1029308360
2461+1029443685+1029429198+1029519739+1029701100+1029758141+1029606241
2452+1029445983+1029504626+1029785025+1030197963+1030698934+1031127334
2444+1031170794+1030721291+1030127619+1029887197+1030074757+1030249084
2435+1030034988+1029563965+1029096424+1028571146+1027938123+1027557153
2427+1027769856+1028355657+1028827795+1029046417+1029236624+1029546135
2418+1029855438+1030011239+1030048848+1030068976+1030007687+1029702702
2410+1029204516+1028904477+1029228893+1030127967+1031007053+1031369915
2401+1031361627+1031442696+1031790444+1032280481+1032716890+1032817878
2393+1032337243+1031424448+1030553790+1030019666+1029765802+1029657501
2384+1029656317+1029774439+1030071344+1030645097+1031467769+1032250951
2376+1032598141+1032356466+1031802423+1031428349+1031515825+1031912048
2367+1032155047+1031764744+1030584922+1029082216+1028168098+1028401137
2359+1029416870+1030397920+1030972439+1031323808+1031594596+1031667517
2350+1031494722+1031254858+1031179291+1031354523+1031646553+1031854659
2342+1031883632+1031692799+1031373397+1031282508+1031677198+1032230892
2333+1032305136+1031686252+1030705203+1029708344+1028843535+1028290189
2325+1028217129+1028513965+1028892846+1029214754+1029443058+1029471613
2316+1029299236+1029149077+1029261279+1029765942+1030677483+1031752695
2308+1032556632+1032898947+1032932378+1032763135+1032393727+1032055660
2299+1032069520+1032343929+1032428620+1032061093+1031413096+1030901538
2291+1030923964+1031620505+1032743495+1033842108+1034615957+1035042267
2282+1035241180+1035349690+1035445176+1035428461+1035171741+1034997624
2274+1035662057+1037406160+1039377591+1040488532+1040434416+1039483594
2265+1037972182+1036544416+1036091501+1036770351+1037711632+1038197003
2257+1038427465+1038677916+1038569963+1037970580+1037822162+1039044956
2248+1041079766+1042454182+1042554405+1041986154+1041402233+1040831057
2240+1040153808+1039504209+1039045374+1038819161+1038943481+1039616759
2231+1040869571+1042496110+1044094511+1044992750+1044620486+1043309101
2223+1042120782+1041564580+1041283136+1041241278+1042061512+1043718138
2214+1045102653+1045457993+1045185672+1044844123+1044495400+1044375328
2206+1045098683+1046766453+1048613076+1049713292+1049606941+1048442441
2197+1046956938+1046024433+1045886044+1046025477+1045901923+1045702106
2189+1046395721+1048831072+1052409262+1055096595+1055363692+1053696897
2180+1051757295+1050761550+1051110134+1052591110+1054206993+1054550841
2172+1053119941+1050828621+1048770131+1047100620+1045859369+1046086140
2163+1048736282+1052981761+1056779270+1058742064+1058919873+1058386794
2155+1058351832+1059010415+1059304743+1058309834+1056461470+1054913563
2146+1054219320+1054151414+1054344964+1054502854+1054202605+1053271493
2138+1052461358+1052779018+1053762157+1053590546+1051543966+1049119968
2129+1048117328+1048689131+1049625676+1049709600+1048503939+1046490163
2121+1044797529+1044332774+1044921849+1045641165+1046037874+1046518509
2112+1047448507+1048496626+1049144553+1049320830+1049261352+1049153468
2104+1049091831+1049054778+1048856354+1048392295+1047999555+1048284412
2095+1049367494+1050467222+1050614247+1049680697+1048237818+1046598325
2087+1044687835+1042819133+1041805698+1042104693+1043388011+1045028270
2078+1046570396+1047682870+1048124432+1048008261+1047841177+1047965776
2070+1048148043+1048024280+1047712400+1047601034+1047829546+1048304609
2061+1048902530+1049473845+1049970498+1050478574+1050851604+1050689048
2053+1049929825+1049073862+1048753415+1049156533+1049604990+1049233493
2044+1048693449+1049925019+1053271145+1056501169+1057833727+1057922666
2036+1057895782+1057871267+1058359841+1060561247+1064191115+1066901363
2027+1066713385+1064150720+1061577746+1060805639+1061567996+1062357655
2019+1062331885+1061792120+1061284880+1061213005+1061933852+1063235766
2010+1064099459+1063863982+1063149612+1062922771+1063387109+1064297536
2002+1065388627+1066196603+1066287632+1065739858+1064869199+1063715355
1993+1062296922+1061031434+1060372573+1060255357+1060381697+1060762179
1985+1061427657+1061835441+1061539998+1061647672+1064247668+1069298616
1976+1073453414+1073741823+1070754450+1066889174+1063638744+1061505662
1968+1060776108+1061338996+1062487686+1063461213+1063902846+1063881185
1959+1063596955+1062883351+1061419439+1059721930+1059059864+1059850846
1951+1060918328+1060861844+1059567661+1058107370+1057642545+1058446343
1942+1059611957+1059967018+1059353636+1058512090+1057978593+1057449066
1934+1056043309+1053091316+1048773891+1044124529+1040446047+1038431505
1925+1037512233+1036163377+1033276644+1029347154+1026129318+1025482714
1917+1028155004+1033113042+1038454070+1042746909+1045505283+1047017879
1908+1047869036+1048518565+1049146643+1049734952+1050297910+1051000927
1900+1051951123+1052965046+1053664720+1053771768+1053343926+1052685064
1891+1051858910+1050457610+1048301963+1046182462+1045260543+1045966417
1883+1047779052+1049806480+1051377370+1052269480+1052738623+1053270587
1874+1054131356+1055180311+1056070123+1056519416+1056527704+1056358322
1866+1056160107+1055823990+1055284434+1054734361+1054501530+1054755742
1857+1055337226+1055851152+1055976796+1055707679+1055234636+1054585873
1849+1053509686+1051807023+1049758423+1048238514+1048088076+1049206609
1840+1050886010+1052564157+1053955706+1054972693+1055604532+1055891269
1832+1056057029+1056430755+1057016279+1057444539+1057520524+1057461950
1823+1057656475+1058276264+1059090439+1059623309+1059541613+1058911028
1815+1058018222+1057086553+1056212551+1055366130+1054409596+1053263135
1806+1052052251+1051027602+1050324654+1049811285+1049200341+1048369381
1798+1047506523+1046974001+1047207876+1048576163+1050852440+1053010734
1789+1054286251+1054792168+1055018451+1055427349+1056195139+1057125625
1781+1057943839+1058549560+1058938817+1059132715+1059315399+1059832808
1772+1060763293+1061618420+1061978148+1061957532+1061858424+1061845400
1764+1061894919+1061825829+1061428214+1060634446+1059429412+1057841109
1755+1056218680+1055172511+1055203713+1056408468+1058179246+1059590366
1747+1060313512+1060650256+1060973836+1061372218+1061671074+1061732781
1738+1061723657+1062029199+1062912255+1064008779+1064401588+1063968383
1730+1063281175+1062685275+1062312175+1062283550+1062592505+1062954252
1721+1063096680+1063128996+1063397695+1063865027+1063987606+1063666394
1713+1063297473+1063100650+1063037132+1063108520+1063468108+1064133865
1704+1064804567+1065245990+1065571451+1065963703+1066282409+1066285403
1696+1065972549+1065512112+1065046242+1064568881+1064009197+1063415803
1687+1063036087+1063151423+1063709923+1064163674+1064298789+1064372755
1679+1064461694+1064364884+1063761323+1062476055+1060617313+1058335395
1670+1056012873+1054667987+1054979170+1056531883+1058757596+1061175883
1662+1063140697+1064376167+1065190969+1065859651+1066431662+1066927341
1653+1067274462+1067275159+1067118104+1067228565+1067948646+1069146716
1645+1070127417+1070627622+1070873546+1071013119+1071114664+1071289409
1636+1071376538+1070798327+1069505607+1067932209+1065963703+1062871720
1628+1057769303+1049674150+1037194433+1020366507+1003767929+993391485+991743008
1618+999149560+1013214515+1027316314+1037511188+1044826711+1050642732
1609+1055133926+1058181684+1059928294+1060460746+1059630344+1057253009
1601+1053118060+1046736922+1036971562+1021068898+993922823+950506278+891357216
1591+825616962+767716325+729741099+715675030+721488474+738287844+755668907
1581+766094662+768454793+767583647+771905877+787082539+809284018+834317905
1571+863827455+897913726+929855213+954545880+973138524+987012158+996509517
1561+1003790913+1013226564+1025514613+1034459948+1039129090+1042402226
1553+1045428462+1048030757+1049855999+1050724707+1050684939+1049939993
1544+1048700274+1047097834+1045063860+1042662009+1040725332+1040031020
1536+1040981285+1043989692+1048525808+1052783824+1055737001+1057527558
1527+1058245550+1057787551+1056121174+1052846297+1047513627+1041052325
1519+1034801776+1028451840+1020106514+1006636415+984598747+952616167+911789728
1509+861403736+800845365+746512193+715308268+699061130+686630165+673240230
1499+657226967+640411647+629497109+630023433+642116051+664834451+697194448
1489+734350833+769428599+799793137+826400631+850695563+873255654+893565657
1479+911330614+927233278+941934042+955771529+969272761+982025565+992466084
1469+1000469442+1007476429+1014772730+1022333899+1028879055+1033634769
1460+1036871340+1037900237+1031730965+1010391578+974174107+931350746+892323779
1451+869214450+868854723+884158561+898469579+900813413+892736786+883572759
1441+883252870+897084229+924957350+959388165+987125265+1002830270+1010174001
1431+1012105803+1008442574+997527548+976159397+940978414+895083476+850356660
1421+820041989+813415276+830527013+859043256+887914838+914567673+939019519
1411+960603298+978531578+992738126+1004001317+1013128222+1020190718+1025186993
1401+1028629997+1030965683+1032374505+1033276644+1034408270+1036303716
1392+1038847228+1041536791+1044125086+1046676887+1049144623+1051282720
1384+1053006207+1054385986+1055447756+1056218750+1056762694+1057124789
1375+1057333591+1057341461+1056962511+1055980208+1054168130+1051268233
1367+1047118798+1041514922+1034108439+1025337639+1017212816+1011655325
1358+1008649217+1006960205+1005571859+1004227949+1002951039+1000983229
1350+996204253+985757535+967601230+941960995+911348932+878413928+843539601
1340+805251590+763229240+720160095+680452815+648462226+627105706+615521581
1330+607838251+596347871+577676596+556510003+543185919+546800987+569524436
1320+606249601+648313599+687830046+719401011+737806861+737145353+717490869
1310+691548366+678420025+688895856+718595681+754422433+784051010+798683798
1300+791715256+760376913+710746870+658902815+622312871+607758227+608997667
1290+616065525+624726491+637253499+657009668+684091389+715364404+746962113
1281+776236117+802171237+824865052+844795199+862327048+877679639+891090329
1271+902788605+912901923+921505709+928599685+933841953+936201945+934061133
1261+926620384+916077622+907577819+905613283+910582465+919372975+928677202
1251+937048436+944351493+950553289+955486603+959226862+962138599+964450395
1241+965857685+965557227+962507868+955465013+942941278+924038496+900503553
1231+878111311+864627352+864909562+877702274+897241701+917555882+935335814
1221+949924097+961883969+971863424+980233684+987206683+993057109+998163984
1211+1002766892+1006695546+1009320685+1009729165+1007404484+1003419903
1203+1000564371+1001262235+1005414248+1010861905+1015474076+1018113423
1194+1018156256+1015082381+1009087506+1002269193+998508876+1000798386
1186+1008323965+1016898220+1022197181+1021939487+1015476584+1002693484
1177+983853035+959751514+931355273+900290642+871411329+854164685+857751859
1167+882100976+914545455+938168501+944534595+937485751+924617263+907397851
1157+881433687+844854608+803640165+768390579+747290360+741905106+747466498
1147+755853751+759715753+756267455+748003337+739160105+731727713+725543120
1137+721152914+720625895+725507739+735218914+747406601+758665613+764886563
1128+762647548+751938051+737448248+725996662+721972312+724962333+730862766
1118+734335301+730797019+717851850+695846358+666517195+630487909+586983051
1108+537332045+488067371+448494894+424685507+416578305+420257379+431581406
1098+447925772+468028087+491109209+516254601+542399012+568471372+593308820
1088+615435080+632940184+643719328+646003196+638744644+622154284+598883374
1078+574667457+556620916+549345301+551265297+555010919+553398937+545221461
1068+533610382+520895919+509342334+504909122+514051315+536340793+564273532
1058+590553371+613117990+633711386+654053566+673992419+692387753+708495945
1048+721461590+729009944+728895096+723032829+718696182+723181317+737404998
1038+756372273+775022307+791583414+806412607+820236514+833685022+847303679
1028+861488218+876276040+890627175+899353471+888950073+843513553+765717871
1018+688627366+652502664+668314020+713243022+759004934+793375225+815817126
1009+823112312+804661957+753224921+680414370+616202451+587345634+597584108
999+630546691+667223765+697713946+721219218+740672561+757895943+771950660
989+780719510+783091690+779951581+774671842+772609243+777942749+790180443
979+804934835+818194878+828791477+837050788+842448300+843461178+840029804
969+835205628+832649788+833141496+835598019+840266395+848092502+858041940
959+867632068+875362549+881071313+884451775+883874679+877184099+865161964
949+853957206+851254481+859161238+872769378+885786562+895517029+902509738
939+907923896+912354845+916047186+919170650+921912866+924557576+927253754
929+929064370+927155482+918481980+904074918+890816755+886523568+893009664
919+905304886+917083675+925273130+930140000+933186574+935702158+938403560
909+941505085+944829969+948041745+950947492+953510784+955652503+957249720
899+958264617+958837117+959343242+960164521+961327767+962677528+964281849
890+966288939+968684243+971417474+974343837+977032563+979088267+980534211
880+981677886+982854783+984240760+985668526+986839016+987762536+988681808
870+989631656+990238282+989844845+988083888+985644150+984122500+984705725
860+987147900+990211050+992913149+995023387+996433880+996667964+995097073
850+990805349+981836542+964478741+932888972+881217224+810212971+732456362
840+667330812+628581668+616666440+621445207+631305148+642027530+657577361
830+680803001+705452645+720483606+720376419+708892237+695122029+687862084
820+691538197+705004535+723807166+743576149+761741369+777497217+791104242
810+803104578+813830790+823317911+831397324+837771775+841951995+843234407
800+841145342+836398125+831736575+831520808+839407298+855661053+876876747
790+898431413+917065845+931696961+942736377+951038103+957399252+962592141
781+967169418+971109494+974120827+976378159+978600041+981337381+984467323
771+987492793+990073915+991998822+992755677+991311892+986392647+977784404
761+968294985+963292164+966014391+973009677+974641439+958574408+912829351
751+831047556+720767209+605518654+513352754+460561220+445785656+457128384
741+482125428+512202497+542357989+570069216+594632742+616413621+636053131
731+653698714+667789229+674425136+670339637+658694362+649975588+653973332
721+671354465+694655184+716364327+733915608+748132463+760328717+771317568
711+781515367+791227518+800274538+806634015+806443461+797736249+784544181
701+775009910+774496262+781822650+792299665+802392855+810967598+818301787
691+825139809+831901847+838391426+844335737+849841550+855260373+860826919
681+866328901+871277676+875655206+880082882+884952608+889778247+893703279
671+896554562+899319413+903575757+909030519+913050828+914591422+913894464
662+910720506+904187886+893169434+877094464+856879390+835070930+815154364
652+799899767+788501669+775207638+753658404+725234026+701377941+694673292
642+708189846+734685348+762670949+780875659+782797640+773018490+765532958
632+770634539+786103649+803180285+816565275+826317124+834101442+840862157
622+846880503+852258165+857157491+861756290+866111741+870156358+873699237
612+876532411+878719400+880599524+882426437+884195126+885809546+887231531
602+888277003+888118696+885085146+877025722+861998104+839924776+815306055
592+797358274+793836429+803096430+814531649+817831669+811199662+801073181
582+794697267+794255356+797820591+803516053+811193603+820940716+831657734
572+841703146+850413213+858348248+866025379+873086830+879088112+884313247
562+889225179+893695966+897248944+899776786+901615818+902954923+903722712
552+904264288+905353151+907085902+908581434+909235629+909393519+909310152
543+908257366+904715811+896145386+878807573+850817236+817305624+790202591
533+779964605+787816481+806710140+828438088+848328118+864732450+877258482
523+886131315+892173341+896983240+902465930+909204636+915815053+920700379
513+923590804+925104375+925809691+925993629+925820974+925431368+925032360
503+925031663+925768530+926799516+926824519+924510703+918837250+908465193
493+891660599+868350756+842743743+822826968+816354802+826151712+847580665
483+871222028+889695785+901632603+909549320+915885048+921260481+925048518
473+926754385+927231189+928395062+931198427+934677231+937354048+938855082
463+939529406+939334603+938139249+936498224+935426425+935525393+936417016
453+936922027+935930461+933586279+931320310+930521806+931572363+933695973
443+935612034+936856210+938080119+939673157+940838353+938925496+927680413
433+899075370+852377819+801712263+769045888+765540689+784050801+809359307
424+830257967+844353218+854954205+864047262+868468878+865617665+857281672
414+845208833+830098126+813464168+796982040+781149511+767394834+759930684
404+762098311+771736217+782758847+790312772+793869650+795867687+796742176
394+795179434+792359074+791072901+791957071+793390478+794168854+793983941
384+792304471+788905970+784725124+781357965+780352748+781697982+782477612
374+780840626
##END=
