##TITLE=CHS 287
##JCAMP-DX=4.24
##DATA TYPE=INFRARED SPECTRUM
##DATE=27/8/2019
##SAMPLING PROCEDURE=Diamant-ATR
##ORIGIN=Angelika Moesle
##XUNITS=1/CM
##YUNITS=TRANSMITTANCE
##RESOLUTION=4
##FIRSTX=3997.453
##LASTX=373.96442
##DELTAX=-1.4165319
##MAXY=0.90579915
##MINY=0.62785655
##XFACTOR=1
##YFACTOR=8.435912e-010
##NPOINTS=2559
##FIRSTY=0.8712061
##XYDATA=(X++(Y..Y))
3997+1032734940+1032782491+1033002019+1033303083+1033652900+1033967248
3989+1034092592+1033985901+1033848758+1033959194+1034349143+1034741000
3980+1034840978+1034593824+1034175754+1033906131+1034070406+1034631201
3972+1035247815+1035694572+1035989348+1036094342+1035884848+1035501257
3963+1035373441+1035754558+1036383607+1036728125+1036517218+1035927312
3955+1035280175+1034723195+1034260399+1033927964+1033811452+1033953612
3946+1034266758+1034544012+1034658898+1034702210+1034822891+1035045103
3938+1035372098+1035774695+1036002490+1035757031+1035153136+1034741707
3929+1034898634+1035474832+1036039090+1036159558+1035729476+1035179561
3921+1035021787+1035271838+1035539341+1035556934+1035423606+1035261875
3912+1035000025+1034632614+1034430539+1034715494+1035439221+1036017116
3904+1035737530+1034694650+1033888820+1033981097+1034711608+1035529520
3895+1036187184+1036699934+1037043038+1037053637+1036749675+1036388271
3887+1035999169+1035428482+1034888883+1034727081+1034664409+1034233480
3878+1033720235+1033755705+1034409978+1035272332+1035875168+1036068200
3870+1036121262+1036361068+1036670399+1036670329+1036226681+1035568380
3861+1034990345+1034657485+1034750751+1035427493+1036523082+1037234869
3853+1036594586+1035438444+1035207046+1035745444+1036415191+1036806624
3844+1036747768+1036335773+1035964972+1036010474+1036408761+1036693645
3836+1036547458+1036094766+1035559972+1035153348+1035132575+1035540825
3827+1036045237+1036306663+1036344252+1036293874+1036137230+1036062689
3819+1036453839+1037109243+1037451641+1037347777+1037146125+1036989693
3810+1036802102+1036602217+1036483515+1036529017+1036767551+1037086068
3802+1037290051+1037375121+1037532330+1037741471+1037845265+1037886386
3793+1038054689+1038404011+1038786189+1038968763+1038819467+1038403870
3785+1037896773+1037457223+1037159409+1036989552+1036907520+1036898053
3776+1036893531+1036784085+1036610483+1036613027+1037012586+1037750869
3768+1038494592+1038934707+1039007624+1038900439+1038801733+1038665508
3759+1038388255+1038130573+1038179184+1038570476+1039104776+1039369664
3751+1038858399+1037859325+1037408470+1037758005+1038401044+1038835930
3742+1039076231+1039311444+1039355957+1038903972+1037972163+1037067061
3734+1036686792+1036801678+1037153261+1037468245+1037470718+1037098079
3725+1036624897+1036399293+1036543219+1037041696+1037825481+1038733550
3717+1039658788+1040593636+1041331495+1041236462+1039863690+1038229350
3708+1037796724+1038441317+1039121521+1039139680+1038542214+1038028546
3700+1038229986+1038907929+1039355887+1039216624+1038648622+1037947998
3691+1037297329+1036997536+1037508519+1038696032+1039816068+1040467232
3683+1040748796+1040972704+1041457191+1042259983+1042909381+1042610577
3674+1041506156+1040786738+1040582331+1040125823+1039274774+1038704581
3666+1038581216+1038530697+1038350383+1038108952+1037948069+1037865472
3657+1037680354+1037424509+1037634145+1038621066+1039863831+1040252439
3649+1038999499+1037108395+1036071238+1035894810+1035994718+1035963488
3640+1035733715+1035628367+1036007294+1036752007+1037366783+1037611111
3632+1037632025+1037364169+1036476732+1035457804+1035350336+1036091587
3623+1037052506+1037741966+1037746559+1037001775+1036223431+1036054139
3615+1036251481+1036445926+1036681068+1036979024+1037064235+1036804080
3606+1036481819+1036359514+1036348279+1036235725+1035990902+1035844786
3598+1035987369+1036210571+1036070743+1035503094+1035050897+1035199698
3589+1035805925+1036239187+1036003832+1035339102+1034767426+1034485226
3581+1034474628+1034646887+1034844935+1034884008+1034648512+1034206136
3572+1033785945+1033528476+1033331204+1033042505+1032722646+1032522195
3564+1032395580+1032303021+1032392542+1032794503+1033452803+1034220338
3555+1034928662+1035339173+1035270707+1034853485+1034399521+1033993603
3547+1033515404+1033020036+1032767512+1032797541+1032851734+1032763838
3538+1032644571+1032636516+1032638636+1032430342+1031984080+1031478538
3530+1031144265+1031198741+1031691212+1032309380+1032634255+1032649870
3521+1032670784+1032767512+1032658420+1032204032+1031707887+1031641258
3513+1032165030+1032936238+1033380805+1033234265+1032719537+1032119386
3504+1031513936+1030995110+1030686132+1030465192+1030076231+1029507028
3496+1028968206+1028602704+1028415183+1028343255+1028250414+1027996547
3488+1027617055+1027321784+1027313941+1027632104+1028068192+1028295916
3479+1028283127+1028341984+1028552185+1028476159+1027782813+1026864005
3471+1026410112+1026590213+1027009909+1027290483+1027352025+1027228165
3462+1026953455+1026676131+1026577919+1026601236+1026500339+1026223227
3454+1026010200+1026029771+1026156881+1026199910+1026114912+1025902025
3445+1025506494+1025007381+1024724334+1024906343+1025385461+1025755627
3437+1025826706+1025693803+1025449616+1025089837+1024690631+1024453298
3428+1024487142+1024629161+1024572565+1024210878+1023799520+1023693536
3420+1023961463+1024347314+1024498235+1024141070+1023259214+1022246646
3411+1021637875+1021566230+1021697367+1021698498+1021513662+1021188857
3403+1020722528+1020173886+1019765495+1019732358+1020004100+1020127889
3394+1019759348+1019179546+1019006369+1019418999+1020023813+1020424431
3386+1020539812+1020424220+1020151841+1019896632+1019791850+1019685937
3377+1019319939+1018778645+1018430312+1018355982+1018220746+1017819421
3369+1017364822+1017115477+1017082340+1017197791+1017429613+1017660728
3360+1017735623+1017652250+1017515672+1017354435+1017133141+1016886270
3352+1016706662+1016627387+1016620250+1016709913+1016992677+1017474197
3343+1017961016+1018205697+1018108404+1017721634+1017179067+1016704119
3335+1016562454+1016850659+1017367365+1017747494+1017746716+1017455332
3326+1017252903+1017454131+1017975429+1018429111+1018569150+1018551274
3318+1018704739+1019107407+1019445707+1019310048+1018615218+1017717889
3309+1017108200+1016992183+1017194470+1017460914+1017751238+1018157298
3301+1018633518+1018987998+1019159056+1019321141+1019609628+1019911046
3292+1020081609+1020191620+1020346427+1020466754+1020461526+1020376951
3284+1020220872+1019952097+1019719286+1019731439+1019872539+1019825129
3275+1019535793+1019237979+1019087764+1019063529+1019167676+1019498204
3267+1020077511+1020718077+1021132474+1021160100+1020863134+1020506534
3258+1020490989+1021074253+1021983594+1022484897+1022094594+1021177269
3250+1020618452+1020887792+1021625369+1022181501+1022308328+1022168712
3241+1021939363+1021692209+1021507374+1021456925+1021505254+1021565453
3233+1021681823+1022044923+1022672771+1023179161+1023132882+1022599360
3224+1022036303+1021701536+1021460529+1021182145+1021077362+1021471410
3216+1022301263+1023051133+1023261122+1022909468+1022218948+1021406053
3207+1020765982+1020637388+1021006848+1021389025+1021352920+1020988477
3199+1020657949+1020497419+1020397441+1020262559+1020053912+1019756169
3190+1019443940+1019241582+1019179193+1019215934+1019353925+1019632309
3182+1020058010+1020557264+1020991869+1021357795+1021890116+1022686337
3173+1023349301+1023382368+1022844747+1022272859+1022060326+1022214992
3165+1022609251+1023135496+1023638142+1023966055+1024109063+1024070979
3156+1023723070+1023089852+1022606142+1022651362+1022961683+1022933844
3148+1022424981+1021905378+1021870262+1022322177+1022802212+1022862906
3139+1022528209+1022254630+1022401382+1022816273+1023017359+1022764977
3131+1022328394+1022105122+1022116780+1022063506+1021820026+1021650310
3122+1021797062+1022064777+1022087317+1021889056+1021812889+1021928200
3114+1021906367+1021516912+1020908848+1020389245+1020171554+1020339574
3105+1020849638+1021491688+1021923536+1021940776+1021781024+1021929401
3097+1022497050+1023042725+1023109919+1022676798+1022035597+1021509211
3088+1021281416+1021262692+1021181156+1020928137+1020676461+1020618311
3080+1020773825+1021087890+1021512743+1021924950+1022105263+1021903823
3071+1021398352+1020822295+1020327068+1019868017+1019357034+1018836441
3063+1018386293+1017948156+1017423961+1016908526+1016607108+1016517658
3054+1016437888+1016351688+1016536665+1017127277+1017806491+1018181109
3046+1018295500+1018519055+1019087199+1019973577+1020989820+1021802786
3037+1022074033+1021802008+1021395596+1021296890+1021595057+1021985007
3029+1022080392+1021835429+1021642397+1021916400+1022644650+1023428223
3020+1023870246+1023825168+1023401869+1022907914+1022740106+1023107940
3012+1023817820+1024473506+1024894756+1025167629+1025332398+1025269585
3003+1024899984+1024282240+1023506157+1022639421+1021789008+1021094955
2995+1020621208+1020322263+1020136509+1020004241+1019744298+1019080416
2986+1017876723+1016213485+1014243671+1012158475+1010186965+1008379165
2978+1006479300+1004206302+1001513537+998421708+994773959+990354719+985184549
2968+979547696+973738726+967906723+962179784+956797222+952025904+948039714
2958+944897931+942566147+940998435+940260506+940435732+941338784+942464403
2948+943270020+943341030+942291084+939783013+935770539+930506326+924192237
2938+916795065+908275596+898783478+888534990+877719630+866616913+855610005
2928+845001666+834969314+825747455+817747448+811450528+807245729+805425352
2918+806251389+809796546+815616185+822774611+830341427+837781275+844852794
2908+851361257+857139280+862148072+866522516+870519376+874392659+878270180
2898+882147632+885999435+889887696+893942070+898204030+902514813+906637087
2888+910472215+914091702+917593123+920982908+924092118+926539495+927914104
2878+928035773+926975865+924984784+922557049+920344108+918781907+917901606
2868+917463611+917007245+915849549+913378714+909355641+903787396+896693337
2859+888211245+878799322+869189139+860226304+852810408+847920388+846541751
2849+849297824+855949082+865325960+875923488+886594639+896736155+906068802
2839+914454591+921896488+928559757+934662231+940265734+945227611+949396518
2829+952768426+955460767+957730021+959986415+962510878+965149591+967512604
2819+969434231+971034727+972427354+973597980+974582428+975588496+976821582
2809+978243178+979615809+980760221+981663556+982393502+983056819+983792841
2799+984673424+985615408+986448511+987069011+987535834+988031555+988699041
2789+989510099+990319674+991051032+991765716+992525973+993275137+993948487
2779+994590042+995228771+995767592+996158531+996513789+996907130+997246772
2769+997450544+997590654+997802339+998180136+998745171+999400504+999952043
2759+1000289919+1000526899+1000854459+1001265323+1001554447+1001617896
2751+1001585889+1001603058+1001658311+1001712504+1001841098+1002141173
2742+1002571820+1002963960+1003179955+1003247220+1003304451+1003417429
2734+1003504689+1003497977+1003505396+1003704010+1004108514+1004560853
2725+1004909822+1005101299+1005161428+1005190184+1005301397+1005526153
2717+1005851452+1006313471+1006928459+1007604918+1008234533+1008784518
2708+1009219758+1009449601+1009469526+1009475461+1009708272+1010186471
2700+1010698584+1011067125+1011298453+1011466684+1011588707+1011667347
2691+1011748318+1011884472+1012074254+1012233936+1012254426+1012144839
2683+1012083792+1012232947+1012524967+1012759191+1012878246+1012989105
2674+1013144054+1013307975+1013526867+1013897952+1014367601+1014731902
2666+1014837180+1014705053+1014508135+1014439458+1014584797+1014931717
2657+1015434433+1015956015+1016273048+1016299544+1016206984+1016212142
2649+1016363346+1016565987+1016702918+1016730685+1016716625+1016736550
2640+1016746795+1016647665+1016460639+1016367726+1016548676+1016997765
2632+1017518569+1017923497+1018220252+1018549579+1018946735+1019259175
2623+1019375051+1019423874+1019598041+1019882996+1020158907+1020406132
2615+1020621915+1020724295+1020678581+1020529497+1020304811+1020099909
2606+1020141737+1020525540+1021020696+1021294487+1021209135+1020872955
2598+1020558112+1020552813+1020919658+1021401178+1021682953+1021727325
2589+1021753538+1021947206+1022289180+1022592153+1022632568+1022373332
2581+1022086186+1022090991+1022410638+1022831181+1023161921+1023303092
2572+1023294401+1023379965+1023767230+1024332901+1024779587+1024960183
2564+1024884581+1024655374+1024504665+1024616230+1024855401+1024953753
2555+1024945628+1025129333+1025619402+1026211145+1026646597+1026763461
2547+1026457027+1025804732+1025171161+1024881261+1024850808+1024829117
2538+1024861265+1025138095+1025519989+1025647170+1025492504+1025444741
2530+1025826212+1026540542+1027206120+1027510859+1027441899+1027238693
2521+1027186619+1027476167+1028143653+1029039993+1029898178+1030474094
2513+1030587850+1030177552+1029451634+1028853744+1028735678+1029176005
2504+1030028327+1030937102+1031466314+1031483484+1031285647+1031219301
2496+1031343444+1031526513+1031667542+1031745051+1031749503+1031711702
2487+1031831888+1032379258+1033323574+1034231572+1034660311+1034484520
2479+1033875749+1033225857+1032945212+1033061228+1033195687+1033110900
2470+1033003220+1033110900+1033301105+1033273761+1033047592+1032966691
2462+1033203388+1033575179+1033918354+1034227332+1034370128+1034157595
2453+1033725817+1033400800+1033267614+1033217519+1033205225+1033269663
2445+1033520209+1034048926+1034663420+1034979393+1034941310+1034878709
2436+1034995291+1035182034+1035310698+1035392942+1035481827+1035600953
2428+1035734775+1035852205+1035947025+1036023687+1036065303+1036049900
2419+1035971048+1035876369+1035903006+1036153411+1036498141+1036670329
2411+1036595363+1036494042+1036649061+1037120689+1037648842+1037834878
2402+1037501807+1036867529+1036319946+1036048487+1035920882+1035709056
2394+1035402975+1035235662+1035378245+1035698952+1035896435+1035831008
2385+1035699235+1035872342+1036512978+1037343467+1037846325+1037756450
2377+1037369892+1037328205+1037973858+1038916337+1039487306+1039691714
2368+1040245514+1041447935+1042482478+1042168342+1040330231+1038359922
2360+1038019502+1039381252+1040727952+1040811397+1039920144+1038761106
2351+1037774114+1037299660+1037462734+1037950330+1038026638+1037083807
2343+1035691039+1035296497+1036439920+1038220447+1039441592+1039720329
2334+1039415873+1038985579+1038725213+1038748034+1038767253+1038173037
2326+1036693716+1034877578+1033740090+1033873276+1034955441+1036167542
2317+1036816304+1036660013+1036115115+1036074205+1037085149+1038700554
2309+1039909122+1040116214+1039544467+1038834941+1038453400+1038473325
2300+1038733267+1039008119+1039104422+1038976747+1038719136+1038410865
2292+1038134176+1038104006+1038492260+1039161795+1039827161+1040333551
2283+1040602468+1040630942+1040680048+1041015875+1041364138+1041179231
2275+1040519800+1040093887+1040389935+1041217880+1042038689+1042398186
2266+1042161983+1041612422+1041204526+1041153724+1041415363+1041950722
2258+1042694940+1043394998+1043828401+1044089616+1044371886+1044569510
2249+1044377538+1043851859+1043655365+1044386582+1045672801+1046436379
2241+1046186893+1045495455+1045035698+1044746009+1044115829+1042944214
2232+1041738048+1041350218+1042056141+1043147491+1043731391+1043764952
2224+1044012248+1045012805+1046229640+1046499969+1045563850+1044678532
2215+1045167400+1046888718+1048663734+1049657720+1049877036+1049718696
2207+1049489135+1049293842+1049223964+1049410495+1049788221+1050094585
2198+1050173084+1049920772+1049150058+1048139467+1047896129+1048945015
2190+1050307612+1050799377+1050835977+1051660954+1053149320+1053811577
2181+1052925341+1051455558+1050876957+1051914680+1053979808+1055394056
2173+1054942141+1053268445+1051926691+1051605490+1052187764+1053578766
2164+1055337460+1056542284+1057207862+1058664149+1061339815+1063530994
2156+1063747837+1062582298+1061518645+1061370127+1061773430+1061756685
2147+1060957073+1059935460+1059083350+1058176200+1057333064+1057177268
2139+1057617807+1057720611+1057225314+1056959507+1057336597+1057561565
2130+1056780606+1055215720+1053857433+1053416611+1053676836+1053779358
2122+1053208247+1052365746+1051919908+1051899418+1051907685+1051869319
2113+1051937855+1051976221+1051730762+1051226492+1050578578+1049856192
2105+1049420316+1049808924+1051002583+1052366453+1053480413+1054488389
2096+1055496719+1056077439+1055584049+1053857574+1051615735+1050034528
2088+1049693331+1050115923+1050668593+1051425176+1052552137+1053428128
2079+1053255303+1052232984+1051383842+1051409702+1052162964+1053036836
2071+1053563787+1053726225+1053820550+1054049546+1054264057+1054069895
2062+1053295931+1052468551+1052520129+1053719512+1055132064+1055459059
2054+1054183580+1051871862+1049832523+1049520153+1051562390+1055095535
2045+1058479243+1060413729+1060256873+1058347399+1056221506+1055386778
2037+1055924822+1057090502+1058613206+1060576238+1062942148+1065705428
2028+1068473865+1070024831+1069536105+1067935891+1067048949+1067880144
2020+1070142897+1072612531+1073741823+1072879257+1070918698+1069202115
2011+1068379257+1068588327+1069609304+1070502182+1070211857+1068833503
2003+1067436213+1066815431+1066973064+1067323658+1067165107+1066460032
1994+1065974273+1066196062+1066534503+1066163913+1065225957+1064635981
1986+1064997386+1065769442+1065564469+1063807259+1061853059+1061590008
1977+1063169307+1065120327+1066515426+1067531104+1068100731+1067676231
1969+1066454733+1065746055+1066507018+1068087801+1069048438+1068622878
1960+1067037149+1065032855+1063286949+1062083751+1061373236+1060960252
1952+1060617430+1060267401+1060118812+1060420936+1061126929+1061998328
1943+1062795114+1063158709+1062829594+1062214676+1062074919+1062565200
1935+1063065302+1063088618+1062844714+1062757030+1062984542+1063436457
1926+1063808742+1063770094+1063413211+1063242295+1063552756+1064303404
1918+1065447887+1066759189+1067691351+1067932712+1067680117+1067282607
1909+1066946286+1066758058+1066674119+1066486033+1066112900+1065869279
1901+1066084355+1066517051+1066580430+1066075382+1065303679+1064588359
1892+1064120759+1064183430+1065004734+1066284099+1067332420+1067790694
1884+1067840930+1067818885+1067781579+1067550958+1067185456+1067098408
1875+1067535767+1068255326+1068908752+1069397761+1069657209+1069545926
1867+1069282804+1069351834+1069761497+1070070687+1070017836+1069771247
1858+1069586412+1069533985+1069593901+1069743550+1069926902+1070065812
1850+1070133500+1070213977+1070412661+1070597779+1070354299+1069545997
1841+1068660184+1068149060+1068013401+1067940979+1067664714+1067347046
1833+1067406326+1067956876+1068601469+1068817323+1068467506+1067711912
1824+1066810485+1066116998+1065823494+1065805335+1065843419+1065853805
1816+1065886307+1066014406+1066329743+1066910958+1067606494+1068049082
1807+1068124825+1068133162+1068414726+1069072249+1069981661+1070892414
1799+1071593673+1072050605+1072359300+1072671387+1073085925+1073438709
1790+1073470151+1073295137+1073149656+1073025655+1072835803+1072632173
1782+1072483584+1072323407+1072053290+1071679238+1071309284+1071068701
1773+1070971619+1070867755+1070646320+1070377616+1070156675+1070052246
1765+1070111243+1070301096+1070485578+1070485437+1070225494+1069739311
1756+1069076771+1068304927+1067453029+1066417427+1065038437+1063348561
1748+1061492997+1059362865+1056827804+1054099570+1051469689+1048934981
1740+1046475098+1044263429+1041971566+1038196566+1031503055+1023102712
1731+1014776840+1005656725+994821793+982572543+969139808+954847121+941270178
1721+929721339+919317832+908187629+896970026+889239994+886006642+885864199
1711+888001963+891956429+897212305+903624958+910833832+917608879+923580993
1701+930106625+937874317+945006741+950451339+955020935+958969607+962308378
1691+965451856+968594133+971471098+973804790+975513672+976529279+976953708
1681+977041816+976907358+976619082+976145971+975376529+974461818+973711877
1672+973073431+972308864+971504942+970944641+970505303+969738051+968400960
1662+966952516+966045648+965683961+965582287+965516930+965007078+963505782
1652+962091747+961718967+961651349+961136763+960305567+960171321+961110196
1642+962766157+964738727+966715324+968354045+969159663+969105682+969074522
1632+969612708+970760653+972446996+974379363+976194794+977889686+979702150
1622+981634940+983393635+984613649+984756021+983283836+980349923+976112268
1612+970018202+961832581+952784253+945258982+940994549+939994910+941073825
1602+942780093+944030348+944484170+944438951+944347734+944489046+944944635
1592+945670411+946579399+947608572+948704868+949823915+950978573+952207772
1582+953500138+954801972+956047917+957121179+957857131+958296539+958671510
1572+958787527+957904541+955455539+952204098+949372707+947216078+945761416
1562+945184723+945417181+946246680+947627790+949343879+951050076+952529115
1553+953436972+953371898+952261329+950539023+948687062+946856652+945181402
1543+943897656+942928117+942276670+942517677+943627468+945200267+947062897
1533+949178968+951598790+954481901+958011867+962137956+966325233+970064976
1523+973439640+976545459+979046040+980974874+982843509+984788947+986477480
1513+987733741+988702291+989545710+990325044+991181887+992367492+993699637
1503+994848077+995681816+996138112+996168635+995711138+994789009+993575354
1493+992071727+989993809+987214632+984459832+982862656+982602855+983112354
1483+983813543+984320498+984422949+983979301+982806626+980580331+976512109
1473+969421372+959827439+950642816+943352688+937264345+931509568+926255529
1463+922635830+921144992+921102528+921489793+921586520+921778210+922989887
1453+925133726+927628584+929822024+931093829+931077225+929668065+926867479
1443+923048036+919490162+917979116+919620098+924536826+931652787+938603767
1434+944178301+948983322+953627531+957938173+961431892+964069121+966150996
1424+967832675+969057706+969793092+970115990+970214908+970260057+970135137
1414+969511034+968113320+965925957+963187125+960057353+956352091+952025833
1404+947929844+945191647+944091395+944250300+945094778+945991048+946458648
1394+946380714+945975786+945462542+944793148+943730555+942184817+940430080
1384+938701485+936826349+934499582+931825682+929478000+928154193+927937986
1374+928163449+927796109+926005761+922478621+917758952+913383589+911003689
1364+911634575+915575121+921933017+928978958+935582029+941376939+946134408
1354+949648194+951916812+953035223+952851306+950894704+946811715+940979429
1344+934649867+929361348+926305059+926178231+928953593+933572365+938583348
1334+943097055+946903992+950048106+952505728+954274385+955608367+956940583
1324+958557118+960449705+962456826+964417243+966126549+967238318+967295126
1315+965838980+962635797+958011514+952857877+948216777+944983990+943741224
1305+944401644+946054708+947493191+947960791+947315986+945650062+942953129
1295+939084934+933943026+927666950+920658315+913391361+906244453+899389564
1285+892637904+885436378+877177912+867556847+856710469+845194627+833845321
1275+823498197+814780962+808163124+804050318+802652958+803795675+806962752
1265+811506205+816787376+822239817+827480078+832436797+837281385+842157415
1255+847047082+851891812+856695561+861487299+866310902+871255257+876390594
1245+881681939+886974909+892006382+896479957+900255452+903451286+906311858
1235+909025890+911690393+914397430+917303434+920529368+923965079+927275022
1225+930132697+932347193+933858663+934841273+935762272+937087069+938868515
1215+940677728+941827511+941601200+939523353+935654310+930577264+925047950
1205+919858844+916083985+915047181+917580122+923257814+930529289+937628152
1196+943395435+947479271+950058846+951491887+952085043+951968885+951048239
1186+949032923+945559128+940425275+933893284+926819009+920436385+915952212
1176+914204398+915421940+919105299+924188634+929496512+934193642+937877355
1166+940314911+941276042+940743933+939125843+937057747+935109624+933807790
1156+933723639+935226277+938118998+941673905+945110605+948038936+950472889
1146+952542469+954280744+955628716+956543709+957077161+957332935+957328766
1136+956922354+955895936+954072027+951360397+947789097+943525724+938815594
1126+933876609+928934304+924337082+920439705+917213984+914066761+910169173
1116+904941135+898213145+890158944+881320252+872667314+865361500+860149713
1106+856813274+854234265+851140104+846976921+842342463+838771446+837969432
1096+840902709+847316563+855917428+865001155+873205287+879980405+885425992
1086+889709502+892733643+894297822+894369467+893108119+890731610+887433890
1077+883371108+878754526+874129677+870526371+869033272+870141650+873651267
1067+879051069+885702539+892870856+899994943+906878942+913462371+919552056
1057+924901410+929443803+933366615+936961090+940394610+943632556+946560604
1047+949119194+951320900+953191090+954740996+956033857+957234370+958519105
1037+959956810+961488841+962910648+963864219+964062621+963608728+962916159
1027+962151310+960740878+957456865+950921129+939869779+923038922+899493146
1017+869778762+836749912+804783938+777921223+758570497+747471736+744266363
1007+747918281+756920400+769568219+784229801+799400104+813833185+826957295
997+838948863+850079419+860146321+868746409+875860322+881873770+887136994
987+891759299+895811199+899472090+902871625+905940562+908558431+910772715
977+912759769+914606359+916209328+917406945+918205356+918876657+919813553
967+921228154+922966358+924678915+926210874+927740573+929475951+931342255
958+933076149+934529752+935748706+936754633+937352735+937314934+936833203
948+936613463+937322000+939036393+941332849+943700456+945776324+947428187
938+948767045+949946361+950920282+951523541+951765608+951894484+952140155
928+952501701+952855757+953203030+953655652+954205990+954722555+955226543
918+955952532+957039501+958312225+959425266+960138396+960509268+960910947
908+961758534+963113572+964673582+966180601+967623887+968968185+969971074
898+970478666+970687242+970863246+970938141+970667458+970088787+969467793
888+968828993+967906723+966520455+964633379+962178583+959294694+956622914
878+954917000+954361009+954483456+954656280+954587673+954472151+954653454
868+955041071+955060502+954408914+953648092+953746586+955142604+957396596
858+959485677+960199301+958638584+954812288+949725774+944743760+940986918
849+939228648+939876138+942809556+947429530+952956371+958622969+963710048
839+967721039+970700455+973167333+975345864+976508789+975545820+972359171
829+968490552+966330462+967731779+972964550+980511654+987923240+993224335
819+995749716+995871810+994255840+991382338+987295886+981396830+972609081
809+960126314+944132728+925738258+906208277+886362394+866894731+849169866
799+835114370+826012485+821987858+822928004+828966747+839482526+852490973
789+865763673+878174159+889627612+900119156+909388072+917415918+924669023
779+931481800+937537288+942234842+945064608+945189457+941226795+932125334
769+918173561+901029274+883116676+866967295+854425035+845864021+840097303
759+835333545+830535448+826017431+822941429+822544202+825777908+833082591
749+843991288+857029975+870306278+882335859+892456248+900567680+906439463
739+909529031+909867331+908747153+907866993+907860422+908014028+907290936
730+905429155+903119627+901080782+898953547+895371861+889141641+880132032
720+869158968+857259465+845528971+836056213+831957891+834629389+840984670
710+845083627+842829847+834529693+823593159+814022684+808850040+809504879
700+815638088+825465962+836888468+848725511+860919226+873668224+886454882
690+897749784+905769433+909974586+911903561+914177054+918537862+924706894
680+930856637+935177524+937142605+937209163+935630923+932409723+928075199
670+923782575+921043177+920074132+919132784+918162609+918582022+920858129
660+923500870+924980615+925855052+927551286+930177493+932413539+932901700
650+931630531+930386140+931331233+934667743+938436313+940730932+941207647
640+940468446+939154742+938055196+938195165+940108101+943288674+946760702
630+949893087+952340393+953681653+953643287+952422778+950447947+948210065
620+946527749+946305537+947727485+950136991+952835267+955502595+957883132
611+959567073+960171180+959805889+959437843+960236537+962124955+963592760
601+963456041+962209036+961122066+960658423+960451330+960258299+960202410
591+960278294+960225797+959926358+959602189+959724494+960815985+962925486
581+965054700+965738154+964709617+963393793+963196522+963745164+963542806
571+961845017+959028958+955592328+951730845+947902217+944948591+943323436
561+942574343+941843196+940884962+940494942+941829631+945184440+949436580
551+952815766+954312822+954500413+954988645+956844350+959456779+961120583
541+960680043+958499110+956022128+954438872+953529814+951925714+948896557
531+945501403+943242111+942126809+941048601+939561366+938149309+937212201
521+937056899+938150298+940266653+942260207+943635876+944993952+946320869
511+946625254+945709767+944776898+944629298+944475974+943209115+940983951
501+939073699+938420698+938579603+938404306+937649207+937421201+938605181
492+940560298+942348880+944226701+946599960+948783084+950122365+951251445
482+952807075+954027655+953877582+952502336+950667970+948610189+946390536
472+944686953+944131103+944501905+945256227+945974373+946304689+946102613
462+945159782+942362164+936125585+927073724+919176167+915693470+916526573
452+919952463+924561414+930277542+937308787+944014733+947802169+948291814
442+947173544+945406865+943085609+941122366+940947775+943133513+947307860
432+952241192+955542233+955736820+954728207+955465501+957964528+960310655
422+962596018+966138772+969098475+967639785+963130529+959150839+956948850
412+957439979+960757058+963782047+962371615+956656971+951406959+951087524
402+956385511+964159349+968211673+963234888+953872989+949576337+950503624
392+952056498+952696640+952871655+951068871+944289938+933400671+926379742
382+930325305+942522270+955275931+963374080+964549016+958004731+948978094
##END=
