##TITLE=JMB-180-DNK
##JCAMP-DX=5.0
##DATA TYPE=LINK
##BLOCKS=1


$$ === CHEMSPECTRA SPECTRUM ORIG ===
##TITLE=JMB-180-DNK
##JCAMP-DX=5.00
##DATA TYPE=INFRARED SPECTRUM
##DATA CLASS=XYDATA
##$CSCATEGORY=SPECTRUM
##ORIGIN=Angelika Moesle
##OWNER=
##XUNITS=1/CM
##YUNITS=TRANSMITTANCE
##XFACTOR=1.0
##YFACTOR=8.1643337e-10
##FIRSTX=3997.453
##LASTX=373.96442
##MAXX=3997.453
##MAXY=0.8766386550618335
##MINX=373.96442
##MINY=0.4904420998040082
##NPOINTS=2559
##XYDATA= (X++(Y..Y))
2559A071706631A071408766A071249686A071027382A070820044A070941892A071523824
2552A072216141A072449687A071975732A071102432A070440340A070401719A070875456
2545A071427602A071776643A071926963A071941638A071891409A071948134A072181244
2538A072309516A071996100A071378541A070974160A071030010A071264943A071365181
2531A071371168A071410810A071460527A071504842A071613183A071788690A071946164
2524A071975951A071798982A071551639A071580695A071928351A072070494A071596684
2517A070707907A069777955A068976055A068487863A068644462A069461473A070368500
2510A070828002A070935759A071180403A071755691A072300609A072433553A072265055
2503A072254980A072604387A072891959A072623734A071939156A071347295A070928824
2496A070240303A069081695A067948202A067480598A067560832A067553750A067416060
2489A067557473A067865413A067884468A067769410A068308049A069639754A070495970
2482A070030848A069064831A068764557A069035994A069102721A069111847A069457531
2475A069556746A068874869A067982661A067698448A068183647A069261948A070697467
2468A071732767A071840451A071548500A071428770A071222381A070541379A069563317
2461A068514145A067486803A067002262A068120351A070700313A072287322A072045815
2454A071118421A070230228A069513016A068996205A068677679A068407849A068242052
2447A068732069A070100715A071417235A071777958A071429354A071111704A071178140
2440A071530394A071871260A071702470A070758792A069760650A070008727A071403290
2433A072065967A071462790A070824206A070862680A070987156A070627892A069833586
2426A068992263A068703086A069132435A069615808A069851618A070316959A070941965
2419A070952916A070524297A070421723A070617452A070549776A070172261A069798762
2412A069533895A069419422A069588869A069851983A069710643A069193979A068997519
2405A069457385A069982883A070019751A069730355A069390730A069096952A069030737
2398A069332179A069862204A070525465A071182374A071294657A070690970A070204165
2391A070555835A070933350A070026833A068020916A066207006A065907316A067667494
2384A069997995A070840559A070507286A070831652A072551166A073741823A072898456
2377A070813328A069008835A068731777A070078519A071632530A072064653A071410299
2370A070355214A069422123A068759373A068213068A067765760A067828910A068595840
2363A069471694A069727070A069332398A068718490A068236721A068211681A068963936
2356A070144957A070737912A070175327A068780983A067457674A067102864A067756926
2349A068411645A068401424A068182187A068371200A068873190A069210259A069398615
2342A070111447A071568284A072671845A072462098A071229098A069848917A068967149
2335A068558241A068208469A067963241A068324476A068920571A068813544A068515532
2328A069232234A070739665A071504039A071087393A070127070A069131486A068317175
2321A067787881A067575360A067673772A067858040A067547763A066510200A065476798
2314A065864242A068219712A070384490A070193652A068226721A066086473A064840258
2307A064721550A065315382A066031718A066522976A066640516A066144805A064989628
2300A064067780A064939254A067398101A069092062A069186240A068371857A067243109
2293A066455300A066898227A068347473A069220334A068757694A067718087A067137542
2286A067228581A067621062A068123344A068663589A068882316A068425224A067511479
2279A066891291A067040517A067673042A068325863A068826758A068935683A068283081
2272A067011460A065940898A065906949A066875742A067986092A068612412A068565177
2265A067837306A066793537A066102607A066153565A066695563A067109070A067022995
2258A066689136A066676946A067150756A067416790A066726807A065553893A064963127
2251A065259678A065734145A065547614A064706584A063905268A063699245A064070919
2244A064584006A064905014A065076068A065155279A064945095A064407405A063875553
2237A063488549A063072414A062772578A063071392A063920088A064555388A064488295
2230A064012148A063593459A063327717A063111254A062969549A063026420A063294572
2223A063622005A063873949A064122462A064492603A064849311A064896765A064617078
2216A064304393A064136114A063974186A063662450A063300121A063100302A063049198
2209A062795867A062082232A061236456A060927275A061388528A062124649A062528519
2202A062484934A062164875A061640910A060968305A060344613A059979144A059992651
2195A060410173A060995390A061285954A061067301A060611962A060325047A060348263
2188A060539028A060660436A060612035A060573925A060826600A061390061A061963013
2181A062215833A062095008A061884459A061903148A062096030A062068288A061590389
2174A060811779A059948482A059146947A058693798A058860763A059416632A059806412
2167A059796483A059474672A058875802A058139680A057709603A057818163A058114349
2160A058236561A058346946A058699931A059064962A058971806A058378996A057777352
2153A057590238A057721868A057903726A058161730A058574214A058941435A059075620
2146A059055398A058940851A058633933A058202321A057940300A057973155A058048424
2139A057825755A057264849A056656854A056287151A056149754A056045136A055893867
2132A055799324A055787569A055719163A055616663A055826190A056532379A057319385
2125A057634625A057475472A057228127A057118837A057143513A057218271A057140520
2118A056697008A055972057A055312008A054919162A054672839A054425641A054310875
2111A054555008A055032614A055324710A055272220A055124747A055101166A055206368
2104A055483354A055988191A056496533A056649043A056402282A056035572A055750848
2097A055491822A055128836A054689193A054415420A054563330A055085981A055615349
2090A055840571A055806771A055788081A055944168A056139095A056098868A055764573
2083A055408960A055335005A055532049A055698430A055543657A055024364A054357891
2076A053858967A053728651A053907370A054103318A054046812A053731936A053348508
2069A053060353A052992749A053293827A053945479A054588444A054798994A054593190
2062A054480833A054920768A055771582A056466599A056730590A056806882A056897920
2055A056816008A056411700A055957090A055807355A055949863A056084486A055935262
2048A055393337A054576252A053789611A053277692A053044511A053024872A053262579
2041A053759825A054311021A054664955A054740005A054595672A054320001A054004393
2034A053718430A053485906A053347340A053390049A053594174A053787640A053938763
2027A054295033A054947051A055513432A055604398A055318433A054987204A054780888
2020A054774245A054987058A055206587A055125405A054714599A054206987A053795890
2013A053534236A053401803A053318722A053161612A052859658A052502294A052329197
2006A052512953A052945806A053369388A053690031A053984173A054244147A054328981
1999A054156175A053787202A053388005A053223157A053467800A053836846A053747414
1992A053136133A052686270A052939455A053616295A054120548A054323067A054482074
1985A054680577A054742925A054625166A054544787A054700363A055110657A055696239
1978A056235609A056367239A055934678A055176217A054404761A053769170A053366687
1971A053217681A053156137A053001510A052750880A052521641A052438414A052504046
1964A052529744A052393661A052299337A052511785A052979827A053407424A053514889
1957A053183879A052575008A052057978A051892912A052063016A052439582A052914048
1950A053331863A053441591A053076998A052404904A051840420A051633813A051671411
1943A051666739A051362595A050652100A049739523A049058959A048833298A048862062
1936A048846001A048750290A048726052A048794458A048776207A048550472A048222309
1929A047936490A047666148A047323750A046961055A046739336A046705899A046673703
1922A046404968A045938677A045572187A045463408A045411573A045077424A044312466
1915A043238400A042004669A040490084A038388091A035617727A032378664A028742666
1908A024518385A019628434A014366736A009231485A004671960A001027858I98600404
1901I97682279I98368318A000272683A002587050A004549601A005794137A006261011
1894A005952122A004873383A003082835A000685752I97819093I94640040I91252775
1887I87730302I84281857I81261885I78882323I77026361I75402924I73808397I72305273
1879I71279756I71184044I72055300I73434312I74869468I76237603I77455564I78193145
1871I77994860I76436106I73220186I68550422I63427070I59247031I57069623I57360261
1863I60095362I64752862I70402515I76131598I81381761I85905002I89618897I92540749
1855I94743709I96315604I97293594I97626356I97343239I96732542I96087533I95318778
1847I94115345I92418391I90410065I88119351I85414693I82422829I79667650I77636766
1839I76320757I75355542I74574888I74192117I74379816I74910059I75399931I75773941
1831I76273230I77002707I77671224I77918715I77759124I77435926I76899550I75819716
1823I74213143I72650300I71575650I70734546I69604558I68177434I66931583I66157719
1815I65718368I65429118I65256604I65051238I64415061I63027070I60962529I58528724
1807I55829321I52614497I48557911I43553778I37673134I31018479I23886655I17073650
1799I11771944I08989608I09076266I11797789I16695405I23237631I30761278I38528766
1791I45927792I52585075I58362343I63345742I67760934I71727794I75111775I77751239
1783I79813735I81718685I83673935I85495949I86951034I88050434I88931545I89657080
1775I90240983I90724209I91105813I91248248I90966007I90230397I89155236I87742567
1767I85859593I83547342I81049510I78410850I75389126I71934037I68477416I65589585
1759I63557094I62395129I62078428I62544791I63516868I64588160I65611414I66815796
1751I68462961I70600361I73208067I76323969I79910031I83734966I87456018I90826200
1743I93880996I96909655A000129591A003391286A006311312A008684085A010638970
1736A012384693A013981775A015427953A016773968A018022153A019058110A019794377
1729A020304763A020765505A021343568A022108015A022923639A023457533A023466221
1722A023115426A022872243A023022198A023445122A023907616A024354558A024802744
1715A025173323A025400080A025540252A025677721A025845345A026091230A026473052
1708A026951972A027399646A027720580A027929962A028152923A028536716A029073165
1701A029550479A029802642A029901201A029975813A030023997A030047724A030155554
1694A030354569A030475613A030466633A030542779A030882401A031359352A031743584
1687A032018452A032305658A032583446A032719092A032724640A032746323A032809108
1680A032809108A032736029A032685363A032656452A032530006A032261197A031943985
1673A031626993A031174720A030429984A029472217A028560224A027820891A027166975
1666A026519995A025926090A025444322A025163760A025316780A026082980A027257795
1659A028402750A029308318A030042833A030674993A031240279A031793301A032213670
1652A032245501A031976837A031917046A032342672A032895036A033057329A032766692
1645A032361800A032105548A031963770A031805346A031642762A031560119A031514052
1638A031394322A031255903A031260721A031395344A031447031A031273716A030933361
1631A030606221A030511678A030766031A031201440A031489887A031510767A031406295
1624A031302919A031231153A031269482A031519382A031944934A032364063A032567968
1617A032427211A031980269A031464554A031208522A031428926A032059846A032754207
1610A033156252A033235975A033282699A033537417A033924131A034186953A034178046
1603A033937491A033593121A033307448A033228674A033352785A033527123A033691460
1596A033969395A034418236A034856346A035054850A034961402A034680547A034361730
1589A034152348A034166803A034416995A034759613A034946580A034806556A034398817
1582A033984653A033847401A034101536A034579434A034933952A034943588A034668647
1575A034300623A034012979A033965671A034203160A034499052A034556656A034391589
1568A034269085A034302814A034365599A034337200A034196371A033959831A033709055
1561A033540703A033372495A032998486A032449115A032106862A032369684A033274886
1554A034416265A035210280A035391992A035249630A035224735A035383815A035493836
1547A035436015A035278541A035114715A035082081A035375858A036032767A036814079
1540A037411050A037672704A037614664A037391557A037273577A037422804A037649853
1533A037615101A037299131A037026819A036990388A037000755A036798309A036401010
1526A036008164A035673285A035245761A034656674A034123219A033968519A034260032
1519A034714422A035005790A035112890A035230211A035359504A035255106A034864377
1512A034554101A034753846A035515665A036458466A037045070A036991920A036475914
1505A035856457A035237292A034470217A033579469A032965560A033057621A033841634
1498A034866202A035654522A035908292A035493252A034637328A034014074A034174104
1491A034964395A035783524A036226233A036264708A036013493A035542823A034912707
1484A034317926A034010059A033979615A033972169A033913837A033964211A034107960
1477A034136944A034052111A034097082A034373995A034694857A034764504A034394947
1470A033634954A032723472A031904197A031369865A031294450A031658385A032090801
1463A032161033A031812209A031325331A031006952A031070759A031622393A032541467
1456A033474924A034026996A033949172A033281458A032434147A031951432A032032688
1449A032418963A032786403A032984761A032885765A032395747A031714892A031242761
1442A031153548A031302773A031468204A031449369A031137925A030739968A030681271
1435A031089449A031632541A031969757A032054955A031939313A031627285A031268679
1428A031200783A031553257A031956323A031917703A031435571A030992934A030975194
1421A031309124A031662401A031842872A031954569A032190527A032536357A032789177
1414A032811517A032605421A032294853A032298868A033159099A034732966A035937275
1407A035840031A034698653A033503980A032844297A032630024A032632652A032790053
1400A033053533A033289415A033288247A032775160A031672987A030366250A029514560
1393A029502587A029980704A030277839A030307626A030410053A030664188A030873642
1386A030875468A030672949A030447287A030404943A030478971A030322446A029698536
1379A028705141A027638303A026857721A026670533A027100612A027797310A028300176
1372A028336825A027897255A027220196A026709592A026649288A026938027A027203989
1365A027181138A026910066A026620158A026513497A026657903A026983145A027336203
1358A027579022A027671082A027716784A027950769A028595340A029625384A030708430
1351A031451193A031673498A031431117A030932631A030511094A030457215A030718212
1344A030899414A030724782A030389831A030311568A030622063A031116315A031582386
1337A031894487A031835352A031212683A030273897A029697660A029964570A030815968
1330A031411479A031034986A029776724A028625273A028675063A029989319A031446960
1323A031975305A031668168A031462875A032098247A033532891A034941325A035224881
1316A033984215A031997789A030511970A030181982A030721571A031381838A031656852
1309A031511862A031040023A030320474A029718245A029805855A030755665A032062328
1302A032922706A032787206A031725697A030425093A029720219A029972163A030828744
1295A031661379A032183080A032285143A031512373A029687293A027952229A027881559
1288A029550844A031686785A033401770A034524971A034629589A033084268A030218850
1281A027724742A027328538A029029946A031239184A032801588A033918801A035003088
1274A035964141A036694931A037024847A036468176A035033020A033520918A032181620
1267A030267180A027734598A026022531A026177231A027606618A029504412A032032250
1260A035204293A038045400A039648104A040004958A039758489A039491871A039093768
1253A037988382A036106503A034112195A032637544A031845719A031481273A031004761
1246A030212718A029814469A030568258A031992534A032909054A032998486A032842764
1239A032825096A032906352A033090912A033244371A032740336A031196403A029334308
1232A028249656A028078092A028155916A028108170A028022607A027913901A027699920
1225A027493750A027486742A027651517A027733503A027537846A027261080A027447465
1218A028382600A029569753A030086417A029567052A028648634A028242063A028501600
1211A028818374A028808445A028844948A029469004A030678205A031970706A032808743
1204A032952273A032429986A031179027A028956501A026069766A023917253A023960180
1197A026140801A028975921A031103612A032139569A032281201A031842653A031190927
1190A030711642A030732011A031260356A031641375A030949934A029058929A026882105
1183A025434977A025071918A025628152A026695574A027781687A028691854A029742193
1176A031430533A033796881A035865510A036096720A034124606A031479228A029880978
1169A029564131A029582965A029025930A027862502A026980736A027256115A028652285
1162A030529564A032335444A033487919A033271821A031631811A029787894A029408336
1155A030892186A032695073A032952127A031477111A029502879A028206071A028110944
1148A028938832A029630859A029456739A029035640A029315180A029984209A030057872
1141A029364095A028071083A025894551A023121924A021440082A022587738A026625342
1134A031855356A035984802A037582687A036960018A035508875A034379178A033992757
1127A034130300A033936761A032677405A030966214A030062615A030025822A030052833
1120A030192057A030940151A031700583A031359863A029802788A027906162A026736312
1113A026915104A027935949A028476194A027992966A027139233A026366536A025314444
1106A023721231A021831906A020077203A018866323A018304468A018120274A018139107
1099A018380906A018558018A018230221A017521915A016968821A016698187A016370536
1092A015781960A014901506A013526290A011467152A009011225A006907845A005901383
1085A006188735A007314490A008635682A009698432A010155304A009780345A008844917
1078A008179685A008524931A009899710A011601921A012834337A013490517A014197800
1071A015418828A016778494A017642741A017904906A017824380A017708008A017813429
1064A018146118A018496547A018784630A018974518A018784776A018065446A017278294
1057A017136881A017794155A018664388A019227704A019508996A019726263A019933235
1050A020028508A019919875A019579666A019055774A018528232A018218394A018172545
1043A018220584A018214014A018359223A019128998A020400109A021036650A020479467
1036A019583462A019198793A019207116A018988901A018352214A017708226A017590687
1029A018067052A018508958A018404122A018025001A017816276A017737137A017467088
1022A016896180A016233065A015764147A015445840A014917495A014056314A013172210
1015A012523696A011970456A011300990A010572388A010017688A009834734A010039371
1008A010421704A010712268A010770600A010606190A010399583A010482372A010959248
1001A011393853A011458683A011434226A011713328A012276936A012820028A013269089
994A013741220A014077778A013934028A013339394A012880915A013296831A014528080
987A015433064A015439634A015090081A014726218A014204809A013696540A013669089
980A013986958A014054416A013866133A013741293A013563377A013112855A012609114
973A012382356A012303583A011997030A011408820A010668975A009867441A009198997
966A008903979A008795419A008337160A007544751A007168842A007683390A008246705
959A008123325A007734275A007492114A007426919A007555337A007779174A007673826
952A007074518A006631444A007343692A009141468A010452950A010457623A009674048
945A008782132A008242471A008327377A009020059A009780272A009955998A009794508
938A010380382A012116249A013747498A014606196A015132571A015135345A014413314
931A013590462A013175203A012863613A012326580A012183123A013230980A014520852
924A014662046A013915485A012986482A012360017A012258830A012311468A011874234
917A011046928A010590348A010720153A010611958A009864886A008984651A008380525
910A007687989A006383515A004551061A002517548A000617929I99601172A000166386
903A000661075I99636872I98178648I97686148I98342547I98806573I98520609
896I98090967I97951745I98184123I99092685A001157152A003718645A005354567
889A006005709A006380157A006873898A007368003A007648931A007900072A008267585
882A008191731A007110875A005277837A003292144A001416470I99320026I96681365
875I93608975I90236383I86195202I80631550I72906333I62921576I50721521
868I36240973I19658067I01916481H84428226H67715224H50452193H30493411
861H07111371G82346887G60716264G47397609G45696566G55649200G74442440
854G97550779H20245029H40111896H58676115H78872387H98630475I12781838
847I22052449I30554306I39897339I47814270I52590259I55100502I56151936
840I55861226I54705538I53547442I51607231I46003426I35830167I22015143
833I06671006H92597248H82362882H77720496H78858296H84759747H93856968
826I04540978I16862516I30438007I40441016I45076759I47428141I50219384
819I53745070I56412128I57605196I58173037I58851630I59521607I59841956
812I60087040I60617356I60963916I60643273I60088500I59867437I59918834
805I59891383I59600381I59033926I58407169I57784791I55757922I50334369
798I39906757I21239380H90261344H47876391H07784268G90290173G99297013
791H22792359H51098225H79382113I02781312I18274455I27400733I32949928
784I36753987I39636999I41552899I42306614I42197470I41755053I41241090
777I40239811I37573116I32562924I25612009I16899529I05827128H91984069
770H76564663H61546352H48062629H37257794H31797593H32626358H34887285
763H34821872H32224678H27434673H20648972H12656406H05169043G99956186
756G97999475G99294312H02990394H08684434H17495764H29756779H42118178
749H51821204H59930288H68117123H76207663H83002271H88378661H93116687
742H97412076I00917684I03995550I07551825I11315729I14028053I15593597
735I16776442I17942058I18843026I19032186I18292414I16564140I13536065
728I08701306I01707611H92214915H80252055H67420206H56747220H51016385
721H51325420H56121485H62625236H69157971H75118557H79934845H82903128
714H83547334H81546601H76829383H70130924H63119634H57734190H55520790
707H57149119H61979789H68825574H77198940H86838305H96774294I06063520
700I14659994I22606274I29226324I33971796I37179321I39537709I41512600
693I43234595I44662230I45805945I46782767I47748345I48850811I50144699
686I51541964I53001429I54685754I56720873I58855791I60681091I62123400
679I63396627I64649923I65885698I67079420I68217295I69245732I70092239
672I70741263I71250043I71693555I72100272I72377769I72191749I70807918
665I67038027I59583881I48060447I34232209I22242046I16884637I20448943
658I30813915I43092745I53180878I59729602I63506720I65751148I67235800
651I68281029I69045331I69600907I69881324I69738597I69060078I67777871
644I65767720I62756655I58402861I52720940I46585650I41596922I39142456
637I39522087I41940854I45167650I48217921I50681951I52598581I54127184
630I55422021I56704154I58178440I59817209I61363333I62597429I63511173
623I64217873I64798856I65257626I65554103I65646163I65533589I65271862
616I64894275I64319059I63447804I62393815I61512046I61124457I61231046
609I61520661I61689743I61731503I61827871I61953588I61796916I61215642
602I60578152I60402134I60721025I61028965I60804690I59860502I58190194
595I55827862I53125978I51004346I50571420I52340505I55815670I59792898
588I63040795I64815647I64912380I63419697I60576473I56801837I52587557
581I48015329I42131108I32991324I18895591H99923487H78571966H59657975
574H49602037H53666507H71640764H96586449I19479421I35300070I44375535
567I49299142I52154850I54036948I55485682I56755259I57955772I59119707
560I60173333I60984504I61547088I62071930I62809000I63780201I64762205
553I65498765I65846202I65806413I65569946I65455692I65647550I66008348
546I66221818I66086903I65633462I64993271I64219479I63260762I62074486
539I60659773I58952962I56743724I53659361I49117795I42358595I32851298
532I21004884I08516674H97799811H90792025H88060282H88790124H91503105
525H94863649H97991452I00312171I01441576I01260813H99935314H97909247
518H95969547H94976299H94981628H94381591H90160230H79614640H62570628
511H42138182H23232001H10447459H06918708H13697327H29032704H48733848
504H68346873H85328976H99189337I10190120I18536327I24504214I28585038
497I31311743I33191068I34731717I36235643I37632908I38742601I39586260
490I40297048I40895479I41319572I41530924I41490041I41101648I40275803
483I39050322I37573846I35887769I33773219I30943283I27375546I23291217
476I18777686I13644041I07794862I01666435H96170752H92226231H90330480
469H90485107H92451747H96002546I00803941I06169162I11170155I14895512
462I16102157I12495289I01430406H83192744H64073824H54119437H59489915
455H77130825H97982181I14724313I25600402I32364128I36928983I40201118
448I42547389I44207475I45250149I45627445I45475227I45143414I44792400
441I44065113I42179801I38131029I30689951I18802508I03289654H88629219
434H81505937H85755843H98822554I14037398I26021866I33414467I37530845
427I40010060I41791702I43176410I44128994I44622513I44898624I45310306
420I45929909I46553235I47128524I47935972I49254462I51011866I52844685
413I54415120I55561608I56219685I56440164I56489735I56643048I56853525
406I56907842I56873821I57124159I57949347I59303465I60872586I62341688
399I63634992I64834556I65887375I66572467I66804188I66828353I67038975
392I67618061I68387618I69015981I69332026I69437227I69555716I69761156
385I69866650I69702313I69446862I69469861I69881762I70428651I70754404
378I70641975I70142102I69580173I69296618I69303480I69293770I68937792
371I68044416I66583418I64850252I63503070I63060726I63389034I63982428
364I64627583I65462627I66561370I67788019I68952759I69879864I70365719
357I70155462I69016274I66910558I64088944I61024438I58342704I56607494
350I55760112I54838921I52675384I48967986I44630837I41297597I40479271
343I42709316I47116478I51908016I55451442I57041954I56929743I55881156
336I54595810I53261183I51587811I49277897I46377583I43179402I39917635
329I36556067I32766465I28050195I21807733I13385526I02447455H89504854
322H75898847H63243233H52966671H46023130H42616226H42198996H43586185
315H44647402H42129129H32575400H13869403G86082538G51250800G12546889
308F73570227F38399376F12142318F00712952F08863430F37171194F80394184
301G29171262G74303290H10666332H38071010H59035452H76043618H90379541
294I02334660I11790998I18788199I23841903I27742986I31133537I34374279
287I37600785I40701356I43383382I45463327I47079902I48567475I50124549
280I51653371I52960254I54051694I55104663I56142956I56899373I57129196
273I57005670I56987928I57284480I57716384I58053965I58131278I57668857
266I55958762I51210297I41049960I26018800I12506386I08875645I17305224
259I31644506I44019922I51367698I55163360I57483568I58911568I59034727
252I57474588I54455930I51003616I48332539I46328668I43014336I36594176
245I27940978I19865038I13930736I09372671I05154303I01865961I01252344
238I04539081I11611404I21254127I31572084I40531032I46923376I50921995
231I53450271I55294625I56900833I58539237I60358623I62285108I63920811
224I64825138I65097159I65347278I65967757I66837771I67680554I68254528
217I68370243I68113188I67878692I67896506I67825324I67036494I65277338
210I62911647I60699488I58946392I56849218I53924738I50687353I48136665
203I47188243I48313632I51441507I55668124I59488608I61962421I63262442
196I63777208I63162131I60342342I53859835I42854964I29369781I19233244
189I18152170I26176055I37405640I45044927I44947684I34763329I13306604
182H83498055H54478555H37596543H38839545H55041504H77303704H97282125
175I10118647I13680106I07765441H95084421H81793508H75033140H78856544
168H91958663I09060497I24762437I36558476I44826494I50711300I54721892
161I57141314I58530257I59290251I59532485I59596803I59860794I60018122
154I59497004I58659332I58680284I60192242I62701827I65277776I67220177
147I68047483I67607183I66515522I65964472I66660293I68071356I69055259
140I69095340I68525381I67643832I66182395I63552349I58582456I49286658
133I34864515I18462081I06165291I02242235I06069727I13852546I22386014
126I30690170I38658936I45310452I48913888I48308449I43833100I37612758
119I32980008I32599427I36593008I42744213I48506149I52624134I55102254
112I56104701I55142042I51067132I42540526I28969124I11066924H89472293
105H63658492H34130650H04907607G80794337G61744774G43552522G24311025
98G06840145F94532844F87195800F82114208F77972789F76612539F81442771
91F94304262G13517506G35774010G59153422G83309911H08093522H32663372
84H55239206H73806929H87730513H98265298I07052463I14549463I20291833
77I24193281I26822086I28955470I31473599I34934601I38852256I41870403
70I42988565I42534102I41550198I40513876I38976440I36303027I32405230
63I27342912I20398568I10090686H95666572H78471802H60481847H42681931
56H26409229H14243924H08535355H10084399H17766835H28465519H38269148
49H44743186H48073872H49314028H48419118H45090550H40122190H34849614
42H30696879H29205948H30461361H32821576H36449032H44409256H57595990
35H72389952H86356830I01197882I16528221I27771458I34053709I37941724
28I40997467I43206050I44525052I45144874I44762176I43389806I42131692
21I41849888I42412473I44012184I47206713I50668883I52544338I53277611
14I53682357I54013221I55278491I58898060I64833972I70906768I74335793
7I74261692I71602368I66962392I60438126I53177518I48372402I47940425
$$ === CHEMSPECTRA INTEGRALS AND MULTIPLETS ===
##$OBSERVEDINTEGRALS= (X Y Z)

##$OBSERVEDMULTIPLETS=
(1, 8.478250826022206, 8.503090667577418, 8.491315666131197, 1.0, 1, d, A, 5.305208117753864)
(2, 7.110606513426665, 7.139873954850406, 7.121572983085111, 1.0963810612348504, 2, m, B)
(3, 6.888767826029334, 6.909551941076132, 6.900085121773637, 1.0184552723842117, 3, m, C)
(4, 2.284901565381804, 2.311220290617429, 2.3002559334439776, 6.220565223898861, 4, s, D)
(5, 2.177602177581031, 2.2180924428506, 2.199458327740408, 3.3068954412892007, 5, s, E)
(6, 7.194745077090592, 7.205010641168984, 7.200492991934361, 4.020260432966407, 6, s, F)
(7, 7.183478010495416, 7.1942443258322, 7.188880987062156, 3.3581474879693753, 7, d, G, 1.208876947122917)
##$OBSERVEDMULTIPLETSPEAKS=
(1, 8.497944980799085, 152.00537158203124)
(1, 8.484686351463308, 158.61430078125)
(2, 7.1310434326106655, 92.77440234375)
(2, 7.129465024356406, 103.4983251953125)
(2, 7.128202297752999, 97.2136076171875)
(2, 7.118731848227444, 90.43010292968751)
(2, 7.117469121624037, 97.13878955078125)
(2, 7.116837758322333, 99.18381669921875)
(2, 7.115890713369778, 92.59982685546875)
(2, 7.114943668417222, 93.04873525390626)
(3, 6.903436962346497, 105.16926201171876)
(3, 6.901227190790534, 146.21944111328125)
(3, 6.899500049580613, 167.66835116218002)
(3, 6.896176284376905, 118.93578623046875)
(4, 2.3002559334439776, 1998.4789352054242)
(5, 2.199458327740408, 891.6189718732142)
(6, 7.200492991934361, 1846.0052569634104)
(7, 7.190391582970809, 689.72281484375)
(7, 7.187370391153502, 830.0423115298034)
$$ === CHEMSPECTRA SIMULATION ===
##$CSSIMULATIONPEAKS=
##END=


$$ === CHEMSPECTRA PEAK TABLE EDIT ===
##TITLE=JMB-180-DNK
##JCAMP-DX=5.00
##DATA TYPE=INFRAREDPEAKTABLE
##DATA CLASS=PEAKTABLE
##$CSCATEGORY=EDIT_PEAK
##$CSTHRESHOLD=0.93
##MAXX=3997.453
##MAXY=0.8766386550618335
##MINX=373.96442
##MINY=0.4904420998040082
##$CSSOLVENTNAME=- - -
##$CSSOLVENTVALUE=0
##$CSSOLVENTX=0
##NPOINTS=52
##PEAKTABLE= (XY..XY)
402.29505784206367, 0.7689576780939625
430.625695684128, 0.6769914065496847
449.0406102814695, 0.6601152454632296
504.28535407349455, 0.5524090554000264
539.6986513760748, 0.7614052930456789
556.6970340813132, 0.736620668477382
576.5284805707583, 0.7886456291752306
589.2772675996871, 0.7826814691067088
613.3583097654414, 0.7144062553518817
627.5236286864733, 0.6838417683018398
640.2724157154025, 0.7496100703259129
660.1038622048472, 0.7733160892568689
677.1022449100856, 0.790208462260752
711.0990103205627, 0.7358124884323193
742.2627119468334, 0.7420364057582736
757.8445627599685, 0.7813168799227906
804.5901151993744, 0.4904420998040082
821.5884979046127, 0.6875993645148964
859.8348589913994, 0.7678386606376733
892.4150925097729, 0.7862749140428266
903.7473476465984, 0.7913661043633426
915.0796027834244, 0.7914887702114516
946.2433044096947, 0.7812237183438068
987.3227292806878, 0.7196908628199177
1019.9029627990617, 0.6973316103324126
1038.3178773964032, 0.7268955142001176
1092.146089296325, 0.6587953600884859
1104.8948763252538, 0.7306885158626976
1120.476727138389, 0.7250420487964103
1150.2238968725565, 0.788230244205242
1185.6371941751368, 0.6936434542267746
1211.1347682329942, 0.7760782278562853
1223.883555261923, 0.7841043508168115
1238.0488741829554, 0.78469407941793
1276.2952352697416, 0.7667472402621567
1307.4589368960123, 0.7485752140871367
1375.452467716966, 0.6984757216847622
1395.2839142064108, 0.6947981751307675
1443.4459985379199, 0.6515134006324808
1457.6113174589523, 0.6791073120108784
1495.8576785457385, 0.645219269220273
1515.6891250351837, 0.7836678063431727
1548.2693585535571, 0.7166003024673515
1586.5157196403438, 0.6088115603768074
1640.3439315402657, 0.8147611062677306
1647.4265910007816, 0.8145442640139587
2861.394422533229, 0.7854729331763424
2919.4722301094607, 0.7421294489544189
2973.300442009382, 0.7953629531097443
3014.379866880375, 0.7813835776305195
3032.794781477717, 0.7929070627495816
3065.3750149960906, 0.8145411052332502
##END=


$$ === CHEMSPECTRA PEAK TABLE AUTO ===
##TITLE=JMB-180-DNK
##JCAMP-DX=5.00
##DATA TYPE=INFRAREDPEAKTABLE
##DATA CLASS=PEAKTABLE
##$CSCATEGORY=AUTO_PEAK
##$CSTHRESHOLD=0.93
##MAXX=3997.453
##MAXY=0.8766386550618335
##MINX=373.96442
##MINY=0.4904420998040082
##NPOINTS=52
##PEAKTABLE= (XY..XY)
1640.3439315402657, 0.8147611062677306
1647.4265910007816, 0.8145442640139587
3065.3750149960906, 0.8145411052332502
2973.300442009382, 0.7953629531097443
3032.794781477717, 0.7929070619331482
915.0796027834244, 0.7914887693950182
903.7473476465984, 0.7913661043633426
677.1022449100856, 0.790208462260752
576.5284805707583, 0.7886456291752306
1150.2238968725565, 0.788230244205242
892.4150925097729, 0.7862749140428266
2861.394422533229, 0.7854729331763424
1238.0488741829554, 0.78469407941793
1223.883555261923, 0.7841043508168115
1515.6891250351837, 0.7836678063431727
589.2772675996871, 0.7826814691067088
3014.379866880375, 0.7813835776305195
757.8445627599685, 0.7813168791063573
946.2433044096947, 0.7812237183438068
1211.1347682329942, 0.7760782278562853
660.1038622048472, 0.7733160892568689
402.29505784206367, 0.7689576780939625
859.8348589913994, 0.7678386606376733
1276.2952352697416, 0.7667472402621567
539.6986513760748, 0.7614052930456789
640.2724157154025, 0.7496100703259129
1307.4589368960123, 0.7485752140871367
2919.4722301094607, 0.7421294489544189
742.2627119468334, 0.7420364057582736
556.6970340813132, 0.736620668477382
711.0990103205627, 0.7358124884323193
1104.8948763252538, 0.7306885158626976
1038.3178773964032, 0.7268955142001176
1120.476727138389, 0.7250420487964103
987.3227292806878, 0.7196908628199177
1548.2693585535571, 0.7166003024673515
613.3583097654414, 0.7144062553518817
1375.452467716966, 0.6984757216847622
1019.9029627990617, 0.6973316103324126
1395.2839142064108, 0.6947981751307675
1185.6371941751368, 0.6936434542267746
821.5884979046127, 0.6875993645148964
627.5236286864733, 0.6838417683018398
1457.6113174589523, 0.6791073120108784
430.625695684128, 0.6769914065496847
449.0406102814695, 0.6601152446467963
1092.146089296325, 0.6587953600884859
1443.4459985379199, 0.6515134006324808
1495.8576785457385, 0.645219269220273
1586.5157196403438, 0.6088115603768074
504.28535407349455, 0.5524090554000264
804.5901151993744, 0.4904420998040082
##END=

##END=

