##TITLE=R. Baer LL-72
##JCAMP-DX=4.24
##DATA TYPE=INFRARED SPECTRUM
##DATE=4/1/2019
##SAMPLING PROCEDURE=Diamant-ATR
##ORIGIN=Angelika Moesle
##XUNITS=1/CM
##YUNITS=TRANSMITTANCE
##RESOLUTION=4
##FIRSTX=3997.453
##LASTX=373.96442
##DELTAX=-1.4165319
##MAXY=0.98043472
##MINY=0.82660908
##XFACTOR=1
##YFACTOR=9.1310098e-010
##NPOINTS=2559
##FIRSTY=0.96040481
##XYDATA=(X++(Y..Y))
3997+1051805692+1051789047+1051385960+1050593038+1049850250+1049422619
3989+1049267912+1049404929+1049903646+1050506220+1050773530+1050646892
3980+1050394139+1050118865+1049845093+1049781839+1049970947+1050048757
3972+1049844309+1049767152+1050221154+1051007222+1051561295+1051546999
3963+1051078570+1050491859+1050048496+1049862326+1049885760+1049890069
3955+1049725374+1049617863+1049879298+1050437091+1050999976+1051466251
3946+1051857914+1052163999+1052451936+1052750318+1052778583+1052220268
3938+1051245157+1050467837+1050425603+1051120413+1051881088+1051805823
3929+1050767851+1049711144+1049656246+1050634228+1051672788+1051955895
3921+1051655294+1051383806+1051402214+1051502872+1051473693+1051492166
3912+1051894208+1052644243+1053252691+1053335136+1053034861+1052714416
3904+1052372429+1051617498+1050488464+1049830079+1050247526+1051180337
3895+1051729449+1051781540+1051804322+1051853867+1051420883+1050609162
3887+1050383433+1051264022+1052208844+1051968167+1050946384+1050340612
3878+1050382911+1050456479+1050340024+1050213060+1050238388+1050708840
3870+1051757453+1052512840+1052004070+1050681032+1049813955+1050042295
3861+1050885611+1051596087+1051619652+1050589709+1048834929+1047924965
3853+1049266933+1051066428+1051344183+1050648459+1049867287+1049259818
3844+1048770565+1048398681+1048285034+1048596536+1049300551+1050025127
3836+1050457784+1050700550+1050902779+1050963095+1050708905+1050227225
3827+1049918007+1050067884+1050454651+1050750291+1050986856+1051127854
3819+1050912374+1050654921+1050986333+1051690217+1051973912+1051738979
3810+1051294311+1050792003+1050488334+1050717979+1051291635+1051765873
3802+1051981419+1051912943+1051781801+1052031682+1052559187+1052583078
3793+1051794204+1050899711+1050606943+1050790371+1050879540+1050736387
3785+1050756362+1051117345+1051475586+1051660385+1052081423+1052982248
3776+1053793252+1053870344+1053229975+1052291942+1051359654+1050536443
3768+1050065338+1050317830+1051168848+1051825602+1051765221+1051398624
3759+1051431524+1051810719+1051750533+1050848925+1049626610+1049379405
3751+1051006308+1052895821+1052917363+1051879456+1051848123+1053184411
3742+1053942736+1053217507+1051779712+1050385849+1049668387+1050187733
3734+1051540341+1052473282+1052493387+1052047871+1051648244+1051589886
3725+1051967645+1052599332+1053116850+1053156995+1052572830+1051695700
3717+1051104681+1050968839+1050947167+1050782995+1050743502+1051241698
3708+1052224772+1053241268+1053766031+1053595723+1053151577+1053048504
3700+1053178471+1053005095+1052636279+1052626814+1053057251+1053465887
3691+1053585605+1053596637+1053598269+1053409944+1053067369+1052805934
3683+1052707758+1052627793+1052329868+1051829388+1051686692+1052601225
3674+1054131061+1055070987+1055323022+1055384839+1055260813+1054698776
3666+1053870540+1053139501+1052772904+1052849801+1053126576+1053177949
3657+1052848430+1052428371+1052217004+1052160735+1052279996+1052923956
3649+1053928571+1054048877+1052925587+1051623700+1050954021+1050969231
3640+1051403781+1052048785+1052743138+1053267770+1053356678+1052815530
3632+1051857784+1051409395+1052563103+1054580559+1055305201+1054543025
3623+1053547091+1053149162+1053292641+1053451983+1053294665+1052926828
3615+1052626096+1052595024+1052849409+1053340750+1054174079+1055200627
3606+1055630216+1054915366+1053554272+1052511077+1052276210+1052570219
3598+1052934269+1053347409+1053959969+1054508493+1054487409+1053848998
3589+1053075594+1052686281+1052778322+1053062865+1053361704+1053654538
3581+1053805328+1053605449+1053107058+1052627662+1052345469+1052170070
3572+1052013600+1051940033+1052124702+1052746271+1053520589+1053595723
3564+1052839617+1052197225+1052286198+1052625965+1052518845+1052114976
3555+1051980244+1052162236+1052260609+1052087037+1051868424+1051901389
3547+1052213936+1052550113+1052718920+1052785894+1052768204+1052524786
3538+1052159429+1052133123+1052671333+1053402437+1053860356+1053979944
3530+1053941953+1053883530+1053855657+1053870083+1053913035+1053918192
3521+1053756174+1053385791+1053032773+1053009077+1053291923+1053520458
3513+1053491345+1053417843+1053563737+1053842340+1054014345+1054063956
3504+1054034777+1053811790+1053412229+1053125858+1053078858+1053088389
3496+1053053727+1053045632+1053063583+1053112280+1053333961+1053722426
3488+1053962646+1053817208+1053471174+1053332656+1053578424+1053935164
3479+1054006186+1053762114+1053489452+1053385857+1053457205+1053622552
3471+1053719749+1053630385+1053487820+1053511450+1053677515+1053776867
3462+1053684565+1053445651+1053254845+1053337747+1053624118+1053669682
3454+1053181996+1052440121+1051933766+1051814244+1051943036+1052186846
3445+1052432157+1052559774+1052585885+1052604750+1052563038+1052347819
3437+1052085862+1052025611+1052162628+1052274905+1052363355+1052753190
3428+1053603687+1054498310+1054780112+1054297713+1053616089+1053442387
3420+1053936861+1054620966+1054954663+1054922547+1054892584+1054944871
3411+1054745711+1054210568+1053759242+1053660804+1053688678+1053647683
3403+1053670661+1053799453+1053841948+1053783852+1053857550+1054095224
3394+1054191181+1053889144+1053272666+1052652729+1052285414+1052253102
3386+1052539669+1053040279+1053439515+1053356156+1052811352+1052319293
3377+1052306629+1052617740+1052743203+1052418123+1051919144+1051789830
3369+1052265635+1053027093+1053583451+1053794361+1053859181+1053916887
3360+1053908923+1053818383+1053811921+1054028445+1054373109+1054655106
3352+1054812554+1054857922+1054751259+1054492174+1054195163+1053929289
3343+1053602381+1053106079+1052511339+1052027243+1051771487+1051642630
3335+1051450258+1051084184+1050518100+1049812519+1049146301+1048561874
3326+1047590224+1045478181+1041949232+1037488386+1032837780+1028520805
3318+1024883365+1022233243+1020756804+1020467496+1021286006+1023004689
3309+1025184358+1027340463+1029312682+1031246127+1033203071+1035036249
3301+1036602967+1037809354+1038529557+1038814100+1039047597+1039571707
3292+1040302746+1040916417+1041163752+1040922683+1040335123+1039922441
3284+1040107567+1040617578+1040796502+1040451839+1040008738+1039935170
3275+1040309926+1040835538+1041123933+1041072494+1040961131+1041072886
3267+1041403384+1041920184+1042828581+1044221726+1045648163+1046405508
3258+1046288270+1045791707+1045537844+1045708348+1046100468+1046475159
3250+1046739205+1046986083+1047438585+1048115901+1048584264+1048396788
3241+1047725413+1047169382+1047079887+1047418871+1047988936+1048454820
3233+1048497968+1048270607+1048305661+1048823505+1049544883+1050144911
3224+1050430041+1050262018+1049752530+1049317196+1049267912+1049579023
3216+1050051042+1050426908+1050514967+1050409087+1050376384+1050499366
3207+1050678356+1050871380+1051114016+1051445297+1051854389+1052149834
3199+1052087494+1051793355+1051703468+1051937879+1052192003+1052336461
3190+1052587256+1052956594+1053045632+1052619111+1051983703+1051599351
3182+1051643218+1052029724+1052545935+1052982117+1053366992+1053868320
3173+1054335770+1054351306+1053840055+1053184868+1052730670+1052540191
3165+1052512970+1052482290+1052359177+1052238872+1052225163+1052297621
3156+1052480985+1052893602+1053503421+1054053120+1054275519+1054095093
3148+1053666940+1053289508+1053207193+1053457857+1053924720+1054486364
3139+1055020789+1055334641+1055338688+1055275370+1055421786+1055593922
3131+1055402791+1054941999+1054620705+1054418150+1053969174+1053382789
3122+1053311180+1054029163+1054936973+1055214988+1054701061+1053879026
3114+1053228343+1052880807+1052795555+1052942494+1053281217+1053699579
3105+1054043459+1054239095+1054358878+1054506209+1054708176+1054954010
3097+1055189726+1055286597+1055221646+1055222626+1055481058+1055812927
3088+1055848634+1055505472+1055031168+1054607845+1054175906+1053671705
3080+1053125140+1052444821+1051427999+1050051042+1048486087+1046868323
3071+1045321777+1044121460+1043603160+1043928631+1044972936+1046389842
3063+1047822610+1048997077+1049576542+1049224503+1047974837+1046231479
3054+1044325647+1042415115+1040751657+1039604803+1038895631+1038194555
3046+1037174534+1036022326+1035338874+1035548610+1036448195+1037478986
3037+1038331767+1039080757+1039832424+1040491462+1040900815+1041107613
3029+1041406909+1042088142+1043174680+1044470628+1045779435+1046954293
3020+1047805377+1048157939+1048046576+1047705177+1047292560+1046695208
3012+1045619506+1043840899+1041405408+1038692424+1036276320+1034586098
3003+1033551455+1032627914+1031305202+1029554338+1027724685+1026251967
2995+1025652330+1026425147+1028567217+1031322827+1033642647+1034902823
2986+1035297423+1035599853+1036349365+1037327413+1038055906+1038436211
2978+1038433991+1037564761+1035195656+1030917326+1024349529+1015339191
2969+1004741704+994438552+986349601+981683067+980769905+982964523+986876715
2959+991217972+995418362+999380099+1003003438+1006118400+1008671194+1010864441
2949+1013071005+1015489590+1017916790+1020000960+1021650644+1023037131
2941+1024249655+1025084027+1025236254+1024678526+1023769802+1023010825
2932+1022751152+1022986019+1023282508+1023057367+1022022594+1020215004
2924+1017762932+1015031017+1012774973+1011616826+1011507225+1012056729
2915+1013119963+1014729176+1016766346+1019039362+1021491368+1024111071
2907+1026748595+1029164438+1031219559+1032939090+1034400385+1035607490
2898+1036495521+1037033665+1037276888+1037300388+1037071135+1036366990
2890+1034871164+1032473794+1029549508+1026864984+1025089772+1024247631
2881+1023620774+1022447352+1020915885+1020222184+1021378569+1024194365
2873+1027628466+1030814057+1033477496+1035665391+1037429245+1038801698
2864+1039871525+1040677372+1041081829+1040987242+1040645451+1040501776
2856+1040759033+1041283797+1041831015+1042204400+1042352710+1042426277
2847+1042644956+1043092105+1043675095+1044203579+1044461228+1044351171
2839+1044063429+1043995279+1044401826+1045177775+1046013323+1046654867
2830+1046992219+1047063110+1047026947+1047032038+1047104888+1047202999
2822+1047268995+1047284531+1047408100+1047870589+1048565660+1049044664
2813+1049100346+1049003735+1049022535+1049078021+1049007848+1048845830
2805+1048701502+1048564485+1048362191+1048103955+1047869675+1047733899
2796+1047773000+1048012436+1048315714+1048526559+1048736360+1049139055
2788+1049637577+1049890069+1049738821+1049380189+1049149695+1049231422
2779+1049490050+1049604220+1049464462+1049345135+1049532219+1049909782
2771+1050109531+1049995491+1049802989+1049819178+1050089490+1050440812
2762+1050674243+1050714846+1050626330+1050484483+1050293090+1050073628
2754+1049951756+1050061291+1050410328+1050841679+1051098218+1051035487
2745+1050817657+1050754077+1050931892+1051189541+1051388375+1051499804
2737+1051498433+1051375320+1051203315+1051076481+1051037380+1051118520
2728+1051363570+1051731276+1052034162+1052070065+1051844598+1051576700
2720+1051440597+1051393532+1051307301+1051150244+1050982874+1050906042
2711+1051057159+1051496866+1052052310+1052417274+1052467929+1052382873
2703+1052423019+1052645483+1052849278+1052811222+1052538820+1052201794
2694+1051876779+1051563579+1051385177+1051461421+1051617759+1051574611
2686+1051409395+1051467491+1051812677+1052126334+1052171114+1052018104
2677+1051791723+1051522912+1051294507+1051220678+1051245680+1051205273
2669+1051085751+1051018450+1051064470+1051177595+1051315200+1051477152
2660+1051697071+1052009749+1052352976+1052565910+1052594828+1052598679
2652+1052716178+1052816052+1052648812+1052215437+1051832456+1051793877
2643+1052070065+1052384309+1052520020+1052496129+1052485097+1052634778
2635+1052973762+1053424958+1053823410+1053969892+1053781763+1053376065
2626+1052917363+1052489275+1052224445+1052345600+1052826497+1053212285
2618+1053101509+1052707627+1052642219+1053146746+1053764268+1053870148
2609+1053386379+1052812593+1052598484+1052729103+1052958814+1053208042
2601+1053596245+1054203845+1054871957+1055262249+1055205523+1054935210
2592+1054797149+1054813599+1054724430+1054345823+1053751801+1053266334
2584+1053310527+1054015129+1054986518+1055658677+1055809859+1055587133
2575+1055220863+1054882597+1054639896+1054424612+1054201952+1054178126
2567+1054613851+1055406446+1056087679+1056223064+1055696930+1054766404
2558+1053976289+1053760287+1053988039+1054183087+1054183805+1054185306
2550+1054232240+1054213767+1054263574+1054591918+1054982145+1054979729
2541+1054574619+1054298888+1054599816+1055344106+1055950466+1055952685
2533+1055451292+1054924178+1054564305+1054097639+1053383572+1052758478
2524+1052606447+1052998502+1053828828+1054850742+1055603910+1055759204
2516+1055464282+1055073272+1054768623+1054637938+1054812946+1055324001
2507+1056027297+1056760490+1057418419+1057839718+1057804664+1057303335
2499+1056680395+1056289516+1056089833+1055816126+1055426813+1055167401
2490+1055297694+1055867368+1056629544+1057181463+1057332906+1057278726
2482+1057333167+1057616666+1058020470+1058323291+1058278837+1057679723
2473+1056519161+1055196711+1054398306+1054555036+1055485432+1056637704
2465+1057486634+1057686186+1057206268+1056472226+1056090877+1056301527
2456+1056832818+1057322657+1057704986+1058090317+1058417747+1058458480
2448+1058181574+1057853361+1057683379+1057619799+1057608898+1057757338
2439+1058039335+1058130201+1057798528+1057285188+1057092098+1057515813
2431+1058452083+1059450432+1059923300+1059574328+1058706076+1057945010
2422+1057638468+1057691669+1057950297+1058412003+1058925081+1059038272
2414+1058495101+1057652568+1057070035+1056911672+1057049799+1057412087
2405+1057838216+1057946054+1057521296+1056769238+1055978405+1055280396
2397+1054857596+1054941216+1055451226+1055996486+1056300613+1056348657
2388+1056166599+1055756071+1055222952+1054767905+1054561890+1054644727
2380+1054851460+1054901919+1054690486+1054388579+1054177277+1054128841
2371+1054431793+1055352462+1056786667+1058134053+1058680227+1058051346
2363+1056573537+1055193904+1054652364+1054866147+1055455469+1056244670
2354+1056854163+1056764668+1056168492+1055800198+1055930230+1056191535
2346+1056174497+1055887082+1055498161+1054904334+1054114676+1053665700
2337+1054084910+1055194295+1056267844+1056733857+1056524448+1055888779
2329+1055123013+1054454575+1053997504+1053785222+1053873347+1054318276
2320+1054968763+1055430860+1055436017+1055205523+1055237248+1055631326
2312+1055840343+1055367215+1054483492+1053882877+1053870279+1054221274
2303+1054579058+1054730697+1054712811+1054772931+1055037043+1055272302
2295+1055247496+1055171448+1055377006+1055634982+1055294365+1054278979
2286+1053461970+1053648663+1054543286+1055180652+1055133196+1054881422
2278+1055112960+1055959344+1056951100+1057653351+1058185165+1058900472
2269+1059775643+1060471693+1060736000+1060368816+1059214455+1057673196
2261+1056747957+1056994379+1057713145+1057690625+1056649389+1055622775
2252+1055813710+1057299810+1059034094+1060047914+1060262349+1060022260
2244+1059548413+1059253425+1059693067+1060638737+1061155733+1061139479
2235+1061659476+1063180500+1064464436+1064020095+1062028945+1060060316
2227+1059101787+1058702029+1058170804+1057706552+1057809821+1058329558
2218+1058642888+1058342874+1057563857+1056914414+1056935890+1057403993
2210+1057451449+1056503037+1054909230+1053722491+1053823867+1055064459
2201+1056470986+1057500733+1058562336+1060018213+1061334005+1061739572
2193+1061374019+1061324800+1062382486+1063938172+1064488393+1063192772
2184+1060565301+1057928756+1056701088+1057752508+1060784436+1064330749
2176+1066602655+1066748876+1065549212+1064576321+1064693755+1065854252
2167+1067809891+1069853719+1070475092+1069093762+1067754275+1069084950
2159+1072372504+1073741823+1071059062+1066137229+1062122292+1060563799
2150+1060752059+1061423956+1062473483+1064361364+1066492533+1067292178
2142+1065757577+1062460493+1059269941+1058062378+1059183122+1061170028
2133+1062353764+1062389340+1061888338+1061348104+1061001548+1061037320
2125+1061321406+1061346016+1060893057+1060321882+1059971801+1059813047
2116+1059837721+1060184147+1060690372+1060849778+1060436770+1059851168
2108+1059637451+1059823883+1059921994+1059513816+1058606463+1057508110
2099+1056682811+1056637378+1057477625+1058645826+1059404673+1059439400
2091+1058967707+1058546408+1058576632+1058779970+1058618605+1058305862
2082+1058621281+1059603964+1060304910+1060092106+1059492079+1059343051
2074+1059591496+1059512249+1058887482+1058215584+1057808124+1057578479
2065+1057638272+1058129418+1058724419+1059244548+1060159211+1061573376
2057+1062417997+1061468410+1058675135+1055132935+1052258259+1051276947
2048+1052952873+1057066379+1061985536+1065243519+1065152653+1062134433
2040+1058473755+1056620667+1057482456+1059909918+1061858311+1062145400
2031+1060796839+1058209839+1055070530+1052816770+1053135388+1056613878
2023+1061889709+1066403625+1068387006+1067867792+1065832515+1063350481
2014+1061557057+1061351107+1062780416+1065148672+1067342572+1068071391
2006+1066993143+1065567882+1065422118+1066290173+1066659381+1065906735
1997+1064755507+1063882817+1063140420+1062427985+1062607236+1064436106
1989+1066521385+1066068166+1062459709+1058625394+1057776856+1060167045
1980+1063908471+1067172394+1068649878+1067811588+1065685903+1063862581
1972+1062647251+1061352935+1059844249+1058808170+1058658424+1058822009
1963+1058532896+1058077327+1058603787+1060425934+1062194423+1062494763
1955+1061680822+1061249275+1061681344+1061897085+1060940579+1059138081
1946+1057282251+1055832314+1055433928+1056940917+1059998499+1062777478
1938+1063754808+1062969850+1061611041+1060784632+1060742724+1061094111
1929+1061414948+1061560190+1061581209+1061578598+1061715550+1062248929
1921+1063303417+1064566660+1065336343+1065150826+1064306204+1063363145
1912+1062440126+1061279694+1059808804+1058396597+1057452037+1057048036
1904+1057151044+1057861520+1059067320+1060137148+1060385854+1059777275
1895+1058996951+1058876841+1059733343+1061175120+1062391429+1062725714
1887+1062220142+1061518021+1061261482+1061536886+1061882072+1061979073
1878+1062054012+1062330983+1062534909+1062371911+1062103492+1062189788
1870+1062611152+1062847978+1062575185+1062023593+1061566587+1061434597
1861+1061689047+1062136783+1062385424+1062182673+1061648118+1061084842
1853+1060684170+1060486315+1060481224+1060611909+1060786394+1061015256
1844+1061455420+1062104993+1062620487+1062711353+1062414276+1061925677
1836+1061310570+1060543629+1059810958+1059405325+1059229403+1058790676
1827+1057971839+1057204114+1056772306+1056537504+1056421245+1056697237
1819+1057558504+1058664756+1059399255+1059523542+1059314982+1059193697
1810+1059418968+1059977284+1060593174+1060917406+1060841684+1060605772
1802+1060520325+1060636649+1060783326+1060813158+1060666219+1060367968
1793+1060102942+1060141587+1060507400+1060931506+1061175512+1061136867
1785+1060861594+1060523393+1060229972+1059947256+1059663497+1059416031
1776+1059173265+1058946166+1059000411+1059640911+1060627314+1061382832
1768+1061685392+1061665678+1061543218+1061443540+1061312398+1061058665
1759+1060827584+1060854935+1061054161+1061048547+1060687108+1060219658
1751+1059963967+1059928914+1059862918+1059680730+1059509181+1059457482
1742+1059540841+1059700248+1059785108+1059674006+1059498345+1059587514
1734+1060048240+1060414445+1060384483+1060214828+1060115606+1060039689
1725+1059905936+1059751817+1059660885+1059696723+1059958354+1060527048
1717+1061096135+1061037842+1060308957+1059411070+1058735908+1058386610
1708+1058355930+1058644977+1059066667+1059275750+1059291547+1059519169
1700+1060010118+1060127748+1059666630+1059124895+1058817374+1058649677
1691+1058544776+1058494905+1058389352+1058209839+1058326294+1059103484
1683+1059895753+1059930741+1059519234+1059182796+1059157403+1059431045
1674+1059749401+1059830802+1059735301+1059755929+1059957440+1060109470
1666+1060239568+1060626204+1061246990+1061577162+1061279106+1060595720
1657+1059822838+1059110011+1058867572+1059797576+1061182431+1061736569
1649+1061679060+1061573963+1061556077+1061347386+1060881112+1060354521
1640+1059879825+1059416553+1058968164+1058793221+1059128485+1059676552
1632+1060096676+1060359678+1060478482+1060375018+1060050917+1059745224
1623+1059739414+1059983485+1060155556+1060147527+1060174421+1060480440
1615+1060913228+1061133408+1061091173+1060961207+1060779867+1060028657
1606+1057864654+1054195359+1050368224+1048370612+1049066140+1051508877
1598+1054141832+1056095381+1057362933+1058326424+1059254274+1060061296
1589+1060498587+1060512752+1060289700+1060040015+1059936943+1060129249
1581+1060603488+1061164871+1061644854+1062021699+1062348151+1062649339
1572+1062926898+1063177236+1063365365+1063456492+1063465435+1063387037
1564+1063158371+1062800717+1062583475+1062968284+1063721060+1063781050
1555+1063263467+1062783680+1062594898+1062673949+1062856203+1062915866
1547+1062721928+1062357420+1062045787+1062036778+1062611936+1063765057
1538+1064734749+1065107939+1065206246+1065368199+1065633289+1065803858
1530+1065792892+1065662990+1065488113+1065358277+1065367024+1065505672
1521+1065664035+1065830687+1066176069+1066737714+1067232645+1067372991
1513+1067201247+1066911220+1066590840+1066222611+1065733816+1064977711
1504+1063823610+1062006816+1058806212+1052887923+1042612644+1028059948
1496+1013646489+1004709653+1002263718+1004773494+1010512728+1017157878
1487+1022478555+1026041643+1028594633+1030929598+1033454780+1036064691
1479+1038469176+1040570905+1042397817+1044040190+1045676036+1047203717
1470+1048206701+1048633875+1048841130+1049256423+1050022385+1050522147
1462+1049643843+1046217249+1038864494+1027982073+1019611255+1018336980
1453+1021111912+1024653981+1028105251+1031750654+1035837135+1040010892
1445+1043757540+1046906706+1049379993+1051070476+1052146766+1053031402
1436+1053894627+1054456011+1054612676+1054631476+1054725671+1054850546
1428+1054854462+1054745645+1054641985+1054528534+1054194967+1053346625
1419+1051626507+1048832513+1045375239+1042068885+1039728307+1038955164
1411+1039789863+1041730619+1044213566+1046849785+1049253029+1051008723
1402+1052035925+1052650705+1053170834+1053654929+1054021395+1054300651
1394+1054606213+1054933448+1055194752+1055434581+1055862929+1056570012
1385+1057243672+1057501517+1057369265+1057214297+1057362150+1057831493
1377+1058407433+1058872011+1059128420+1059197809+1059153812+1059079070
1368+1059071563+1059206295+1059464989+1059778580+1060126246+1060519868
1360+1060894102+1061133604+1061219247+1061243596+1061268270+1061245423
1351+1061129883+1060967865+1060813093+1060618632+1060290680+1059848035
1343+1059479219+1059395273+1059622046+1059983420+1060342379+1060736066
1334+1061192418+1061601380+1061849825+1061979400+1062122944+1062322954
1326+1062504750+1062611740+1062689877+1062819713+1063006079+1063161896
1317+1063203347+1063149101+1063095378+1063122795+1063269864+1063543702
1309+1063898810+1064248238+1064539701+1064778485+1064959368+1065038027
1300+1064981823+1064843631+1064783511+1064932865+1065177067+1065216364
1292+1064942918+1064597928+1064443482+1064454123+1064455754+1064406013
1283+1064372657+1064332968+1064167295+1063855270+1063535803+1063296301
1275+1063023182+1062567221+1061923784+1061121397+1060061230+1058619388
1266+1056792346+1054640223+1052219876+1049679223+1047336556+1045611607
1258+1044856481+1045133387+1046104972+1047269060+1048332555+1049243759
1249+1049941050+1050318026+1050392768+1050254054+1049838630+1048962350
1241+1047558172+1045653319+1043027545+1039068420+1033152220+1025170585
1232+1015594555+1005062476+994119086+983527670+974679741+969178312+967551018
1222+968347138+968757797+966294106+960090947+951032566+940974464+931866406
1213+925314015+922415448+923449960+927543556+932986301+938397583+943767413
1203+950165358+958284663+967289648+975076170+979771556+981373719+982060826
1193+984527846+989714248+996151229+1001441617+1004267466+1005175340+1005684306
1183+1006741470+1008046361+1008681116+1008106285+1006595119+1005035582
1174+1004410749+1005292774+1007623104+1010815875+1014080908+1016866220
1166+1019112342+1021040368+1022710419+1023830379+1024016289+1023301177
1157+1022283050+1021461928+1020448239+1018176789+1013985343+1008318958
1149+1002476717+997853266+995196094+994156359+993425907+991571579+988126968
1139+984136575+981684438+982680829+987663370+995389706+1003590607+1010328189
1129+1014836230+1017316240+1018288283+1018276990+1017925733+1018047867
1120+1019265221+1021544243+1024217930+1026496299+1027931287+1028514473
1112+1028444692+1027776972+1026354321+1024154024+1021510429+1018789677
1103+1015975643+1012759503+1008971664+1004817360+1000713385+996949830+993578134
1094+990642293+988384421+987067977+986675139+986941143+987625117+988545982
1084+989348304+989437407+988363598+986421276+984810170+984859520+986867902
1074+989930576+993032351+995982553+999174672+1002874255+1006948203+1010957853
1064+1014360229+1016838346+1018547825+1019991560+1021623163+1023516919
1055+1025337238+1026664649+1027399278+1027804910+1028156819+1028475503
1047+1028651882+1028638957+1028404024+1027860135+1026983005+1025908543
1038+1024766128+1023215207+1020035687+1013774758+1004677406+995712697+990554234
1028+990369369+993257623+996599618+999131589+1000984089+1002668893+1004327586
1018+1005700626+1006613788+1007245671+1007808556+1008257663+1008529216
1010+1008768196+1009027933+1008982957+1008332470+1007411540+1006982669
1001+1007324656+1007861496+1007827356+1006993636+1005573923+1003738068
993+1001539206+999184985+997053164+995375932+994058051+992856886+991613356
983+990208918+988401067+985967469+983157287+980736679+979253778+978369990
973+977245656+975490484+973398089+971337224+969297508+967116664+964875568
963+962860266+961204445+959791847+958530562+957526926+956962148+956936624
953+957392324+958107958+958942526+960188798+962461684+966091094+970674008
943+975148888+978304125+979585451+979652164+979797602+980544699+981165419
933+980833746+979789442+978987447+979038298+979925610+981383902+983125562
924+984925906+986730037+988571767+990445221+992420770+994666761+997146836
914+999563593+1001751749+1003809677+1005748343+1007325831+1008284688+1008432018
904+1007477078+1005169857+1001818723+998524772+996696098+997129995+999368545
894+1001934590+1003429437+1003558947+1003091693+1002925302+1003307891
885+1003688849+1002860155+999276112+991918070+981542003+971077029+964162154
875+962805890+966401487+972820125+980027834+986758236+992430626+997019611
866+1000897467+1004458466+1007764167+1010612276+1012933009+1014918610
857+1016684684+1018093169+1019087471+1019949848+1020996045+1022194468
849+1023312666+1024354033+1025608138+1027216045+1028941582+1030544201
840+1032109482+1033725288+1035108772+1035924150+1036258173+1036411900
832+1036352041+1035632099+1033767327+1030624623+1026740109+1023386364
823+1021915931+1022721125+1025076912+1028036710+1030966283+1033245044
815+1034326491+1034357432+1034090514+1034105789+1034620303+1035791115
806+1037560844+1039491090+1041266759+1043068278+1045111258+1047182045
798+1048874617+1049997319+1050582855+1050733123+1050593365+1050336434
789+1049967879+1049058503+1046628365+1041314607+1032006736+1019028265
781+1005005359+994008310+989066045+990238554+994955612+999722608+1001269351
771+997023397+986249466+971624835+958899835+953627725+957603822+968356995
761+981642334+994151985+1004449524+1012418821+1018476346+1023142293+1026825622
751+1029725952+1031963653+1033767718+1035400757+1036968780+1038502598
742+1040149475+1042032330+1043945865+1045436403+1046276586+1046754415
734+1047410320+1048497184+1049773941+1050839590+1051538513+1051978155
725+1052344555+1052852151+1053653297+1054600273+1055299392+1055589875
717+1055701303+1055761489+1055394370+1053839011+1050050259+1042507743
708+1029633715+1011393252+990381641+970127638+952140189+936251269+923996656
698+918984676+922598811+931288508+939617091+945003044+948653017+952992513
688+959227918+966802158+974237227+980382550+985153071+989271473+993402603
679+997586152+1001505589+1005089109+1008476602+1011548285+1014129083+1016596299
669+1019663542+1023093661+1025934393+1028199315+1030072052+1031347567
660+1032303290+1033856952+1036231605+1038613308+1040562027+1042567341
652+1044808959+1046547943+1047371741+1048142207+1049924209+1052550113
643+1054897806+1056196039+1056605979+1056797241+1057247784+1057755576
635+1057519664+1055764100+1052125028+1046324565+1037680432+1025234165
626+1008822376+990184439+972399806+957979231+948033145+943008435+943086311
616+947605710+954992866+963548483+971907681+979201164+985318549+990619054
606+995250926+999072709+1002022975+1004304739+1006435777+1008973688+1011885507
596+1014599862+1016958261+1019478481+1022348523+1024814302+1026151440
588+1026708711+1027396602+1028496783+1029401263+1029456749+1028876892
579+1028792227+1030296670+1033315413+1036519804+1038483471+1038785509
571+1038072029+1037489235+1037948851+1039580062+1041889503+1044248947
562+1046000137+1046592527+1046088979+1045134758+1044010358+1041914439
554+1037278781+1028650641+1015704939+1000278835+986452805+978595914+978437487
544+983999885+991664664+999006256+1005438930+1010928086+1015047206+1017381257
534+1018196438+1018083247+1017027650+1014438692+1010106051+1004343644+996919737
524+986908766+974456036+961954219+953013075+950179654+952967642+958155741
514+962683691+965928750+968908261+971985426+973878072+972616918+967153610
504+958332707+948600795+940291469+933452903+926189055+917647538+909673018
494+905276732+906033033+911211275+918899032+927489442+936078154+943981000
484+950621907+955924306+960151459+963057860+963777475+962109252+959535830
475+958244909+959320285+962035619+964729739+966383470+967227374+968036876
465+969014728+969611426+969525130+969143389+968633444+967345134+964815513
455+961602636+958433364+955496349+952565730+949535238+947139631+946696660
445+948490477+951107177+953271246+955437142+958426510+961667130+963735567
435+964056274+963499395+963381635+964439647+966427402+968358170+969334064
425+968837827+966338560+961820466+957513217+957986085+964183042+969802623
415+970591237+967238340+961200006+954258106+950078605+952239932+959896878
405+967729616+971022458+969382108+966068051+965992982+972701582+982894481
395+988489452+986020082+977448407+966288819+956317666+951300985+953430261
385+961523063+971193223+978585601+982287142+980899154+974007582+966167077
375+966944397+979861639
##END=
