##TITLE=JPK-483,X16001
##JCAMP-DX=5.0
##DATA TYPE=LINK
##BLOCKS=1


$$ === CHEMSPECTRA SPECTRUM ORIG ===
##TITLE=JPK-483,X16001
##JCAMP-DX=5.00
##DATA TYPE=INFRARED SPECTRUM
##DATA CLASS=XYDATA
##$CSCATEGORY=SPECTRUM
##ORIGIN=Angelika Moesle
##OWNER=
##XUNITS=1/CM
##YUNITS=TRANSMITTANCE
##XFACTOR=1.0
##YFACTOR=8.8704827e-10
##FIRSTX=3997.453
##LASTX=373.96442
##MAXX=3997.453
##MAXY=0.9524608265187962
##MINX=373.96442
##MINY=0.3248991077595211
##NPOINTS=2559
##XYDATA= (X++(Y..Y))
2559A034709221A034487077A034568584A034724071A034855168A034913761A034844887
2552A034647335A034385681A034119052A033924862A033909608A034010736A033965111
2545A033750963A033781603A034270241A034762171A034773258A034485867A034374929
2538A034559580A034826072A035008371A035114941A035172930A035087190A034759617
2531A034286838A033893885A033769710A034057167A034762641A035572199A035982487
2524A035732793A035018786A034302494A034038017A034359609A034929149A035326066
2517A035363224A034950785A034186516A033641436A034017119A035107818A035690259
2510A035077581A033971226A033615096A034413566A035500368A035948621A035844269
2503A036009029A036890821A037777182A037655022A036495718A035134629A034254853
2496A033871778A033837912A034390653A035746837A037300908A038112146A038002686
2489A037271678A036087042A034733277A033895430A034358736A036067891A037735790
2482A038540106A038909675A039274003A039299067A038829983A038543601A038733223
2475A038598297A037735454A036763555A036139722A035614061A035184756A035519854
2468A036544098A037255619A037425419A037583796A037877301A037894033A037494495
2461A036919177A036370602A036053646A036595166A038491727A040237503A040490759
2454A039745842A038788255A038202119A038240218A038552403A038424062A037597773
2447A036589051A036073536A036120572A036389887A036706574A036942695A036822887
2440A036303744A035808454A035646650A035640670A035907969A037148377A038877422
2433A039212453A038330594A038156897A039178923A039955085A039721719A038972301
2426A038520419A038969075A039947156A040305034A039890377A039594520A039689130
2419A039391459A038600581A038015116A037884760A037830265A037689224A037668192
2412A037839740A038116177A038533253A038982514A038938099A038164356A037321268
2405A037331280A038227182A039101314A039245983A038642175A037722687A036942829
2398A036385385A035975298A035974357A036593150A037415138A037895175A038023046
2391A038045354A037982931A037783431A037659793A037955180A038904770A040183345
2384A040556005A039504480A038086948A037658785A038455576A038765073A037577480
2377A035659887A034128125A034025116A035929404A038753381A040300397A039862760
2370A038427825A037259919A037129428A037929511A038841540A039362498A039609303
2363A039632149A039400933A039163737A039202441A039572951A040196784A040747912
2356A040745224A040358453A040062529A039839174A039546476A039427878A039667897
2349A039708281A039002605A037844040A036792650A036052168A035631867A035754094
2342A036808037A038604882A040003734A040199135A039384538A038262392A037524464
2335A037360106A037536559A038169933A039612730A040817928A040428537A039431373
2328A039548358A040754833A041408029A041081532A040488609A040060043A039730455
2321A039327423A038953553A039024847A039660102A040079462A039549097A038391876
2314A037811384A039029617A041182659A042228204A042002565A041443373A041218339
2307A041221632A040789975A039568718A038005575A036827658A036190185A035768742
2300A035873229A037590785A040383114A041872611A041683862A040786683A039694707
2293A038599775A037823411A037526547A037528697A037819649A038444153A039046080
2286A039331253A039647536A040442984A041486512A042122910A042001154A041216256
2279A040169099A039230529A038396781A037631437A037393905A038151118A039429625
2272A040300128A040542633A040721773A041258992A041805820A042056455A042113906
2265A042007537A041623186A041046658A040648666A040675006A040856968A040619302
2258A039782799A038952075A039174892A040743477A042184057A042124993A041008895
2251A039980754A039767277A040329761A041050690A041284660A040892312A040337018
2244A040073079A039921824A039445752A038667641A038113758A038186597A038716089
2237A039280992A039681336A039986331A040263575A040389430A040227962A039901733
2230A039698940A039775206A040010857A040153914A040114269A040031889A040037264
2223A040048754A039909729A039649889A039481768A039560453A039831851A040107617
2216A040203234A040090280A039970339A040031956A040170645A040217009A040320824
2209A040724730A041217735A041324305A040962060A040502451A040227357A040081747
2202A039987473A039960595A039846567A039408661A038753113A038266693A038207158
2195A038672278A039648881A040741663A041224051A040687706A039503674A038535201
2188A038394765A038936620A039428752A039302023A038769777A038562684A039060661
2181A039896694A040460118A040567898A040464822A040366584A040301136A040287160
2174A040370884A040475103A040402533A040013679A039386688A038827967A038641503
2167A038868889A039298126A039709087A040040355A040291796A040429948A040459849
2160A040462268A040480142A040471810A040418659A040330903A040140139A039811693
2153A039565694A039713119A040219159A040706923A040923155A040951242A040997539
2146A041117817A041146845A040913613A040528657A040294686A040279500A040215800
2139A039935330A039632149A039556151A039686375A039831985A039851337A039683150
2132A039359071A039053270A038935881A038955233A038912162A038733492A038581364
2125A038691294A039110788A039589078A039838570A039910939A040103652A040468249
2118A040743410A040832711A040950032A041196972A041381017A041324507A041049077
2111A040650346A040288773A040197790A040424976A040701951A040787556A040740050
2104A040710753A040705981A040686362A040712232A040912068A041350578A041924351
2097A042395316A042559539A042358829A041914809A041538521A041520244A041835117
2090A042267109A042739754A043159316A043151925A042469163A041491417A040869937
2083A040829486A041176545A041742523A042385707A042725375A042405126A041654229
2076A041165189A041312613A041804879A042119147A041997188A041588312A041279956
2069A041301392A041507947A041674522A041768460A041759321A041527030A041147315
2062A040925574A041059962A041492358A042025277A042439395A042614437A042578421
2055A042396391A042169476A042179017A042690770A043520015A044096274A044098559
2048A043790741A043580490A043473920A043185320A042645077A042108396A041820401
2041A041819326A042041269A042404992A042779533A043002283A042955784A042650655
2034A042318311A042349893A042932535A043728049A044121203A043849335A043239680
2027A042812929A042833826A043228996A043689479A043858339A043638882A043284768
2020A043076667A043058121A043164288A043390263A043734701A044123689A044475049
2013A044797179A045191878A045729097A046305154A046680569A046675530A046252004
2006A045455347A044462013A043668515A043457457A043746259A044031902A044045206
1999A044024443A044170322A044257070A044063147A043800149A043789532A043978281
1992A044071815A043945759A043712594A043516588A043439785A043560533A043957921
1985A044606347A045315449A045835936A046064800A046152220A046344799A046687826
1978A046999407A047159732A047232168A047233915A047024336A046612905A046388610
1971A046725254A047432206A047930855A047989986A047895511A047839874A047601199
1964A047015264A046407357A046303340A046833437A047550332A047843166A047531317
1957A046949884A046406349A045812553A045043580A044369083A044208690A044620323
1950A045262499A045739647A045869130A045747844A045627163A045624341A045610902
1943A045448829A045180388A044888428A044580813A044300209A044159840A044210034
1936A044358668A044408795A044217090A043909473A043826892A044116164A044514492
1929A044649284A044412155A043934873A043343025A042685125A042044225A041473409
1922A040732591A039367538A037267983A034878282A032675920A030739244A029042250
1915A027851700A027488179A027842025A028423995A028830454A028922241A028635388
1908A027889800A026632929A024806989A022424009A019778029A017315691A015145515
1901A012781752A009431777A004720376I99460133I95579054I94779239I97123247
1894A001124201A005087930A008161534A010373842A012102215A013541720A014544797
1887A014895619A014603996A013823735A012678608A011418781A010601698A010738909
1880A011801655A013380117A015213381A017206097A019121136A020661366A021716855
1873A022286798A022367162A022105507A021873888A022036364A022724770A023840869
1866A025119510A026160418A026647107A026684467A026704155A026863742A026793658
1859A026121513A024908655A023304591A021105521A018038367A014308004A010571057
1852A007479579A005440162A004663127A005154721A006606320A008414588A009911813
1845A010655991A010534839A009644380A008164088A006300250A004069599A001019042
1838I96379540I89546075I80154318I67730752I51705568I32053636I09955492H87712276
1830H67631307H50660363H36096253H22404931H07926897G91371952G73129758G56684139
1822G47656845G50141491G63538972G82908822H02243866H17534952H27447800H32083943
1814H31554787H25390712H12839208G93612549G68536485G39895627G11260681F86155791
1806F65968723F49425873F34780190F22185211F13460157F10236373F13147233F22281903
1798F37380007F57428521F80509046G04309760G26898422G47123590G64488092G78875951
1790G90427066G99509325H06709268H12774164H18392688H23960548H29610854H35368538
1782H41075423H46269816H50440839H53441672H55579192H57540528H60457839H65665805
1774H73842553H84282743H95098549I04078807I09517922I10539277I06745953H97814075
1766H83913711H66576289H48834154H34391263H26237697H25050104H28403506H31982278
1758H32079172H27192059H17692187H04651777G89363715G73716163G60182748G50767003
1750G46110433G45917518G49866867G57882080G70009856G86174334H05585711H26430411
1742H46631456H64898378H80884522H94698205I06553777I16634142I25087529I32167396
1734I38253122I43630553I48411230I52714357I56719679I60473828I63841677I66727406
1726I69223206I71483289I73526468I75232936I76546787I77679080I79039429I80860800
1718I82901426I84634637I85766459I86466423I87090322I87816761I88613283I89419212
1710I90243283I91139992I92184125I93433672I94863770I96386058I97948528I99533375
1702A001066414A002456531A003708026A004852413A005803886A006441493A006805754
1695A007055045A007261600A007387993A007427301A007444100A007526816A007774360
1688A008223891A008753920A009221525A009685166A010298987A011012726A011585020
1681A011856888A011873821A011827793A011960838A012378518A012911907A013296460
1674A013479027A013595341A013706682A013766485A013809893A013931111A014040168
1667A013935546A013670800A013528819A013556637A013481917A013171210A012816088
1660A012629960A012697221A013101395A013885957A014901868A015916570A016824635
1653A017627539A018313864A018895162A019487615A020208140A020994717A021638506
1646A022014929A022196555A022351304A022606777A022962303A023269112A023386299
1639A023373666A023396714A023471770A023494549A023482118A023575921A023795916
1632A023963902A023957317A023964775A024352352A025244358A026331226A027151535
1625A027479108A027430593A027310316A027347071A027485894A027490060A027289418
1618A027076009A026992486A026930936A026740239A026447540A026172513A025953863
1611A025738035A025435593A024990699A024520271A024328566A024594386A025072004
1604A025310544A025188183A025025371A025152033A025572266A026120572A026729487
1597A027379996A027940531A028257420A028332947A028251641A028046833A027792166
1590A027672695A027754201A027794652A027444973A026583608A025391580A024187189
1583A023204673A022485760A021989395A021754685A021827659A022094756A022399617
1576A022777921A023367216A024145998A024967651A025786347A026683190A027704209
1569A028708361A029389711A029602248A029680933A030118502A030895807A031538655
1562A031829741A031984423A032178211A032414534A032827443A033604076A034553868
1555A035096731A034839847A034049977A033386097A033191569A033264139A033337381
1548A033463774A033830386A034488353A035338295A036135758A036544232A036481338
1541A036361732A036655305A037252998A037625994A037586617A037476756A037558733
1534A037677331A037675785A037742845A038111608A038684709A039186651A039476662
1527A039506496A039145931A038327168A037292777A036484362A036179300A036273775
1520A036376650A036170228A035751944A035505206A035618294A035921811A036172513
1513A036305289A036450160A036764563A037150124A037275777A037100736A037090186
1506A037631907A038565237A039488891A040161708A040491028A040505407A040416039
1499A040426991A040504399A040531076A040570451A040773446A041124939A041483824
1492A041794397A042050878A042130973A041917094A041587640A041536774A041918102
1485A042461637A042882945A043267633A043804852A044304106A044370158A043973913
1478A043466864A043148632A043171545A043679535A044622204A045602772A046242664
1471A046532070A046597987A046369392A045776469A045098344A044745909A044731597
1464A044695715A044464634A044209093A044018463A043752844A043415192A043275226
1457A043492869A043921367A044334948A044575840A044486539A044032977A043534193
1450A043453560A043901074A044569994A045135099A045491229A045679911A045792058
1443A045850181A045688041A045142692A044433052A044078333A044311834A044763985
1436A044886480A044621667A044450052A044700553A045071063A045069988A044687786
1429A044262916A043877556A043336037A042681631A042324627A042556179A043164826
1422A043642847A043714005A043596617A043711452A044118650A044391929A044235568
1415A044064155A044539757A045604384A046558276A047084273A047459957A047814676
1408A048054694A048398192A049069732A049647805A049588809A049189876A049218097
1401A049652643A049486740A048010547A045838355A044170255A043407330A043119604
1394A042932602A042989314A043589830A044475586A045007362A045034778A044895618
1387A044742953A044450388A044106824A044084179A044456973A044686106A044186046
1380A043075592A042090388A041830950A042213488A042679615A042982326A043446236
1373A044239532A044965433A045279567A045383046A045591416A045835466A045891842
1366A045780030A045688781A045695903A045735346A045853407A046336534A047315892
1359A048295317A048516118A047868969A047013047A046527971A046402922A046443104
1352A046671767A047072581A047334035A047260188A047215571A047704477A048595945
1345A049186247A049028811A048370508A047776644A047597772A047806814A048114900
1338A048190964A047922926A047515392A047216377A046951631A046406282A045500435
1331A044628655A044405301A045149143A046439342A047296943A047200183A046759187
1324A046913465A047759980A048754053A049641287A050453331A051006274A051171639
1317A051313150A051753542A052099325A051787341A051041752A050515553A050152637
1310A049374660A048410354A048368089A049667628A051301391A052058873A051782369
1303A051052705A050322235A049852143A050089944A051451100A053660451A055675879
1296A056553841A056222841A055249128A054222465A053631826A053819299A054575370
1289A055211633A055419062A055510850A055461462A054489361A052212413A049588473
1282A048032520A047973389A048684843A049238054A049407317A049553868A049710229
1275A049465440A049038957A049493393A051272229A053241629A053676175A051760463
1268A048233834A045004003A043769374A044682678A046808575A049770301A053882999
1261A058225166A060179044A058512086A055172862A052865273A052497653A053514572
1254A055362417A057585408A059372577A060149680A060144237A059811961A059236038
1247A058424464A057827577A058069880A059048498A059781320A059465507A058180146
1240A056487049A055032963A054403218A054654457A055238242A055762291A056272229
1233A056598928A056237085A055045125A053487358A052143404A051289431A050834391
1226A050498083A050089541A049684829A049616560A050208072A051347756A052507194
1219A053345108A053931379A054361221A054712177A055203839A055802003A056035302
1212A055667076A055100158A054860408A055081612A055558961A056024819A056424021
1205A056827322A056893374A055960044A054205330A052955381A053074651A053821919
1198A054174354A054405435A055216673A056067421A055753152A054290130A052896317
1191A052327718A052402170A052940732A053936889A054815791A054811894A054261236
1184A054347379A055355765A056300451A056559283A056612501A057021042A057785312
1177A058553948A058951268A059063483A059463894A060194566A060436733A059926594
1170A059643437A060518846A062469028A064713856A066396001A067199712A067580033
1163A067892285A067762532A067053229A066613509A067067743A067722888A067534139
1156A066542552A065830493A066127290A066754953A066366435A064657346A062712876
1149A061665181A061530927A061543694A061226604A060856564A061184473A062745129
1142A065034643A066625940A066647308A065841580A065622459A066174394A066307035
1135A065412813A064817874A066317047A069320031A070638720A067949198A062473126
1128A057427502A054921555A055283195A057965057A061638774A064339584A064941646
1121A064104471A063094473A062210464A061142073A060116956A059728909A059997619
1114A060202159A059524638A057734177A055395947A053293301A051581256A049802352
1107A047784909A046015412A045141751A045586847A047309105A049707877A052022185
1100A053807405A054874922A055188653A055124616A055323646A055954265A056468974
1093A056331898A055520526A054281394A053030571A052350497A052611950A053658973
1086A054898440A055752749A056063658A056034630A056000697A056328269A057229211
1079A058516655A059694304A060288436A060059236A059125503A058025196A057362189
1072A057312129A057634998A058141845A058928758A059983374A060929738A061469511
1065A061836661A062425889A063175442A063637134A063500797A062839739A061961173
1058A061214778A060860395A060770690A060338765A059199619A057642860A056197239
1051A055195775A054520405A053656084A052283437A050868458A050313298A051007954
1044A052607448A054612192A056628090A058236320A059136120A059360818A059182618
1037A058813990A058321388A057730884A057044427A056146575A054806989A052868767
1030A050395679A047788940A045797434A045110103A046037049A048311377A050953593
1023A053108517A054720577A056017495A057031189A057719394A058152529A058487090
1016A058922575A059652979A060691535A061772088A062554499A062922052A063029966
1009A063075054A063140434A063267901A063454433A063570410A063523509A063479161
1002A063720590A064177444A064517851A064622876A064553061A064422301A064387225
995A064540092A064777154A064850462A064611117A064157958A063751163A063647953
988A063882864A064213729A064526116A064893199A065251748A065465157A065556810
981A065672048A065912604A066260537A066542753A066408432A065629851A064354166
974A062759106A060767465A058346922A055938609A054159369A053349879A053513363
967A054395087A055579993A056531935A056864883A056627418A056003989A055065687
960A054070068A053388045A052977420A052509479A051798831A051091879A050884383
953A051417167A052543076A054175227A056401242A058784357A060299792A060792595
946A060804354A060697045A060653839A060867786A061532607A062535953A063403029
939A063978885A064669173A065768876A066942560A068048848A069161654A069835210
932A069903345A069830237A069937144A070049090A069969061A069954211A070372093
925A070900039A071023945A070840370A070606265A070582210A070925707A071376043
918A071510433A071393918A071397008A071494978A071212224A070520928A069942721
911A070026378A070758123A071586429A072176665A072486901A072510083A072131644
904A070996664A069368679A068172551A067867020A068909271A070994850A072528158
897A072888858A072405461A071224991A069443399A067562360A066718870A067635266
890A069205397A070411670A071199390A071772558A072321065A072922791A073509330
883A073741822A073042800A071143753A067886842A062748691A056297696A051195896
876A048573771A047241911A045584025A041779076A034550643A024955220A016486110
869A012898939A015587855A022421388A029549501A034202374A035234144A032062839
862A023976937A009758005I87509212I55621521I14410210H66902047H18823807
855G78152402G52896728G46495523G55850458G75465971G99761975H21093364
848H36985638H54617102H82362597I20204581I54455296I75590746I87788001
841I96275187A002797610A009143580A019312237A032938180A041081330A044177646
834A046294336A048509734A050708065A052643330A053958324A054438159A054267687
827A053872382A053704934A054348521A056213703A058184513A059363909A060323108
820A061889879A064102052A066074005A067488111A068722740A069916985A070857035
813A071508618A072121767A072739014A072965191A072545091A071665047A070518577
806A068987083A066918302A064471957A061934496A059123756A054581484A046648786
799A036221431A024201971A011651946A002285857A002013116A013414521A029840519
792A042501147A049953472A054447096A057404118A058836030A058447109A056586497
785A053413982A048073374A039309280A026592344A010005482I89842469I67493489
778I45444801I25436133I07055249H87653279H64695384H38905448H16047874
771H03907061H01813419H01749114H01459104H07499071H30362222H64290941
764H88020698H99526927I05637650I09869282I14096748I18775424I20964415
757I16567686I04974911H90270097H78074118H69588141H58711860H36091617
750G99510937G51990948F90388297F11174742E24628165D51249836D01414632
743C74041328C66269930C75573393D01789039D47962688E08354698E66262902
736F16011057F62211819G07283043G49890856G87841561H20371159H49039097
729H75512938H98728187I17339078I32902099I47569419I61137036I71788082
722I77770262I76439008I64380105I39390656I01658332H58001011H25618165
715H18730071H32308036H50351672H58586408H48844502H20669300G80226491
708G39091310G14150711G18262132G48027825G89419083H27766705H52351846
701H60153247H53762189H37919102H20462073H09504755H08209718H15532762
694H28457060H43191037H57105646H70021142H82988243H96096050I07803391
687I15951044I18470698I12696014H94189880H57583936H01946599G35299398
680F69399129F12004727E64937225E25709323D91099991D60360888D34984063
673D16549524D06074124D04594941D13011707D31276009D57719142D88937677
666E21037836E51320119E78636946F03056521F25648744F47741109F69825075
659F91189254G10321976G25577919G36358784G44351218G52911175G64474519
652G78773816G93626122H06751600H16375312H20994118H20316060H17036034
645H16244551H21670429H32973596H47096172H61269883H74285095H85885530
638H96040278I04775479I12147171I18224028I23217510I27500075I31046527
631I32636950I30300535I23701242I15864027I11013333I10331982I10473494
624I05192957H87989654H57436780H23341956H03675442H10424579H39581423
617H76755899I09508515I32508206I44995741I47476960I40665400I25886806
610I05397228H81128572H52217391H14356927G63806943G04048777F47765366
603F09864788E97704624F07945583F31091219F57746753F82347282G03795656
596G23461699G42350371G60059715G75733674G89185784H01250465H13415198
589H26848091H41419189H55590884H67155235H73959269H74324068H67665509
582H55086052H38547436H18380190G91263971G50901929F91942503F16037733
575E35822276D70755520D35460505D31235760D48928069D78255688E13481225
568E52586464E94124038F35509249F73366486G04845837G28529297G44566576
561G54577663G61303079G67678010G75826671G86577097G99470621H13209651
554H26482688H38571895H49298333H58682496H66740713H73321528H77919235
547H79545271H76364223H65283200H43315683H11715383G79202717G58797200
540G59186322G78621016H06953049H33025538H50731118H60296707H65443190
533H68462770H66916494H56400576H37878315H20305443H13637679H20496544
526H36333785H55437009H74205536H90584162I03550122I13234510I20403074
519I25808524I30072208I33667711I36828534I39584511I41902044I43795044
512I45293412I46321821I46742055I46496460I45563802I43775289I40659688
505I35514616I28116651I19728644I12990393I10239590I11843116I16180378
498I21097863I25332049I28724827I31486986I33648897I35166079I36129175
491I36584484I36238702I34644113I31863408I28846516I26977505I27208250
484I29518325I33067666I36929326I40700072I44358267I47779738I50591083
477I52253135I52036366I48894223I41644825I30238850I17519159I08593798
470I06932149I11264102I16828804I18854042I14232548I00981618H78145478
463H47756827H16264643G91427186G76738095G70572475G70795090G77208321
456G88896580H02258246H12920177H17967818H15968986H06296291G89304718
449G67535760G46864018G35022154G36921201G51074753G71279023G91532480
442H09012220H23392083H34669448H41834181H43474732H40058637H35364708
435H34335761H38826763H46055600H51338690H51331567H44256605H28250505
428H01127768G62851237G18725841F79446636F56049289F53331210F67770405
421F91206254G15966168G37363743G53072038G61530935G62314959G58627333
414G57442226G64465649G79100044G95924035H10414231H21755699H31148799
407H39595668H47623581H55873234H65007031H74904493H84313988H91754017
400H96697641H99543524I00763908I00301409H96381827H84148556H58873664
393H24439912G96093701G88992130H04094735H29051327H51448620H67233248
386H78222752H86844931H94291343I00900044I06669889I11528243I15427264
379I18458939I20926047I23101666I24977464I26343795I26934836I26490144
372I24911547I22451695I19823925I18107042I18179007I20047414I22967882
365I26241592I29631615I33044417I36148863I38512560I40007231I40648870
358I39938357I37192862I33137682I30229241I30319416I32429252I33414053
351I30250609I21755965I09752162H99237252H95785410I01348364I12871526
344I25279167I35243218I42196558I46943705I50198399I52285456I53509199
337I54261440I54815928I55284743I55702759I56028047I56252745I56589053
330I57320867I58461223I59770303I61062384I62324227I63597493I64857521
323I65983564I66830617I67335313I67557660I67643400I67703404I67652404
316I67308570I66777466I66472874I66595974I66945921I67325302I67709855
309I67983605I67970771I67749768I67612087I67744460I68093602I68501270
302I68873594I69035734I68456451I66419656I62155166I54564756I43408744
295I32020038I26546654I29925590I38157370I44626104I46449289I44874388
288I41465214I36201141I28362784I17377647I02416620H81180245H48743845
281G98550999G27180101F39819565E50249679D73993281D20503341C90154872
274C76862147C74547839C83467689D10249280D60206375E29601691F06557952
267F79047703G40580875G89659370H26774984H51242400H58592120H43809360
260H11667742G80617495G69162804G79088084G97142202H10734681H16271429
253H14415386H04699081G87185072G65476185G43204613G16376524F74184981
246F14034534E54855685E26888651E45723567F01811678F72602218G38578147
239G90418532H27826038H55153851H77109274H96036583I11937860I24451063
232I34116167I41863341I48301435I53863448I59039161I64132830I68993066
225I73106839I76072126I77950276I78881456I78496029I75348779I64970542
218I39035600H92597441H35961999G93390673G83667245H04552463H38526673
211H70775935H97729881I20582348I36797827I45024433I49986736I55782990
204I63276774I71187499I78058257I83335837I87047385I89545940I91425568
197I93162610I94873177I96591202I98596551A001072730A003584254A005459380
190A006655507A007810847A009570264A012029376A014607154A016587640A018058525
183A019924445A022799827A026344531A029730321A032483677A034737174A036656178
176A038054962A038672614A037777585A032907270A018231483I81838612I07778596
169G93043950F67872406E85772786E79954897F35287574G09711784G73176659
162H19466790H53054968H77620018H94969402I06936113I15557352I22383896
155I27967076I31644691I32023533I28669055I23826156I21490749I23711657
148I28702384I33350621I36386127I38511552I40508568I42234321I43026341
141I41183065I32013185I09842874H77197500H49563683H42859702H57162358
134H79252304H98947241I16302269I34155543I51389755I65021274I73832471
127I78252718I79222333I78158847I76713833I75740925I74667025I71088522
120I59423177I32142870H88350287H41983286H14629065H16635354H39272127
113H66738026H89863168I07183456I19851206I28938168I35401796I40448362
106I45087527I49408126I52903778I55486931I57666448I59785019I61740576
99I63255540I63910753I63314739I61709936I60317131I60609426I62934284
92I66069506I68359557I69327559I69470549I68454704I64836086I58212469
85I51056336I47257973I48362716I52022860I54557566I54283211I52644811
78I52067276I52044833I48187943I36143421I17106585H99189544H92024474
71H99201034I14429696I27626737I34850735I37503233I36841906I33078618
64I26863073I19689671I13479165I10137455I10314780I11363013I08320788
57H96627288H72279545H31312350G70606206F93146760F15280519E62283047
50E52206177E84361503F40949640G03197223G62625935H15311356H56391572
43H84681205I04774336I20974629I33651719I42354465I48795582I55026045
36I61077905I66366304I71847818I78202053I82611347I82816425I80580801
29I78004771I76497668I77114714I80002258I83923788I86507747I85623133
22I81375778I76644152I75540013I80757186I88633172I88938369I80633347
15I73949456I74869683I80673664I85261762I85757522I84279313I84406176
8I86580115I87762132I85738439I80652430I74330516I71589053I79462149
1I94127319
$$ === CHEMSPECTRA INTEGRALS AND MULTIPLETS ===
##$OBSERVEDINTEGRALS= (X Y Z)
##$OBSERVEDMULTIPLETS=
##$OBSERVEDMULTIPLETSPEAKS=
$$ === CHEMSPECTRA SIMULATION ===
##$CSSIMULATIONPEAKS=
##END=


$$ === CHEMSPECTRA PEAK TABLE EDIT ===
##TITLE=JPK-483,X16001
##JCAMP-DX=5.00
##DATA TYPE=INFRAREDPEAKTABLE
##DATA CLASS=PEAKTABLE
##$CSCATEGORY=EDIT_PEAK
##$CSTHRESHOLD=0.93
##MAXX=3997.453
##MAXY=0.9524608265187962
##MINX=373.96442
##MINY=0.3248991077595211
##$CSSOLVENTNAME=
##$CSSOLVENTVALUE=0
##$CSSOLVENTX=0
##NPOINTS=0
##PEAKTABLE= (XY..XY)
##END=


$$ === CHEMSPECTRA PEAK TABLE AUTO ===
##TITLE=JPK-483,X16001
##JCAMP-DX=5.00
##DATA TYPE=INFRAREDPEAKTABLE
##DATA CLASS=PEAKTABLE
##$CSCATEGORY=AUTO_PEAK
##$CSTHRESHOLD=0.93
##MAXX=3997.453
##MAXY=0.9524608265187962
##MINX=373.96442
##MINY=0.3248991077595211
##NPOINTS=52
##PEAKTABLE= (XY..XY)
3058.2923555355746, 0.8824172029868665
386.71320702892854, 0.8731032617934386
412.2107810867865, 0.8662005670584344
400.8785259499605, 0.8653510817344757
393.7958664894445, 0.8639401800122412
376.7974837842062, 0.8618463886145883
806.0066470914776, 0.8583186278044395
817.3389022283031, 0.857308090883628
507.11841785770093, 0.8518476497049133
491.5365670445658, 0.8402635461933567
875.4167098045345, 0.8251582389324631
1060.9823876700543, 0.8222737921391664
789.0082643862388, 0.8218916065049886
585.0276719233775, 0.8174067747214542
895.2481562939793, 0.8144052632809173
1259.2968525645033, 0.8075084097587711
1082.2303660516027, 0.8074264535950093
458.9563335261919, 0.8073358549199529
1038.3178773964032, 0.8044925937778322
864.084454667709, 0.7946048982317407
474.5381843393275, 0.79126876645936
565.1962254339323, 0.7476572405118156
988.739261172791, 0.7400960933941835
2867.0605501016416, 0.7318592674165201
1385.3681909616885, 0.7262530930775272
1286.210958514464, 0.7240483168614767
536.8655875918685, 0.7226153027999676
1120.476727138389, 0.7217358955637654
1358.4540850117278, 0.7169210321490879
1250.7976612118841, 0.7128989104675854
1460.4443812431587, 0.7109329116789501
926.41185792025, 0.6998741039601151
675.6857130179824, 0.6951506739329162
1022.7360265832681, 0.6835349808583683
738.0131162705234, 0.682284534636549
1138.891641735731, 0.673089743540844
958.9920914386234, 0.671887816198249
2953.4689955199374, 0.6632077109109081
1580.849592071931, 0.6621775631269434
2850.0621673964033, 0.6616648439045939
1005.7376438780293, 0.6520001301173736
1374.035935824863, 0.63348615271182
971.7408784675526, 0.5795363195675067
2923.7218257857703, 0.5413091189607248
1225.3000871540262, 0.5301928526902004
607.6921821970286, 0.5144479880618782
443.37448271305675, 0.4898335339911638
718.1816697810787, 0.46737566635218375
1182.8041303909304, 0.3825269348701352
1323.0407877091475, 0.3588952424648021
759.2610946520717, 0.33224201261718855
1423.6145520484752, 0.3248991077595211
##END=

##END=

