##TITLE=S. Marschner STM-103
##JCAMP-DX=5.0
##DATA TYPE=LINK
##BLOCKS=1


$$ === CHEMSPECTRA SPECTRUM ORIG ===
##TITLE=S. Marschner STM-103
##JCAMP-DX=5.00
##DATA TYPE=INFRARED SPECTRUM
##DATA CLASS=XYDATA
##ORIGIN=Angelika Moesle
##OWNER=
##XUNITS=1/CM
##YUNITS=TRANSMITTANCE
##XFACTOR=1
##YFACTOR=9.2814362e-010
##FIRSTX=3997.453
##LASTX=373.96442
##MAXX=3997.453
##MAXY=0.9965866225446192
##MINX=373.96442
##MINY=0.35676252884694903
##NPOINTS=2559
##XYDATA= (X++(Y..Y))
2559A061652943A060948972A060363743A060014069A059970271A060249240A060725746
2552A061269811A061871545A062472637A062809467A062596002A061837766A060950385
2545A060489098A060671802A061224665A061745932A062067350A062234255A062341951
2538A062424152A062449069A062472573A062667478A063001932A063082848A062622332
2531A061856646A061286894A061191592A061487193A061899673A062148266A062046607
2524A061636888A061239050A061136878A061227106A061191464A061051851A061179134
2517A061652622A062054120A061955737A061398571A060829268A060619913A060765562
2510A061100915A061515899A061847784A061911875A061810665A061872701A062189687
2503A062445858A062284603A061764813A061213748A060849111A060815396A061258380
2496A062079487A062819292A063028390A062782687A062650332A062933281A063383843
2489A063625051A063462897A062894172A062013919A061060200A060464695A060422824
2482A060649004A060949743A061398956A061867050A062093037A062288328A062798421
2475A063253478A063016381A062082955A060962201A060153617A059894685A060253671
2468A060906716A061295563A061394525A061617430A062059451A062334052A062291025
2461A062170743A062134459A062149101A062246971A062524655A062643524A062264246
2454A061547752A060833378A060451594A060587675A061086658A061518468A061713887
2447A062049368A062796751A063475099A063559226A063161067A062690147A062432950
2440A062428647A062484068A062270090A061681778A061145740A061320223A062185770
2433A062813577A062748137A062229182A061563614A060988467A060604821A060322257
2426A060049711A059993583A060469319A061223188A061682484A061675420A061558091
2419A061658915A061815739A061772712A061592641A061549935A061692631A061798849
2412A061724483A061552504A061348737A061000155A060424687A059816145A059550149
2405A059803366A060215910A060323991A060190479A060152782A060357192A060693829
2398A060899138A060697875A060111939A059555865A059426913A059740880A060359119
2391A061163529A061842261A062069019A061945397A061878031A062220127A062838365
2384A062833613A061733538A060243332A059569929A060402467A061674135A062144541
2377A061814519A061021090A060091710A059571599A059927245A060906138A061788574
2370A062047442A061671759A061179262A061175216A061688777A062346382A063066922
2363A063831644A064204629A063726581A062546553A061389195A060972091A061237060
2356A061363828A061158905A061073493A061203666A061337241A061315535A061114915
2349A060853350A060737049A060888991A061248683A061553082A061418543A060632564
2342A059535443A058957021A059221989A059812613A060196708A060121765A059584635
2335A058806042A058080172A057733902A058118061A058990993A059565177A059691367
2328A059643010A059505324A059285759A059119688A059080386A059083404A058949507
2321A058521358A057807433A057039821A056550727A056469362A056675955A057112453
2314A057743599A058136492A057709627A056714422A055717355A054959504A054606619
2307A054858744A055629503A056433848A056848126A056797265A056345932A055580953
2300A054807433A054633399A055343406A056273750A056836824A056904126A056460564
2293A055681071A055064374A055076897A055626870A056306759A056780247A056912153
2286A056833741A056691753A056381574A055793005A055174253A054928358A055241619
2279A055937498A056548480A056687578A056385170A056021497A055986305A056387932
2272A057077004A057767103A058043760A057724141A057249946A056988638A056773825
2265A056343299A055758327A055385277A055506523A055984571A056325061A056153210
2258A055611971A055176308A055130391A055221326A055003494A054513309A054068398
2251A053838493A053808310A053879273A053991271A054146617A054299395A054340559
2244A054257395A054157406A054056068A053823851A053404757A052950149A052590714
2237A052224536A051712452A051151755A050802466A050790907A051059407A051495392
2230A051873193A051935550A051808460A051998099A052690254A053470068A053823338
2223A053589259A052995745A052468890A052309691A052453157A052600219A052543128
2216A052355672A052370186A052776179A053159761A052896205A052018328A051265037
2209A051174424A051503804A051737498A051654206A051329642A050946831A050658679
2202A050595937A050911189A051587996A052219527A052303654A051778277A051042967
2195A050567681A050578983A050889098A051032821A050774916A050383757A050217622
2188A050240677A050216851A050105624A050013919A049983993A049973396A049948479
2181A049952975A050077560A050310355A050528571A050702156A050890768A051013683
2174A050938547A050792448A050814796A050897832A050662918A050081156A049590714
2167A049456175A049447698A049269361A048916477A048432713A047737412A046882333
2160A046074006A045350127A044696569A044432114A044900272A045834533A046567916
2153A046810665A046820362A046910461A047102991A047184999A046921636A046296076
2146A045624729A045333687A045567574A046034319A046216123A045727351A044544947
2139A042992127A041603579A040966203A041382665A042427447A043113244A042862275
2132A042100828A041581873A041437380A041313308A041116412A041072358A041170035
2125A041058615A040571448A040048318A040000668A040600925A041566011A042436887
2118A042857074A042697168A042145910A041690917A041819677A042607903A043640291
2111A044382151A044661762A044774595A045111617A045726966A046324140A046572668
2104A046347002A045741672A045017921A044500893A044379390A044558690A044747751
2097A044747302A044664844A044796301A045250459A045750534A045927586A045762800
2090A045530712A045335293A045010793A044502241A044011478A043720950A043661676
2083A043854205A044286786A044788274A045158497A045375430A045542913A045716434
2076A045834276A045777121A045526730A045244615A045079187A044982408A044866107
2069A044828539A045044958A045493208A045870496A045786304A045163442A044489526
2062A044415096A044989023A045608481A045834918A045815717A045776671A045682269
2055A045568152A045634683A045825414A045824322A045575473A045344605A045265230
2048A045262083A045390072A045803194A046369736A046706052A046670217A046518146
2041A046483789A046513137A046523926A046599769A046785041A046980653A047154302
2034A047384656A047628239A047708706A047610258A047547323A047666193A047890639
2027A048146103A048484474A048860606A049072401A049070731A049056089A049122556
2020A049084281A048786561A048407475A048339917A048753681A049328314A049577421
2013A049396130A049058786A048827662A048875184A049343213A050095028A050666964
2006A050768366A050561131A050290125A049971341A049595595A049304296A049205527
1999A049235197A049329021A049552632A049922535A050264502A050436931A050573910
1992A050901878A051398742A051789644A051849817A051649004A051440741A051313202
1985A051136149A050947088A051099994A051846028A052976479A053997885A054489355
1978A054313330A053653157A052871545A052286251A052088649A052322021A052775601
1971A053082698A053076661A052916884A052829931A052881563A052975002A052938269
1964A052667007A052247270A051888092A051763121A051956100A052431579A052963699
1957A053229374A053090982A052720052A052387589A052189344A052018778A051794332
1950A051623445A051634298A051762929A051898367A052090896A052325104A052297361
1943A051773974A050973033A050279016A049822032A049555458A049451744A049449047
1936A049463111A049503119A049593732A049661163A049631108A049526174A049394717
1929A049254655A049091474A048825157A048370999A047778962A047166054A046489312
1922A045596408A044561323A043754730A043450973A043534073A043693721A043814454
1915A044034790A044410600A044643267A044311574A043362864A042126901A040817985
1908A039392897A037950855A036820533A036122727A035602551A035001010A034361515
1901A033935806A033939916A034403258A035204521A036204028A037286764A038350876
1894A039352311A040290617A041106651A041706522A042077196A042280128A042358604
1887A042274541A041895263A041104403A040015117A038943620A038095926A037450652
1880A036976393A036787717A037015053A037620126A038393903A039125681A039769992
1873A040458037A041336556A042349614A043187160A043510183A043218756A042457438
1866A041438857A040318232A039109755A037664309A035856795A033781873A031615951
1859A029339573A026767915A023844850A020767722A017783199A014911316A011895326
1852A008460369A004628409A000686441I96801822I92851249I88746036I84681217
1845I80875716I77362155I74279376I72068887I71133919I71472034I72691685I74208414
1837I75514632I76454480I77161662I77729296I78172665I78645319I79353400I80248808
1829I81038126I81467303I81406809I80662958I78929553I76054844I72268352I68026416
1821I63707354I59553912I55757530I52377416I49208777I45916451I42339762I38576645
1813I34758300I30883698I26931199I23000277I19232922I15690911I12367311I09263147
1805I06463704I04172812I02593276I01769215I01659401I02320730I03853386I06229625
1797I09320174I12998457I17086844I21318119I25478689I29505939I33384715I37101980
1789I40775575I44656406I48857433I53156460I57187499I60800536I64132035I67337344
1781I70366436I73054459I75319920I77214643I78832453I80181892I81093804I81299177
1773I80649472I79180393I76930152I73848658I69988955I65741048I61781998I58702366
1765I56579857I54893268I52861693I49897977I45812030I40693824I34721245I28140960
1757I21371100I14971849I09473080I05275520I02660064I01802738I02807062I05700073
1749I10252444I15825964I21589638I26950850I31722786I35914117I39474237I42276185
1741I44286310I45670042I46707824I47640929I48633886I49882308I51697463I54401156
1733I58086247I62462914I66973992I71173093I75047759I78884021I82782063I86514355
1725I89893184I92986816I95875203I98510502A000940749A003360272A005831170
1718A008206189A010373844A012342933A014087576A015574572A016929084A018318017
1711A019695454A020863024A021727093A022332873A022724738A022903332A022890617
1704A022749206A022548521A022375450A022392211A022780031A023537497A024432326
1697A025232819A025882975A026432627A026954857A027528656A028165068A028803215
1690A029418370A030020682A030569692A031037080A031461954A031816765A031959332
1683A031824471A031510696A031117803A030633462A030030700A029378426A028790499
1676A028293314A027788680A027144176A026306372A025347643A024394566A023486442
1669A022559438A021665507A021085929A021082525A021607003A022411862A023392169
1662A024661333A026268418A027999190A029564276A030858293A031921571A032802016
1655A033593261A034424193A035287620A036049902A036679572A037302626A038048661
1648A038963335A039999576A041031193A041952996A042737947A043345718A043724611
1641A043960039A044222567A044533259A044772283A044900015A044975986A045003793
1634A044932831A044786668A044656688A044584634A044528700A044463581A044474820
1627A044688991A045088177A045466236A045640912A045650930A045671095A045781488
1620A045917697A046014282A046115107A046319709A046649025A047006405A047288391
1613A047503911A047717825A047911253A048002637A048016830A048113929A048398485
1606A048790864A049136042A049353874A049444359A049452579A049455019A049495284
1599A049549357A049627383A049813940A050126431A050440912A050612313A050583607
1592A050395573A050150962A049958112A049912324A050117440A050571085A051033912
1585A051259835A051341843A051575023A052032136A052515000A052844830A053011735
1578A053113523A053253970A053470068A053732275A054000968A054223166A054330541
1571A054351990A054462640A054773589A055114593A055189665A054935357A054564813
1564A054279294A054140645A054186176A054370485A054422888A054157021A053901171
1557A054153938A054818800A055298774A055381745A055498303A056009680A056727908
1550A057274349A057511254A057481585A057273643A057115150A057310697A057889955
1543A058528615A058952590A059168559A059248383A059233998A059311575A059686679
1536A060206149A060454356A060300358A060061142A060050610A060225158A060358220
1529A060327073A060073215A059531847A058846949A058412892A058437038A058699951
1522A058927737A059066579A059087257A058933517A058786583A058975516A059484004
1515A059847870A059692459A059189944A058820491A058828004A059118853A059550920
1508A060044894A060493016A060739810A060621647A060037381A059095221A058091667
1501A057283918A056837787A056886080A057344669A057834790A058061677A058096227
1494A058115492A058089419A057899138A057627105A057565519A057909863A058527073
1487A059098175A059388124A059310098A058929792A058479423A058155373A057901642
1480A057602509A057370100A057389623A057567767A057543813A057056004A056257438
1473A055644530A055582815A055981552A056513031A056946639A057143149A057042582
1466A056824044A056752568A056828283A056909584A057042646A057319945A057627041
1459A057809231A057846607A057762544A057594675A057421347A057226121A056881649
1452A056400133A056001139A055854912A055899801A055965177A056013341A056164256
1445A056437573A056636396A056634854A056596837A056743770A057071930A057408182
1438A057585556A057539767A057363807A057247377A057279808A057347302A057263111
1431A056952675A056490104A055998378A055563742A055243289A055116969A055296976
1424A055828133A056519453A056955501A056849603A056397436A056121615A056303355
1417A056694193A056876961A056778513A056649689A056686294A056965969A057512795
1410A058015696A057882505A057163186A056891924A057810644A059227384A059765155
1403A058958819A057705838A057182387A057527758A057895670A057719902A057319367
1396A057170122A057284881A057399898A057382238A057465337A058025586A058970828
1389A059644809A059507636A058738033A058037659A057953339A058488413A059230980
1382A059700294A059607048A058894792A057703783A056405849A055507229A055262169
1375A055449625A055720951A055922150A055931590A055601375A055092951A054933367
1368A055447955A056303098A056828026A056708129A056230466A055883939A055870517
1361A056065037A056320566A056613020A056879658A056946831A056770293A056592534
1354A056637552A056750064A056532425A055802381A054830359A054167488A054145782
1347A054438815A054374595A053840099A053442325A053601268A054070325A054545611
1340A055085566A055739446A056380161A057038922A057864588A058684410A059043781
1333A058759418A058176308A057826185A057963550A058499909A059270411A060105003
1326A060611243A060263304A059001846A057570207A057014133A057797993A059372391
1319A060623638A060937541A060765626A060885010A061337819A061592641A061550706
1312A061739446A062508343A063554859A064366397A064815289A065182431A065699780
1305A066141544A066035197A065413748A065053093A065543856A066386412A066583244
1298A065924355A065090212A064762244A065314273A067017687A069572905A071620277
1291A071794119A070290811A068477004A067138804A066158562A065747174A066677967
1284A068907979A070929215A071278824A070266986A069377743A069343771A069744884
1277A070080365A070118575A069570400A068530113A067795060A067865059A068174018
1270A067907123A066883854A065404822A064060842A063770828A065055726A067084218
1263A068422996A069016381A070185556A072211544A073708236A073741823A072743279
1256A071499609A070472359A069841919A069377935A068528958A067258959A066333945
1249A066217130A066340560A066043995A065468720A064922600A064152033A062826549
1242A061082163A059261548A057618885A056332896A055574339A055608246A056633570
1235A058225371A059387290A059606919A059390244A059386712A059508857A059226292
1228A058313609A057040078A055912774A055471074A056076982A057553960A059159504
1221A060245065A060760553A060849625A060407604A059503526A058771556A058817344
1214A059461912A059978813A059976180A059712431A059471417A059077368A058357727
1207A057663004A057473108A057803516A058337884A058867242A059347409A059784485
1200A060262276A060894900A061602916A062147110A062525361A062973739A063406641
1193A063423467A062966418A062272337A061282784A059864952A058395938A057516584
1186A057556593A058518982A060234341A062310548A064188895A065424986A065985877
1179A066268698A066634684A066967082A066875570A066213470A065395574A065331162
1172A066470154A067815996A067950856A067006770A066442989A066842561A067124034
1165A066386798A065598571A066452237A068933346A071149422A071629396A070726987
1158A069506310A068403987A067355994A066345505A065321786A064248876A063663711
1151A064190950A065087836A064583201A062264503A059738697A058481285A058563293
1144A059497297A060643096A061064053A060421668A059460243A058869233A058541137
1137A058309499A058441020A059017323A059699973A060442475A061653200A063184314
1130A063828947A062309713A058654227A054598656A052477881A053179219A055336406
1123A057028903A057573161A057417494A057021261A056245879A054814112A052990864
1116A051458979A050709541A050841512A051656453A052634383A053178898A053211136
1109A053308043A054031215A055180611A056065744A056436160A056729706A057428218
1102A058412185A059106459A059097661A058513716A057895477A057717783A057996815
1095A058303526A058161538A057661398A057538740A058309627A059459665A060086123
1088A060002638A059518297A058856903A058152868A057564427A057199598A057022032
1081A056854741A056613598A056537819A056879465A057438301A057697746A057332596
1074A056542571A055946874A056024515A056634726A057150792A057035775A056171063
1067A054921229A053966033A053680899A053888713A054229717A054311596A053853007
1060A053148908A052840655A053081542A053482655A053768623A054025757A054351862
1053A054696590A054982559A055220683A055506716A055849132A056101578A056097404
1046A055796023A055416809A055343792A055696933A056216595A056627983A056728358
1039A056262961A055321315A054402466A053717697A053156614A052621218A052111382
1032A051708407A051434512A051130177A050695670A050282612A049950021A049613897
1025A049340580A049150813A048923027A048715471A048662939A048684517A048664866
1018A048603986A048495135A048376329A048293101A048132617A047892758A047821154
1011A047992748A048210900A048320266A048274477A048144562A048152653A048335421
1004A048415438A048176671A047702926A047243759A046994781A046969158A047035882
997A047074092A046980846A046638686A046156721A045824065A045655875A045503226
990A045383971A045286037A045097489A044853135A044480214A043815288A043029888
983A042282697A041373610A040193004A038960509A037772325A036538289A035164833
976A033467969A031380203A028963506A025996450A022260369A018067048A013438449
969A007979688A001687811I94419739I85270878I74160057I62453217I49517992
962I30611280I01599805H68234910H37237906H06554548G74797445G43940567
955G14949706F88069345F65407736F48571965F35932213F24342316F12532341
948F01049947E87978320E69873514E44952160E14087062D79948967D45827602
941D16529581C96916458C87271440C84382892C85516554C91096625D04662482
934D28216288D57096210D86110832E16855295E51359631E85401268F14599428
927F43205616F77643036G10350326G32264745G47871553G62243040G77425680
920G94605088H12622042H28315932H41896046H56484530H71691702H83536227
913H91803422H99051202I06558684I13683355I19624338I24591372I29042790
906I33456962I39180241I47520454I54755582I58164980I60093611I62745414
899I66198995I68865312I70599295I72179023I73841658I75557659I77546849
892I80161598I83048830I85330153I86969861I88453967I90057778I91595763
885I92838469I93975278I95198846I96279527I96935205I96977525I95820873
878I92530153I87121419I80654224I74234936I69391203I67934776I70569433
871I76211218I83021472I89602977I95243414I99630935A002728163A004740600
864A005853454A005956783A004588657A001025776I94640460I85651120I75669401
857I67126448I61364894I56664112I49010659I36297506I20998950I09214790
850I09423888I24175938I43161447I59261458I73553699I86906606I97069937
843A003264521A007216122A010074647A012144689A013980330A016615180A019677858
836A021065828A021396171A021914228A022796150A023749292A024607389A025338075
829A025915919A026406425A026937904A027578041A028423743A029419462A030017407
822A030085608A029919023A029743319A029685008A029708577A029690210A029643844
815A029695926A029825135A029859107A029821603A029850437A029775172A029314785
808A028443908A027255596A025749463A023748393A021047654A016929084A007207452
801I83002335I50742652I32335887I29267493I34743401I43826565I52820400
794I61089843I70470407I80419182I89057692I96115061A001863965A005582321
787A006586709A005439048A002647567I97993345I91349611I83578253I76097358
780I69804261I64954426I61344344I58143209I54427550I50190239I45733554
773I41067194I36512447I33147939I31685989I31314224I30690784I28345241
766I22195739I12198029I01850003H92612777H84286436H77295341H72653641
759H71535906H74681234H81905188H92351983I04355837I15775231I26017231
752I36785636I49119705I60419973I68419245I73768962I77168405I78191096
745I76402142I71904165I64990646I56814129I49571615I45097784I44401969
738I47436840I52412159I57635107I62627251I67237098I71207194I74337173
731I76665376I78346699I79311272I79243328I77871991I74883358I69841957
724I62597325I53167698I41361318I27840157I14458930I02187604H90444929
717H78660898H67823008H59907349H55622965H54260683H54832426H56249487
710H57203721H56399439H52739523H45717024H35864321H23911522H10649935
703G99138578G94732756H01228464H18916552H44549840H71331303H93566368
696I10407469I22934131I31505212I36114352I37380306I36782232I36317478
689I37828042I42074858I48191866I54179086I58253409I60011860I60695987
682I62370117I66050584I70777182I74772387I76793879I76581763I74612288
675I71596426I68091984I64318143I60211967I55688751I50776881I45513604
668I39939377I34197345I28354810I22139419I15111333I07103327H98378634
661H89448119H80833819H72720493H64586874H55529719H45541063H36513128
654H31399674H31822108H36339993H41077251H41941641H36232682H22719870
647H01142667G72078596G36973040F97808380F56664934F15599707E76571192
640E41197006E10655284D85842043D67516418D56266466D52322572D55354585
633D64468093D78471444D96193472E16607023E38813318E61995359E85295756
626F07797844F28932962F48876429F68213923F87210156G05607481G23031693
619G39294307G54347802G68359213G82000913G96320318H11975227H28652376
612H45349369H61042295H75041696H87037202H97061177I05325739I12014747
605I17300630I21549886I25355838I29282778I33595868I38174633I42568382
598I46145521I48319598I48667473I46705062I41467023I31281408I13860664
591H86603850H47309339G95700796G35350220F74455002F24186392E94936214
584E92217494F14448256F53964516G00686107G46116827G85331128H16654174
577H40448866H58049359H70972318H80378312H86816609H90185291H89885516
570H85251137H76157762H63565853H49780430H38026004H31026560H29423970
563H31578075H34965188H37842979H40108247H43142669H48726850H57495404
556H68137554H78266464H86205884H91829881H95741023H98142757H98941451
549H98694721H98892516I01075263I05692367I11748623I17493480I21447071
542I22814491I21237267I16545476I08710990H97750121H83724903H66943077
535H47933100H27143738H04973985G82252074G60419985G40947695G24388131
528G09803371F94993203F77537717F56192216F31730415F06389067E82064053
521E58768665E35034949E10165002D86136038D67169121D57360151D58383998
514D68695162D84434454E01438158E17153432E31385307E45697552E62046220
507E81496612F03748502F27599771F51769697F75328833F97476880G17165975
500G33223858G44831929G51703962G54003587G52625957G49646314G47926909
493G49729735G55533867G64079645G73398173G81954804G89296600G95952792
486H02740120H10143759H18241030H26898999H35853918H44742498H53186167
479H60872114H67644736H73514692H78432470H82070039H83988652H84068412
472H82777285H80987881H79305595H77286992H73128927H64266613H49081019
465H28909124H08054644G90699597G77590980G66136522G53203031G37074699
458G17520657F95955078F76481824F65502010F67992110F83179181G04579396
451G24767859G39865344G49965034G56887608G62602089G69127724G78289492
444G90514260H04156474H16725457H26810055H34592074H40940785H46541470
437H51668025H56292578H60294848H63650173H66532909H69368957H72708741
430H76792055H81192869H85096754H88018728H90197429H92301763H94837138
423H97778763I00656554I03004536I04746032I06042040I06831358I06828725
416I06101828I05435361I05940189I08257667I12095535I16477918I20471582
409I23703734I26281044I28378700I30013078I31233308I32458803I34370608
402I37267537I40650155I43565964I45218902I45242149I43733833I41301787
395I38980584I37887766I38758642I41576324I45535631I49490699I52616954
388I54693482I55817511I56073103I55634550I54975340I54601327I54523237
381I54226608I53279311I51868672I50632902I50018773I49928096I50009141
374I50184973I50792936I52201970I54311185I56421492I57598438I57109408
367I54398074I48691491I39109857I25729015I10599484H97213955H88469739
360H84892858H84594688H84783814H83548814H80733059H77510860H75145089
353H73977777H73459656H72934215H72081576H70507692H67227632H60932737
346H50838120H37267960H21567778H05618039G91452246G81135110G76509721
339G78565314G86910278G99940483H15544787H31755705H47104930H60809244
332H72765126H83125481H91563435H96980004H98090033H94065415H84368059
325H68382550H45841738H17686305G86348168G55248091G27849546G06486835
318F91483366F81438776F74749832F71194593F72281054F80048623F95177769
311G15783464G37784770G56721473G70108736G78949024G87127147G98625788
304H14516252H32367329H48575357H61182871H70586553H78158768H84754337
297H90426627H94953310H98169279H99853107H99665202H97408410H93258630
290H87742457H81751640H76602737H73686735H73791477H76719295H81295619
283H85441932H86316212H80621382H64983685H36783426G95784152G45247813
276F90892293F38841150E95204137E66925403E60484345E77591699F12332105
269F53901581F92827217G24841454G49943264G69394234G83958764G93844475
262G99124514G99900475G96460252G89668686G80987662G71841949G63407141
255G57386398G56258773G61827863G73654792G89434414H06573107H23045461
248H37479627H49279713H58618983H66010421H71887442H76558682H80276139
241H83143655H84992141H85461455H84281684H81386489H76556627H69044971
234H58043387H43672477H26988521H08787963G89079218G68319718G48453378
227G31602580G18346324G08675682G03915048G05769185G13306657G22398491
220G28849888G31514536G32491503G35367945G43334787G57650275G76944807
213G97727682H15934726H29292641H38182056H44240047H48928627H53144938
206H57436194H61856017H65715462H68151489H69267491H70282475H72498487
199H76224100H80632106H84650880H87812135H90184328H91940402H93232364
192H94100094H94337576H93707072H92212306H89812242H85935007H79743570
185H71142114H61518288H53552730H50140122H52733101H60177905H69311545
178H77023244H82050773H85094956H87514992H89992826H92228040H93509277
171H93140595H90592120H86255590H82149478H80781930H82979062H87436645
164H92270746H96364591H99418086I01473293I02648248I03084746I02971206
157I02468049I01420441H99247392H95629282H91459978H88478088H87742393
150H88869375H90823115H92921158H94776579H96087293H97030288H98125739
143H99214704H99192163H97269504H94103112H91330191H89970927H89498210
136H88811257H87758961H87133980H87406269H88162450H88977906H90135393
129H91858137H93381545H93727879H93072073H92272223H91309256H89373304
122H86321478H82891402H79622195H76512123H73473849H70505444H67831935
115H66151061H66006953H66784905H67212669H66928756H66678301H66864344
108H66532074H64159303H59303560H52937767H46343547H40182934H35094076
101H32625233H33988093H38435594H44106728H49770861H54736611H57695704
94H57206610H53347614H48086327H44035252H42475752H42713813H43561699
87H44491079H45520000H46935198H48971204H51159281H52467940H52417849
80H51535798H50713920H50370861H50116746H49317666H48061346H46989528
73H45941599H43803741H40316189H36936846H34758595H32939136H30219004
66H26410869H22129310H18138665H15296644H14411703H15806159H18979230
59H22632596H25590404H27574264H29096388H30869030H32997447H35092727
52H37238997H40340849H45345516H52034460H58537939H62617271H63356370
45H61589764H59296239H58409757H59670894H62035573H63385654H62673206
38H60928434H59950633H60857023H63675925H66898958H66553266H60027246
31H51945709H47174928H46234631H47522611H48428230H46773045H42973451
24H40060982H40495168H43464086H46331602H47542776H46926272H44602050
17H41480804H39511908H39560136H40443857H39861902H36253682H30152794
10H23714818H19517258H18601942H17971631H13589184H06556217H03431183
3H10629064H25681852H35853340
##END=


$$ === CHEMSPECTRA PEAK TABLE AUTO ===
##TITLE=S. Marschner STM-103
##JCAMP-DX=5.00
##DATA TYPE=INFRAREDPEAKTABLE
##DATA CLASS=PEAKTABLE
##$CSTHRESHOLD=0.93
##MAXX=3997.453
##MAXY=0.9965866225446192
##MINX=373.96442
##MINY=0.35676252884694903
##NPOINTS=45
##PEAKTABLE= (XY..XY)
2980.383101469898, 0.9013517510854467
2923.7218257857703, 0.8368694204511716
2854.311763072713, 0.8370024577732316
1701.2548029007035, 0.35676252884694903
1609.180229913995, 0.8983824869205291
1578.0165282877247, 0.8438819065481398
1502.9403380062545, 0.8624936949013446
1447.6955942142295, 0.8089104907548197
1419.3649563721656, 0.8765406622427877
1382.535127177482, 0.7928766027432924
1366.953276364347, 0.7376261370864167
1349.9548936591086, 0.8690370935001903
1298.9597455433932, 0.7716583030931798
1272.045639593432, 0.4198203093837906
1199.8025130961687, 0.5496628887084882
1171.4718752541044, 0.7698245660305714
1150.2238968725565, 0.8341177716238299
1103.4783444331506, 0.4244959061928866
1072.3146428068803, 0.6941835888146706
1017.0698990148553, 0.6176814446786761
960.4086233307271, 0.8403740536345468
930.6614535965596, 0.8704945462889528
905.1638795387021, 0.8816697017611475
881.0828373729473, 0.8210309159530905
854.1687314229866, 0.7207125434141299
818.7554341204063, 0.6229649792714467
779.0925411415164, 0.8109067689688807
757.8445627599685, 0.5202099689216289
732.3469887021106, 0.7019167552289782
689.8510319390148, 0.6533342608231937
630.3566924706797, 0.7890521303403216
609.1087140891318, 0.8174921289407866
586.4442038154807, 0.8239524382664826
562.363161649726, 0.8233877436222076
534.0325238076621, 0.8037788283025898
528.3663962392493, 0.8044019356655896
515.6176092103201, 0.7727957978599634
500.03575839718496, 0.7819384942235023
460.3728654182951, 0.7558910261927848
433.4587594683344, 0.7967275393053003
424.95956811571523, 0.7981576935339114
413.6273129788897, 0.7854272737857042
406.54465351837325, 0.7796972408542348
395.2123983815477, 0.7791876213242269
378.2140156763094, 0.7456995266105024
##END=

##END=

