##TITLE=YM- 270.1
##JCAMP-DX=4.24
##DATA TYPE=INFRARED SPECTRUM
##DATE=12/12/2019
##SAMPLING PROCEDURE=ATR platinum Diamond 1 Refl
##ORIGIN=Qais
##XUNITS=1/CM
##YUNITS=TRANSMITTANCE
##RESOLUTION=4
##FIRSTX=3997.453
##LASTX=373.96442
##DELTAX=-1.4165319
##MAXY=0.81520259
##MINY=0.28227997
##XFACTOR=1
##YFACTOR=7.5921658e-010
##NPOINTS=2559
##FIRSTY=0.74491
##XYDATA=(X++(Y..Y))
3997+981156131+981136661+981063963+980853326+980736113+981115464+982019249
3988+982891945+983138775+982773320+982349219+982351653+982808334+983415045
3978+983829096+983814258+983331198+982626509+982110790+982045393+982435421
3968+983180070+984113610+984952390+985457982+985622457+985533978+985237453
3958+984889819+984735080+984750389+984657592+984419477+984317495+984336023
3948+983925583+982829374+981749417+981631027+982452850+983236517+983384662
3938+983201424+983074241+983007274+983004918+983252533+983663366+983748076
3928+983314476+982885665+983098422+983737556+983841422+983009707+981949377
3918+981626081+982240014+983156989+983784896+984171392+984658377+985163106
3908+985169151+984595806+984263482+985027679+986511404+987514580+987523138
3898+986785476+985532879+983956123+982652574+982518011+983635338+984608839
3888+984451195+984004326+984449938+985346893+985605656+985577707+985933035
3878+985962161+984953332+983598754+982816421+982644880+982996440+984130567
3869+985414410+985743909+985428542+985603929+986343004+986547204+985602280
3859+983820539+981784667+980271345+980577056+983264702+986047107+987037958
3849+986693935+985725224+984518319+983488685+982996989+982986312+983247194
3839+983907997+985014176+985959570+986246753+986138961+986068461+986036822
3829+985930837+985917804+985965930+985628659+985021556+985144578+986127578
3819+986477645+985866224+985686755+986502532+987205729+986985514+986031013
3809+984939201+984425601+984545169+984428584+983985563+984361617+985826185
3799+986982845+987325062+987523844+987626454+987277172+986805966+986594701
3789+986236312+985351290+984546032+984607190+985294921+985871955+986227597
3779+986568008+986647851+986179158+985420141+984731547+984194159+983873375
3769+983953061+984456298+985250093+986087539+986403534+985778060+984689624
3759+984191882+984571626+984881733+984331077+983220580+982723702+983910274
3750+985717452+985827677+984320714+983551256+985120162+987037094+986954032
3740+985306697+983433416+982268827+982350711+983725858+985600317+986896408
3730+987287849+987311715+987661861+988390260+988803762+988444116+987694599
3720+987128242+986767733+986215428+985297983+984484953+984657906+986040120
3710+987428457+987696641+986991402+985888128+984914392+984655237+985326795
3700+986259707+986667792+986530324+986211032+985823516+985276158+984732332
3690+984680438+985294685+986026538+986395683+986448990+986407930+986366164
3680+986091857+985337394+984653510+985088523+986002279+985597099+984430311
3670+984585365+986395369+987897778+988172164+987975501+987967179+988094127
3660+988014677+987725689+987762195+988384214+988608591+987362275+985137983
3650+983823365+984956394+987249537+988300996+987894795+987100529+986768518
3640+987054366+987455699+987434659+987083649+986864376+986805260+986685535
3631+987136642+989329609+992295095+993335720+992058158+989712493+987354659
3621+985837804+985725616+986432660+986848125+987012521+987579349+988383272
3611+988735303+988692594+988887922+989359442+989545820+989260286+988916735
3601+988936362+989177774+989147313+988751711+988467197+988595401+988700681
3591+988281918+987698368+987908612+989037323+989894710+989745231+989062995
3581+988536363+988369926+988402899+988496638+988599876+988564547+988181664
3571+987517328+987036544+987220803+987938602+988438149+988344097+988017346
3561+987967258+988390574+989029865+989361954+989060405+988368591+987932871
3551+988075128+988386177+988296050+987767376+987271676+987204159+987426808
3541+987470066+987133502+986808793+987053424+987804903+988385235+988403135
3531+988185824+988166354+988258052+988105982+987712499+987428300+987450596
3521+987670890+987936483+988171300+988298170+988279171+988189593+988079524
3512+987871086+987539075+987254640+987197486+987376170+987683059+987903666
3502+987778996+987348614+987031049+987095897+987305670+987311087+987149910
3492+987052482+987027752+986941785+986826849+986861000+987105632+987396818
3482+987467240+987180999+986707674+986358784+986189835+985919924+985357963
3472+984734452+984453471+984675963+985220574+985724439+985900218+985774213
3462+985648914+985828855+986423710+987285965+988000153+988128435+987641842
3452+986952384+986429912+986093662+985819826+985629601+985658178+985972289
3442+986466183+986867360+986922315+986682002+986458882+986445300+986618253
3432+987010872+987667043+988286943+988365451+987757955+986829833+986092720
3422+985855233+986087696+986492719+986794740+986945475+987056643+987255661
3412+987608633+988069554+988458954+988485333+987932636+986997290+986255782
3403+986049855+986157803+986286400+986510226+986991795+987592225+987939309
3393+987774521+987286200+987059547+987451774+988115717+988414362+988176796
3383+987756542+987488908+987396583+987371931+987402078+987515915+987597014
3373+987404904+986815466+986000709+985350583+985198199+985532486+985984379
3363+986184025+986139904+986160002+986434701+986818920+987028694+986947124
3353+986679176+986362945+986024261+985658727+985414018+985551799+986137627
3343+986868223+987358742+987565925+987798623+988307905+988962034+989350963
3333+989185154+988556775+987796660+987120470+986553170+986208520+986356821
3323+986988419+987591911+987707004+987510262+987519840+987892283+988325883
3313+988570436+988723840+988929139+989004036+988661505+988035167+987634227
3303+987756150+988228219+988687099+988851809+988619111+988117836+987634384
3293+987418015+987603216+988185903+988917677+989349942+989215458+988761603
3284+988534086+988754537+989058991+989005606+988675087+988530082+988768669
3274+989035832+988850081+988261663+987899034+988218562+988892476+989226057
3264+989018167+988696441+988689768+988987628+989325448+989574319+989781423
3254+989913238+989822090+989495104+989124938+988914223+988931180+989103113
3244+989306841+989471316+989522974+989330629+988951592+988803212+989264761
3234+990212511+991139691+991584597+991475392+991263185+991511192+992144045
3224+992435546+991927128+990979221+990272884+990113748+990351235+990700517
3214+990987543+991224794+991593154+992284261+993214503+993946984+994075894
3204+993658545+993123826+992879666+993128537+993777642+994291556+994039702
3194+993091481+992247833+992035861+992170974+992231268+992290463+992584240
3184+993021687+993343414+993474522+993507260+993523825+993614266+993934187
3174+994525196+995101210+995280208+995063604+994858855+994978423+995338854
3165+995652729+995711610+995485036+995132377+994935087+995115341+995667724
3155+996345327+996758123+996539792+995587960+994207003+992925436+992155900
3145+992029188+992377136+992767400+992780275+992391267+991936470+991701103
3135+991686971+991701260+991578866+991396570+991365952+991420436+991206345
3125+990648388+990185583+990276181+990929368+991796490+992515389+992954720
3115+993238841+993536465+993825610+993890379+993558997+992939175+992334977
3105+991852152+991182714+989861658+987689810+984935197+982194165+979992799
3095+978497219+977622482+977225074+977062562+976873279+976676931+976707863
3085+976999285+977326742+977522463+977593513+977677516+978052314+978916531
3075+979993976+980590324+980121473+978400183+975503706+971685465+967384085
3065+963066532+959114514+955928891+953826209+952669627+951961798+951500877
3055+951656245+952864563+955140434+958074752+960908659+962656328+962714816
3046+961489540+959977396+958656497+957085943+954440063+950004592+943400962
3036+934869723+925256800+915532631+906641746+899823711+896467019+897405112
3026+902508138+910765619+920533047+930067462+938312617+945217718+951210162
3016+956511970+961060101+964814829+967833622+970070082+971312787+971339872
3006+970011044+967219611+962838938+956766729+949181356+940937771+933535086
2996+928296398+925428968+923938335+922399341+919767593+915770039+910902302
2986+905840100+900415898+893357863+883545137+871449395+858945961+847872552
2976+839204238+833438368+831113272+832624867+837656529+845035740+853324154
2966+861482322+868934860+875342926+880585225+884802522+888252011+891096124
2956+893307775+894748477+895411085+895616070+895904273+896686057+897984031
2946+899468541+900683296+901198702+900596780+898471723+894627104+889279682
2936+882893284+875717566+867595511+858401272+848789683+840521525+835853669
2927+836267721+841509235+849743871+858626590+866389235+872349569+876708809
2917+879890899+882064788+883280015+883814969+884147058+884654849+885525189
2907+886911878+889007416+891846661+895101528+898230311+900896289+903156301
2897+905239278+907283315+909296812+911201418+912859038+914192498+915327568
2887+916494747+917720023+918738195+919309341+919510008+919536700+919321745
2877+918586596+917246070+915511277+913574403+911466775+909361188+907811281
2867+907457917+908476323+910413668+912562042+914388297+915643013+916319046
2857+916710095+917395471+918940903+921524996+924824691+928233199+931228675
2847+933610375+935400202+936614330+937235957+937416604+937631402+938518387
2837+940417498+943055526+945828432+948392035+950798151+953089881+955063339
2827+956519743+957537129+958346076+959084681+959820223+960669680+961719491
2817+962917289+964120268+965134593+965744051+965929173+965997475+966286777
2808+966832801+967495252+968227811+969030243+969772772+970284488+970601504
2798+970955889+971476947+972048329+972515531+972884754+973280749+973840119
2788+974602276+975421586+976078542+976477677+976605017+976440778+976105863
2778+975894676+975989200+976320818+976776322+977325722+977894984+978261381
2768+978188604+977679401+977046390+976646548+976589394+976737539+976904290
2758+977015144+977153082+977424406+977737732+977846623+977689057+977509038
2748+977504013+977524112+977322817+976948098+976619384+976344920+975976953
2738+975539427+975210007+975075915+975109360+975230105+975246906+974907437
2728+974162317+973325342+972883263+973135823+974028696+975286474+976593084
2718+977677045+978421067+978914097+979276020+979531956+979754683+980106400
2708+980604377+981047633+981277897+981360802+981463962+981651910+981852655
2698+982004490+982127905+982190633+982068003+981799584+981694854+981982743
2689+982508276+982923349+983044408+982932141+982774811+982754635+982916361
2679+983142386+983327116+983493710+983670667+983799813+983851471+983868350
2669+983858380+983811354+983770451+983726172+983569392+983308902+983173161
2659+983357969+983786859+984200754+984423638+984500184+984575708+984684364
2649+984730605+984638358+984420105+984154826+983966643+983971981+984208919
2639+984600046+984908975+984852763+984429919+983989567+983826113+983908233
2629+984069567+984191647+984219674+984259007+984552627+985153371+985799885
2619+986251307+986545869+986863591+987270577+987633284+987766277+987702058
2609+987700095+987880742+988048435+988022528+987913558+987902960+988004392
2599+988176011+988381467+988437600+988128671+987610125+987404669+987854285
2589+988745116+989599363+990200421+990679555+991216943+991840612+992444653
2580+992836408+992884612+992767557+992876604+993298036+993624865+993492814
2570+993097997+992931796+993125475+993371912+993496583+993694188+994063019
2560+994344470+994375716+994347139+994350594+994155737+993712637+993452854
2550+993774658+994465922+994902506+994760249+994353970+994258111+994704979
2540+995410610+995916359+995983641+995651394+995070749+994433027+993950831
2530+993703844+993588280+993546907+993658702+993869496+993921626+993736896
2520+993620390+993892342+994497482+995158992+995759736+996289037+996502422
2510+996083581+995246293+994753576+995139522+996165230+997117376+997453940
2500+997163303+996618614+996174415+996025485+996336220+997146817+998138609
2490+998801846+998839608+998280002+997372292+996516868+996122835+996397064
2480+997211586+998110503+998556351+998354664+997770720+997207346+996891979
2470+996835924+996935080+997130173+997433136+997683105+997514391+996879025
2461+996337869+996441735+997042715+997544696+997650917+997585441+997696216
2451+998031367+998294291+998211072+997973271+998114586+998801296+999559213
2441+999967377+1000233127+1000693655+1001153556+1001150415+1000574166+999720547
2431+998945437+998406008+998044164+997839179+997970994+998491268+999039490
2421+999266378+999293228+999395210+999513678+999400234+999067910+998850913
2411+999040981+999548065+1000006631+1000197484+1000206905+1000188613+1000141822
2401+999895071+999258920+998338412+997635372+997610328+998224811+999058096
2391+999684198+999854247+999555052+998986026+998359060+997761535+997279652
2381+997061714+997096336+997070114+996698064+996210608+996297516+997432193
2371+999303041+1000941270+1001446391+1000803409+999978682+999855660+1000117013
2361+999759409+998680080+997913291+998043614+998373427+998170641+997620220
2351+996949447+995878047+994416148+993280764+993235151+994172537+995301876
2342+996253473+997082911+997681928+997894135+997659474+996925188+995840520
2332+994894969+994535559+994765902+995270473+995761070+996082718+996167821
2322+996107291+996200323+996655356+997294647+997808483+998116941+998263045
2312+998220807+998016451+997806442+997708385+997734450+997840436+997912506
2302+997855902+997770171+997879140+998249463+998661081+998772641+998470934
2292+998048246+997846324+997798983+997614568+997298730+997132764+997260025
2282+997579867+997936372+998249698+998575350+999075525+999863825+1000849729
2272+1001692043+1002038342+1002035437+1002379381+1003481399+1004843357
2264+1005623571+1005566966+1005151894+1005058784+1005548988+1006240409
2255+1006626983+1006769475+1007114204+1007767862+1008404092+1008752511
2247+1008784385+1008533081+1008100422+1007832788+1008191649+1009288799
2238+1010683731+1011756466+1012181980+1012022216+1011645455+1011644592
2230+1012474501+1013887489+1014950332+1014988094+1014361443+1013830257
2221+1013425234+1012650830+1011456015+1010225401+1009195453+1008557497
2213+1008577595+1009055081+1009249467+1008709488+1007784270+1007332692
2204+1008117066+1010131898+1012423471+1013912062+1014279951+1013707784
2196+1012187397+1009803734+1007525115+1006985372+1009041185+1012641880
2187+1015631311+1016884379+1017230914+1017972187+1019014931+1019221172
2179+1018238172+1016925282+1016154097+1016177099+1016749188+1016794880
2170+1014678223+1010151603+1005481864+1003478573+1004819883+1008067763
2162+1011726083+1015336278+1018490340+1019789963+1018335522+1015635551
2153+1014196105+1014746996+1016035942+1016879119+1017247479+1017403160
2145+1017151228+1016321554+1015329291+1014820244+1015074924+1015999985
2136+1017289716+1018295954+1018319350+1017390128+1016202065+1015165915
2128+1014104957+1012880623+1011852324+1011667673+1012673911+1014382954
2119+1015600850+1015398142+1013918343+1012101980+1010802907+1010336097
2111+1010675174+1011724120+1013223154+1014574592+1015087643+1014495221
2102+1013159327+1011774523+1010845065+1010435881+1010490523+1011140020
2094+1012325492+1013400896+1013635871+1012943587+1011843845+1010972641
2085+1010748422+1011167498+1011776093+1012122549+1012248241+1012467985
2077+1012760192+1012731772+1012222725+1011656132+1011688792+1012662371
2068+1014322346+1015850035+1016345264+1015649996+1014600578+1014172160
2060+1014519951+1015082932+1015437239+1015667346+1015823813+1015496120
2051+1014425270+1013301427+1013295303+1014656947+1016471034+1017878370
2043+1018772420+1019352516+1019565666+1019146118+1018222314+1017819332
2034+1019034323+1021185523+1021904422+1020092848+1017568263+1016781455
2026+1018201980+1020809783+1023557881+1025326982+1024966002+1022446756
2017+1019231143+1017189069+1017489755+1020070237+1023669990+1026754730
2009+1028668286+1029600727+1029706556+1029067500+1028360064+1028464008
2000+1029075429+1028678728+1026584289+1023951520+1022029878+1020818184
1992+1020088373+1019913221+1019598718+1018294463+1016874565+1017066439
1983+1018954716+1021284051+1023571934+1025989669+1027661106+1026922031
1975+1023320551+1018389771+1014531884+1013220328+1014068294+1015563402
1966+1016387423+1015899495+1014059344+1011643336+1010005814+1009714470
1958+1009650251+1008210805+1005115074+1001531965+998782140+997517218+997850799
1948+999389479+1001161249+1002380794+1003330977+1004854191+1007103213
1939+1009491821+1011487576+1012762390+1013141427+1012900721+1012708298
1931+1013014951+1013731808+1014442306+1014600814+1013591592+1011039922
1922+1007305371+1003331684+999806357+996648604+993283119+989568744+986503710
1912+985755999+988248631+993024278+997858806+1001138953+1002761951+1003339142
1902+1003121753+1001890432+999752736+997730917+997142813+998206205+999635837
1892+1000119839+999680430+999142492+998936644+998961531+999158508+999512736
1883+999810910+999884943+999891616+1000132793+1000820603+1002039441+1003665657
1873+1005318567+1006650064+1007729472+1009024620+1010861788+1013084587
1864+1015298908+1017032210+1017872089+1017886378+1017703846+1017882688
1856+1018370851+1018731596+1018751694+1018657484+1018738504+1018977169
1847+1019255166+1019649041+1020108392+1020195536+1019764762+1019189298
1839+1018654972+1017952010+1016927480+1015721517+1014546643+1013586332
1830+1013005530+1012753519+1012537543+1012106847+1011355682+1010388384
1822+1009597886+1009411665+1009903989+1010700061+1011298371+1011468969
1813+1011291227+1010934486+1010447186+1009661948+1008314907+1006337602
1805+1003967286+1001486979+998968754+996411353+993955934+991799630+990243207
1795+989990254+991856627+995436675+998772170+1000828689+1002390293+1004239630
1785+1006157347+1007583211+1008510313+1009163658+1009378377+1008895003
1776+1007951807+1007275067+1007607863+1008875219+1009929111+1010103792
1768+1009931624+1010003694+1010391995+1011064103+1011912775+1012381155
1759+1012019311+1011111051+1010062340+1008853472+1007421170+1006064786
1751+1005222787+1004992601+1005063180+1005138077+1005057056+1004759118
1742+1004485910+1004747891+1005623649+1006500035+1007182584+1008412806
1734+1010504262+1012175149+1012719132+1012910221+1013266019+1013617500
1725+1013737618+1013573143+1013122507+1012568711+1012376209+1013003959
1717+1014188646+1014920342+1014843640+1014418361+1014007136+1013622368
1708+1013203684+1012782253+1012277524+1011516545+1010739865+1010662534
1700+1011517095+1012325728+1012430144+1011995523+1011026262+1009693038
1691+1008588664+1008004486+1007514674+1006682566+1005639979+1004277706
1683+1001882111+998751600+995978773+994250575+993938819+995120287+997036042
1673+998662101+1000200860+1002588134+1005538703+1007554242+1008381010
1664+1009092372+1010459198+1012047574+1012938641+1012852046+1011949674
1656+1010669992+1010201927+1011716819+1013271986+1013013380+1012373539
1647+1013210279+1015699456+1017935445+1018915226+1019170927+1019182232
1639+1019135363+1019512045+1021000323+1023011464+1024032305+1024066535
1630+1024011500+1024282353+1024562392+1024411342+1023976800+1023774327
1622+1023854092+1023746614+1023300531+1022804831+1022288797+1021135749
1613+1018793225+1015126112+1010372290+1005413876+1001459423+999002826+997337984
1604+994986902+990545542+983683150+975703352+969061724+966158966+968113190
1594+974199843+982462585+990879594+997928208+1002326388+1002752608+998857979
1584+993115740+990137771+992508794+998703475+1006021607+1012956383+1018186279
1574+1020744936+1021327152+1020854376+1018693284+1012603333+1001472063
1565+987752931+976665704+972500771+977162896+991867069+1010859746+1022380181
1555+1027118929+1030062590+1032768685+1035237372+1037391713+1039102012
1547+1040304599+1041126971+1041640100+1042025496+1043134423+1045506388
1538+1047554742+1048053975+1047701553+1047507010+1047531975+1046620339
1530+1043557660+1037095188+1025771338+1010367579+995421130+986778174+988046002
1520+996636828+1007116010+1017679901+1028011409+1036914855+1044003586
1511+1049923803+1055228987+1060733032+1067253286+1072525890+1073741823
1503+1072106892+1069305488+1066334899+1064764894+1066259609+1069275184
1494+1066963277+1047763810+996071177+904427818+799925305+729876382+708162300
1485+717358031+739940334+766733026+792783110+815578091+835219795+852716108
1475+868390170+881572386+890201131+892775333+890665114+886233018+881386007
1465+877848040+876470066+876460802+876327652+874042674+866627271+853670845
1455+839350027+825996115+814678624+809160055+814328478+830491253+850958705
1445+868447010+880810308+888743315+892814666+893628795+892138868+889567179
1435+887849264+889144020+895062902+906056076+919859526+932552557+942515626
1425+950580841+957268317+962311285+965982637+968717388+969524687+966594843
1415+958401032+942140201+913506258+871178778+822793613+783830361+768668564
1405+781455962+812067837+844877782+872251355+894180550+911290525+923595647
1395+932081979+937419352+938978994+936248011+929113903+916985109+899586381
1385+879272098+861676551+853994927+861346503+881874877+906115664+921192201
1375+912897821+871192517+805981812+748228119+725384698+742457303+782969912
1366+826059942+861790937+889491104+910239851+925173974+936185048+944931085
1356+951943192+956938112+959621833+959745640+956679899+950204787+942089013
1346+935841104+934239068+937434033+943544710+950368791+956380626+960935195
1336+964135106+966446306+968243435+969684058+970933985+972205031+973537078
1326+974882785+976416284+978482381+981237387+984472470+987771616+990776748
1316+993161196+994063647+991276610+981249085+961350660+933833809+907338741
1306+892262204+893198570+906468401+924506498+941163560+953563678+961277255
1296+964983779+965657299+964472063+963040546+963157052+965800498+970382545
1286+975278231+979140672+981477465+982029534+980067067+974851932+967120298
1276+959726327+955983454+957182194+962079058+968537604+975064689+980950362
1266+985791171+989321208+991554528+992874014+993858113+994959503+996341009
1256+997949562+999636387+1001196813+1002345308+1002713433+1001922935+999611971
1247+995299129+988417345+979011447+968708281+960640397+957720445+960645343
1237+967613486+975868925+983208725+988148769+989395634+985716195+976406863
1227+962073798+945330220+930537490+921958126+921558284+928314690+938871987
1217+948628345+953283953+950313050+939391397+922219243+902291456+884216381
1207+872315339+868902514+873289782+882619998+894079588+906371129+919227222
1197+932178937+944275307+954673468+963008279+969264903+973587009+976246863
1187+977763483+978982478+980775367+983475182+986823002+990582991+994877697
1177+999734365+1004651798+1008835101+1011594739+1012427003+1010948932
1169+1006674402+998429246+984174375+962463983+935142303+908790356+892622713
1159+893377883+910904343+938354148+966905500+990645640+1007799737+1018911615
1149+1024976836+1026915593+1025775185+1022942613+1020030905+1018259370
1140+1017568027+1015884814+1009311567+994593027+972968523+950507122+932995578
1130+921901757+916817573+919032993+929438612+944450929+956821920+959773589
1120+949060139+922579046+880255883+825161181+764757919+710076641+671541494
1111+653872070+654385317+665899588+681344014+696608028+710380781+722197427
1101+731160303+736726291+740225789+744691408+752776093+765042354+780225112
1091+796590909+812827717+828125882+841961363+853906998+863449970+869829381
1081+872233141+870641154+866706564+863538056+864168555+869851834+879544993
1071+890949156+902091496+912041297+920565392+927629943+933272869+937659822
1061+941077986+943838331+946211002+948463399+950791714+953164071+955464829
1051+957766451+960134412+962229793+963325609+962495308+958736654+951645018
1041+942657176+935314315+933304115+937693816+946282523+955690383+963667041
1031+969662625+974209264+978009135+980937329+981760879+979440808+975120429
1021+972357259+974428852+981370066+990459890+999181118+1006530496+1011507674
1011+1010011152+992856349+951536677+891971960+838745044+816613063+828373497
1001+856860080+884980657+906688537+922626857+934306035+943134035+950227319
992+955588480+958258618+957177012+951848904+942781612+931792206+922037105
982+917108524+918984946+926534127+936318198+944818347+949896800+950931694
972+948620887+945006845+942875429+943899174+947205700+950620802+953390803
962+956767279+961860099+967824280+972161459+972098967+966363401+957126532
952+949820255+949203495+955283397+963975735+971331236+976035441+978523441
942+979435077+979352879+979172310+979941297+982125628+985265166+988530710
932+991380633+993573678+995012653+995856850+996458772+997004560+997380064
922+997311527+996292020+993445396+988074107+980653601+972901320+966740397
912+963686668+964941620+970772651+979483045+988059191+994279780+997733193
902+999036035+998863474+997700534+995868077+993458585+990300126+986200669
892+981505649+977450471+975706178+977320069+981965000+988197601+994471810
882+999921921+1004341377+1007743446+1010104420+1011428852+1011936014+1011999370
873+1011837015+1011497782+1011230305+1011502885+1012523647+1013947784
864+1015021146+1014780990+1011752462+1002895415+983658184+951682388+910993607
854+869116213+828479090+785010495+738826775+702312662+691330243+708827813
844+741540486+772132577+790098447+792354691+781381223+766377777+760690808
834+772607865+799302108+831163204+860221560+883611712+901830142+916334983
824+928432845+938883921+947805502+954915587+960089584+963892752+967489678
815+971735317+976277246+979599080+979875664+976115833+969418230+963409613
805+962355720+967861257+977579460+987386769+994432399+997669445+995434948
795+983367547+956834246+917309033+875789087+847559540+842005878+857205201
785+883604882+911631328+936169739+956101452+971787604+983581639+991741142
775+996215318+995697636+987022178+965228567+923700848+856090622+761751609
765+650191493+538586510+445218446+385757987+371804273+406504614+479440358
755+569473830+656169217+728895423+786064937+829391276+860720950+881622866
745+892623656+891192296+869659018+817720027+733006813+630346689+536180943
735+473365441+453211119+476743605+535003675+609556294+681047724+739417627
725+784601232+820467104+850429246+876346337+898899671+918422200+935158398
715+948835763+957539955+955947183+937244986+902064960+864774951+844110836
705+845655405+857676093+864142961+857241707+837592545+807948832+768718260
696+717806862+654764668+586154288+526064822+489734339+485574549+511602650
686+557425861+609936233+659089090+700481382+734590243+764007696+790698484
676+815216483+837141673+855500319+870213835+883678758+899237177+915340286
666+927252319+935947796+944683470+954404185+964060759+972797532+980757467
656+988172243+994999306+1001506842+1008418145+1015874058+1022550936+1026584054
646+1027180087+1024161137+1015105307+993262236+950396661+884610806+806249132
636+734983726+689354038+676586110+690816329+719836845+752847457+783888064
626+811054219+834216776+853539187+869216311+881602768+891049961+897776927
616+902257541+905128267+905831386+902429552+894989104+888836425+891379145
606+904696551+923564401+941228722+954647874+964120661+971053553+976960345
596+982536775+987206672+990460989+993033228+995896026+998763298+1000334952
586+999674463+996918201+992607086+986508578+976426647+955881315+913374757
577+840570279+746403120+657268644+596511075+568142922+562008143+568979936
567+588149060+621490505+666338684+714825203+758944160+794285127+818377690
557+828007257+822273261+808002531+796675070+793381341+792259304+785329866
547+773645349+767005763+773528529+792266684+816117363+838851030+857784277
537+871983643+881168775+886660966+891171884+896601347+902657304+907757189
527+910854569+912405732+913732676+915803248+918865064+922458693+925329184
517+926278975+925515955+924030582+921779206+918027618+913348614+909453357
507+906616310+902863623+896122369+885609821+871266707+853856595+835949685
497+821478445+813336371+810759579+809299721+803991160+792831157+777420411
487+761034359+746903845+737509488+734143139+736952394+745666479+759880683
477+778312655+798679146+819043831+838254839+854758810+866958575+875038785
467+880690426+885545052+890748176+897079618+904553196+912617782+920782859
458+927759402+931440568+931961234+931656073+931003435+928025152+922418732
448+917031429+914366079+914254755+915429628+917360927+920085786+923556864
438+927556695+931965787+936801336+941588053+945223920+946970332+946902737
428+945250927+942020633+937084437+929927953+919674639+906561590+894691951
418+890591709+894362374+900884041+908223449+917531918+928367919+937005928
408+940890823+942734350+947121147+954343969+960848208+964935810+968757270
398+974247262+979520965+981887827+980961745+978065896+976248512+978387622
388+983687860+988996578+993734698+999537388+1004591111+1004420042+997393489
378+984364051+964172476+934118636+897752118
##END=
