##TITLE=X7810
##JCAMP-DX=5.0
##DATA TYPE=LINK
##BLOCKS=1


$$ === CHEMSPECTRA SPECTRUM ORIG ===
##TITLE=X7810
##JCAMP-DX=5.00
##DATA TYPE=INFRARED SPECTRUM
##DATA CLASS=XYDATA
##ORIGIN=ComPlat
##OWNER=
##XUNITS=1/CM
##YUNITS=TRANSMITTANCE
##XFACTOR=1
##YFACTOR=8.276827e-010
##FIRSTX=3997.453
##LASTX=373.96442
##MAXX=3997.453
##MAXY=0.8887175311635621
##MINX=373.96442
##MINY=0.3111904555563401
##NPOINTS=2559
##XYDATA= (X++(Y..Y))
2559I89949494I90773477I91747825I92130074I91600988I90533022I89598858I89257368
2551I89574374I90246839I90813228I91078023I91208297I91330504I91381850I91364351
2543I91346779I91286072I91126273I90919377I90707368I90529422I90492623I90594018
2535I90692749I90823598I91192670I91717075I91962138I91593931I90627865I89362869
2527I88319100I88072956I88792375I89871503I90424641I90302578I90261386I90994127
2519I92121649I92680044I92381259I91637571I90778446I89896996I89306842I89444317
2511I90164887I90832960I91059732I90905262I90625560I90356732I89964977I89277604
2503I88514257I88290294I88903708I90007033I91216938I92376866I93107087I92753859
2495I91125193I89019075I87710582I87663413I88360652I89509345I90958264I92023926
2487I92163129I91714554I91604874I92212458I92571303I91841083I90610293I89965409
2479I89952446I89802370I89597922I89981825I90726092I91221259I91496424I91572471
2471I91095739I90335416I90438828I91634691I92601189I92464003I91552307I90624912
2463I90055210I89678146I89208687I88534133I87916542I88176440I90019203I92255018
2455I93528728I94047732I94098070I93595269I92484671I91026101I89724595I89042767
2447I89177145I89901677I90706864I91358157I91920514I92347988I92443263I92272446
2439I92248177I92500298I92543074I92072391I91552235I91362838I91072118I90850172
2431I91725428I93598221I94819073I94407225I92692359I90820358I90475267I92073039
2423I93403424I92779567I91315669I91142761I92429220I94072073I95692385I97061081
2415I97750758I97732466I97323355I96770142I96247180I96002549I96124756I96200515
2407I95726736I94906209I94549810I94936743I95329579I95135574I94599142I94345218
2399I94733376I95434359I95824963I95980008I96417490I97007142I97026010I96124036
2391I94703922I93518070I92837251I92237735I91311060I90291557I89998031I90443941
2383I90499320I90098563I90292064I91313437I91611574I90273772I87901275I85431559
2375I83973422I84413139I86259215I88285253I90115774I91606965I92291961I91961130
2367I91094227I90493268I90620519I91472155I92707554I93804973I94280409I93817936
2359I92558197I91458833I91804860I93455418I94935951I95529055I95355936I94819145
2351I94538795I94866746I95368395I95558439I95542380I95541945I95527833I95377900
2343I95249428I95738618I97057912I98163973I98248662I97589447I96543805I95128732
2335I93349629I91472732I90280182I91229829I94215738I96249628I96038988I95124411
2327I95493195I97047038I98319235I98680961I98425600I98111979I97901123I97573676
2319I97300959I97538677I97743484I96729169I94391814I92056980I91437301I92340067
2311I93380379I94360056I95324682I95961861I96230977I96536388I96947803I96905747
2303I95987426I94376619I92452552I90671937I90235317I92114591I94691752I96137215
2295I96412956I96301550I96592414I97490284I98349769I98470321I97849777I96969335
2287I96436432I96562097I97347405I98697164A000037127A000470578I99838224
2280I98765289I97765953I96867940I96081548I95623036I95661995I96185968I96788364
2272I96746164I95843827I95125348I96092926I98446772A000538343A001528246
2265A001694379A001826383A002303836A002635747A002341712A001738959A001191221
2258A000367022I99026844I97970688I98306489I99513010A000145507A000143131
2251A000356292A001166664A002122000A002496761A001950391A000770012I99734308
2244I99489893I99879416A000241286A000195485I99870126I99625423I99816908
2237A000658462A001907831A002799075A002719860A001912152A001080104A000546409
2230A000275925A000224075A000208520I99906709I99421264I99423928A000353340
2223A001691862A002379882A001938797A001015507A000695333A001203031A001635763
2216A001218010A000394315A000188428A000758418A001355845A001478412A001310548
2209A001171201A001071390A000983245A001118631A001648293A002297858A002549763
2202A002275174A001892420A001870816A002294402A002902127A003343716A003378355
2195A003010508A002461474A001926195A001486118A001320486A001706048A002600173
2188A003470028A003800428A003546147A002927980A002118904A001335465A000893156
2181A000918432A001253297A001737734A002330121A002938638A003378355A003544995
2174A003550900A003646822A003911041A003992921A003373746A002047466A000752728
2167A000409726A001271517A002521029A003001362A002467091A001750409A001641236
2160A002081817A002517717A002569495A002281007A002002601A002007786A002091323
2153A001774894A001029478A000485413A000725147A001595648A002398678A002588578
2146A002163408A001484174A000951343A000899349A001474668A002459602A003405072
2139A003963035A003955978A003332770A002265236A001094650A000050521I99207455
2132I98667639I98511801I98643874I98870142I98998038I98831470I98339399I97894281
2124I98053072I98900964I99809347A000129880I99990390A000015810A000425209
2117A000861902A000991094A000870831A000808395A000993543A001216570A001161623
2110A001085865A001641884A002788633A003592884A003411985A002599308A001835961
2103A001524213A001945494A003151727A004526184A005176613A004914339A004326561
2096A003967140A003939559A004043259A003913271A003308933A002564022A002422370
2089A003210202A004420900A005258997A005442128A005333889A005359889A005531858
2082A005589829A005355856A004844845A004236256A003815767A003804677A004209611
2075A004781401A005085876A004810423A004131980A003599293A003551980A003792290
2068A003814399A003284881A002288782A001121944I99979803I99024179I98499918
2061I98456710I98579998I98591088I98593752I98792583I99063424I99097774I98999839
2053I99418167A000741422A002397454A003449792A003706594A003685854A003744041
2046A003841548A003937398A004030944A003968004A003668283A003478094A003864520
2039A004705859A005273040A005100135A004565287A004336139A004517758A004698585
2032A004667331A004694696A005077807A005645856A005879757A005563976A005242650
2025A005690504A006811112A007538669A007195739A006432895A006259558A006679975
2018A006920213A006600112A006114810A006050358A006597591A007459165A008146178
2011A008430561A008562202A008931057A009506736A009852115A009749639A009505080
2004A009506232A009762097A009986853A009917791A009514009A008947476A008398082
1997A007958222A007803608A008174695A009036197A009995926A010596306A010544744
1990A009878832A008998606A008225174A007489987A006840566A006756814A007428992
1983A008346232A009087039A009825686A010686107A011318173A011491943A011496192
1976A011654982A011949375A012326656A012906223A013653295A014289322A014718309
1969A015126195A015539984A015722470A015540635A015085363A014561246A014336707
1962A014782185A015823074A016914300A017502149A017332053A016571514A015817241
1955A015591549A015797581A016124812A016739666A017881086A019074068A019529196
1948A019184898A018755479A018846937A019472665A020257470A020761714A020709576
1941A020219953A019793487A019820348A020124391A020260641A020158093A020103435
1934A020188123A020196333A020029693A019906189A020025444A020169469A019858660
1927A019013793A018198308A017917165A018024106A018164677A018343920A018664093
1920A018942643A018995429A019015377A019411741A020347490A021498272A022266516
1913A022291577A021729796A021038247A020557986A020289951A020007008A019508384
1906A018602666A016917757A014200817A010933475A008179952A006714614A006544085
1899A007071731A007438350A007088942A006264095A005598327A005339437A005484257
1892A006291028A007908388A009786582A011076351A011403294A010900421A009698149
1885A007681832A004717525A000968194I96832869I92586138I88379879I84677142
1878I82307453I81819055I82893862I84605488I86270161I87900915I89827142I92152471
1870I94765926I97474873I99701830A000424849I98925880I95406706I90761018
1863I86233145I83314783I83179898I85897417I90469146I95615474A000396836
1856A004302725A007069354A008604258A009144506A009247342A009303801A009232291
1849A008904412A008546071A008466640A008768450A009431049A010294208A011028389
1842A011422881A011447150A010906830A009567156A007649858A005538339A002985735
1835I99185130I93525055I85849600I76208093I64868283I52686270I41287625I32564007
1827I27711280I26712087I28637090I32164546I35910781I38715433I39749121I38273556
1819I33538355I25160044I13521592H99678076H84823412H69706762H54469417H39157465
1811H24476139H11883431H02622302G96526612G92022434G87517390G82683962G78419444
1803G75960890G76185141G79544229G86404487G97046267H10995428H26594427H41734986
1795H55099754H66567389H76593522H85453102H93067922H99367840I04569331I08955264
1787I12486177I14731282I15105538I13182695I08992351I03190625H96965601H91672941
1779H88376937H87579383H89287337H93221599H98946775I05920311I13513095I21071888
1771I28117006I34468343I40048338I44660467I48119078I50469971I51990904I53066864
1763I53938448I54345398I53535818I50819311I45971336I39003129I29781823I18131849
1755I04373885H89749450H76296680H66225683H61161307H61553926H66539880H74474225
1747H83816010H93620196I03377285I12658866I21045171I28358541I34786500I40619624
1739I45956069I50778263I55132078I59056691I62503635I65468159I68059074I70379721
1731I72444575I74244634I75812233I77148882I78139433I78724690I79178377I79957784
1723I81197071I82594932I83853087I84994579I86216870I87585278I88916311I89907294
1715I90364942I90343698I90144363I90158982I90587969I91308324I92073615I92724621
1707I93195013I93519582I93847677I94284514I94783498I95246763I95577307I95669845
1699I95531722I95324394I95157538I94957267I94592877I94081722I93680461I93701129
1691I94198961I95022224I96139015I97541774I98876695I99654805I99864653I99983188
1683A000366302A000886458A001195182A001210806A001241199A001573759A002062157
1676A002348916A002436629A002705094A003278183A003741017A003736480A003566239
1669A003823472A004594597A005399208A005852536A006007654A006016079A005847711
1662A005517599A005299829A005457756A005925918A006466382A006980417A007468671
1655A007867628A008108082A008225825A008315122A008461236A008729706A009125134
1648A009561107A009914623A010090049A010030781A009725874A009227610A008650203
1641A008161013A007949364A008094040A008446260A008778316A009054633A009344057
1634A009523083A009426945A009257280A009407717A009876095A010279373A010442340
1627A010545392A010680418A010691508A010535670A010452566A010660182A011133602
1620A011732037A012310237A012723668A012935965A013046362A013085031A012978885
1613A012804540A012832769A013263988A014063703A014952426A015511686A015578299
1606A015540347A015903513A016620555A017188025A017311094A017126237A016787268
1599A016168524A015126051A013881003A012953753A012764860A013360919A014411962
1592A015458251A016270784A016841926A017000573A016527730A015800749A015636198
1585A016238594A016974072A017347320A017494588A017616940A017669294A017723880
1578A018005598A018476713A018878983A019153716A019372278A019358091A018866380
1571A018113835A017708253A017960446A018546567A018970584A019147379A019302929
1564A019468993A019432695A019236748A019386465A020324806A021811244A023095540
1557A023749066A024026751A024280888A024474822A024566639A024796508A025148007
1550A025128420A024612512A024279880A024603003A024944424A024351462A022906503
1543A021578279A020986109A021017507A021454775A022224676A023119736A023854422
1536A024309622A024461499A024408497A024588243A025422596A026664620A027592735
1529A027840822A027678719A027612319A027945963A028593725A029247758A029783181
1522A030323069A030876136A031237357A031283014A031035574A030497196A029774395
1515A029262232A029327117A029819692A030162334A029987556A029612652A029791390
1508A030869294A032253689A033006810A032882010A032303883A031444397A030052441
1501A028247773A026748444A026098447A026151233A026378292A026312040A025755949
1494A024917851A024312358A024343396A025038546A026092253A026845158A026398312
1487A024373282A021606365A019446524A018281196A017400538A016408979A015951835
1480A016641583A017931496A018699092A018685626A018752166A019688059A021260914
1473A022687653A023675828A024543019A025483664A026326226A027067105A028027698
1466A029261008A030322133A030836957A030876928A030689692A030481860A030424897
1459A030491941A030404805A030072317A029873702A030223258A031069853A032023821
1452A032735387A032956041A032494287A031340625A029671199A027652866A025579010
1445A024170923A024101790A025098606A026171901A026837813A027442442A028303584
1438A029249558A030028388A030647924A031295400A032078479A032762755A032876105
1431A032325631A031647836A031333928A031220722A030884777A030315147A029821564
1424A029466032A028842391A027321386A024530128A020797721A017016488A013806325
1417A010987125A008057817A004827418A001281814I97268985I92694879I87776547
1410I82980999I78786046I75265719I72075072I69354748I68021123I68435202
1403I69835224I71864504I75305399I80534183I86618780I92354470I97039045
1396A000182090A001349436A000452359I98175136I96035027I95276649I95765911
1389I96672494I97608890I98780700A000423262A002297282A003929621A005316392
1382A006850504A008392537A009210975A009091864A008746990A008980603A010029269
1375A011863822A014546844A017883391A021140219A023486359A024672500A025230391
1368A026012891A027559248A029907189A032740863A035480919A037540444A038875726
1361A040097081A041790127A043903807A045827226A046811439A046492202A045362304
1354A044478693A044423891A044902423A045458155A045997034A046453819A046609080
1347A046439560A046185567A045994874A045773503A045334291A044582538A043695183
1340A043099124A043102148A043583921A044134972A044464579A044570584A044406752
1333A043575064A041760746A039342304A037078115A035486536A034949457A035725622
1326A037424790A039355410A041598355A044597517A047648025A049230026A049133743
1319A048931888A049847905A051249295A051939620A052027909A052428882A053240983
1312A053831569A053905383A053445718A052308403A050636889A048951836A047539932
1305A046318216A045143814A043948240A043008674A043126705A044997194A048430672
1298A052397844A055840612A058579300A061235244A063956217A065956474A066933775
1291A067763663A069047166A070288469A071075149A071819412A072870599A073741823
1284A073565461A072008737A069510359A066760437A064380450A063114590A063580736
1277A065513157A067902505A069894193A070861772A069989180A066892583A062753801
1270A059866260A059572804A060942076A061830583A061022011A058967455A057121595
1263A056845638A057638871A056607632A052140827A046878340A044232118A044734775
1256A046724084A048571387A050009576A051859181A054467307A056909010A058194314
1249A058102928A056409666A053100412A049786765A048632599A049078292A047642549
1242A041650709A031239302A017321323I99443084I76248205I47266362I14050102
1235H79760620H47303819H17515277G89082900G59762087G27098895F88693603
1228F43521815E93621416E43492300D97303244D57186614D24104805C99115196
1221C83111514C75977963C76557603C83300767C94793498D09667534D26265149
1214D42904353D58479336D72553513D85100527D96465074E07408556E18856675
1207E31465297E45442940E60720217E76954235E93300342F08816525F23371320
1200F37478047F51185317F63962740F75587941F86253269F95817574G03575416
1193G08880103G11826911G13317598G14487896G16171292G18860147G22593562
1186G26679342G30369045G34269821G40434642G50412165G63633914G78339797
1179G93360020H07889829H20125852H28154320H32653387H37034784H43948765
1172H52579268H60385069H66540024H72083793H77614102H82954148H88556612
1165H94847673I00362712I03038892I03395864I04275154I07553010I12694009
1158I17724467I20423547I20050515I18742239I19431916I22168227I24494276
1151I25283548I26123662I29157031I34587742I40107390I43013654I43148536
1144I42945097I44384654I46927032I49000024I49968971I49866783I48756977
1137I47103826I46134591I47443588I51955042I58556626I64133525I66432856
1130I66312953I65926887I65782139I64874044I63136781I62125994I62837923
1123I64529818I66299127I68278284I70712786I72799388I73056477I70781631
1116I67253311I65185000I66336574I69826367I73227582I75117227I76001413
1109I76895537I77933185I78914879I80318642I82545243I84798485I85854569
1102I85680583I85332108I85547933I86232281I86875725I87004126I86661052
1095I86575496I87277635I88253495I88830038I89332839I90326127I91081840
1088I90157110I87095509I82592484I77337703I71591283I65984210I61492200
1081I58359020I56027139I54278209I53743287I55147633I58500311I62956314
1074I67295583I70872728I73955499I76975833I80075742I83577994I87746373
1067I91690934I93836083I94048308I94025696I95219830I97513400I99969722
1060A001922162A003255643A004165466A004742442A004816760A004457051A004246698
1053A004647455A005596022A006650233A007320395A007455205A007439362A007869428
1046A008883528A009920384A010297232A009924705A009265922A008724809A008377414
1039A008285237A008580998A009102378A009554841A009935363A010402661A010828047
1032A010793840A010137935A009262753A008997454A009956031A011823783A013740576
1025A015003340A015357072A014977775A014242873A013653367A013591291A013867321
1018A013974477A013803372A013662513A013777735A014151556A014770735A015534874
1011A016166148A016494027A016667148A016868787A016971407A016725552A016070225
1004A015149096A014353702A014270454A014992610A015915972A016532915A016549910
997A015692585A014053909A012230226A010724779A009550088A008504087A007490923
990A006485106A005510830A004737185A004354071A004419027A004903966A005528617
983A005858222A005796869A005595086A005290611A004577386A003416306A002233190
976A001429731A000979428A000666528A000470362A000670489A001468327A002619328
969A003738496A004678925A005494051A006168893A006539116A006534507A006358721
962A006415396A007037738A007969813A008903980A010091633A011509298A012614927
955A013180092A013577897A014020782A014179717A013877547A013781336A015000819
948A017308288A019453221A021045088A022243543A023066590A023451648A023616632
941A023965395A024405112A024407703A023837859A023184405A022902903A023050243
934A023664089A024314375A024336339A023693615A022744184A021664696A020318684
927A018775715A018003150A018878551A020363261A021406454A021924666A022162168
920A022410760A022728557A022798770A022583881A022880218A024383580A026099887
913A026734545A026335804A025869946A026203152A027092742A027673822A027471103
906A026626020A026115082A027521225A029664646A030128631A029569588A029975746
899A032683540A036028153A038011703A038681216A038697635A038547846A038727953
892A039888169A041822174A043193390A043531063A043254458A042885459A042698367
885A042551890A042320150A042261098A042502633A042645652A042399581A042087473
878A042365086A043055988A043234294A042659191A041819005A041185571A040608092
871A039446220A037088701A032983118A026255869A015588308I99828862I78942028
864I54677814I30876506I12518439I03143240I03162684I10448472I21732111
857I34056420I45955493I57486356I69024276I80180019I90370559A000306098
850A011710721A023490968A031613342A034899767A033816606A027436969A013900519
843I91377313I59290664I21765094H84978890H49003923H11659105G90902258
836H03458020H32362235H64767186H94931569I19808476I39520188I54487914
829I64875196I72010908I77263744I80887195I83795332I88359715I93772351
822I97470408I99815684A002834218A007968880A013955538A019037269A023446679
815A027904915A031974779A034942471A037473687A040845089A044838691A048436073
808A051979732A056089564A059931793A062151189A062158534A059680536A054146125
801A044613216A028443579A001880970I64803110I22976151H87629217H65287126
794H43795591H07141029G63994847G32280366G20380216G30773043G58547573
787G90194866H17058781H39169995H58631891H76252176H91126499I02365058
780I10625194I17459096I24554551I33474767I43671573I52236760I58004496
773I62011924I65589286I69347402I72564046I74119114I73571161I70709617
766I65844215I61030879I57048367I52142998I46031036I41112988I41263209
759I48560523I60227276I71097052I78065115I79922857I75838302I64663763
752I45238379I22122787I08405654I10920811I26069363I47862493I69125528
745I83752915I90522364I91156303I87595864I81249569I71891437I57580334
738I37306338I11797508H80078922H41027014G98568496G62572141G42722379
731G41781949G56251843G80083973H05838946H28225902H47616648H66588561
724H85112620I01324745I14921830I26459751I35743348I42876467I48873639
717I54984810I61721132I68271155I73576490I77457387I80354724I82796571
710I85066449I87188338I89407301I92332145I96052886I99863858A003289634
703A006300894A008789334A010689924A012375193A014412610A016885855A019211831
696A020767835A021396012A021425394A021364902A021551706A022116727A023072927
689A024246754A025240545A025566336A024905681A023407864A021880518A021632074
682A023556356A027094975A030903429A034227446A036903481A038677039A039075276
675A037586605A033450488A025381044A011752201I91442630I66038220I42519711
668I31426836I37767659I54698698I70138475I77537253I78460471I77364204
661I76582637I75891376I74230016I70876329I65766080I59195317I51012308
654I39928939I23771400I00460795H68524078H26847337G75185946G16360185
647F58109163F11189814E83431955E74919158E79129666E87800137E94489183
640E95624518E90632227E82106540E75395170E76701826E90082797F15208549
633F47848121F82765708G16282770G46699489G73383801G95933796H13905581
626H26984668H35215209H38918019H38502499H34638810H28569408H21848496
619H15432491H09025416H01581125G92715784G83719306G77110088G75100396
612G78365938G85950512G96029143H06882787H17564966H27937990H38182685
605H48288393H57940342H66781126H74664774H81583145H87441621H92105600
598H95657682H98421001I00660921I02299237I02851368I01622451H98159231
591H92804423H86997871H82957172H82583636H86083583H91569385H96344769
584H98791585H98956281H97436356H94135743H88188981H78686533H65567116
577H50510165H36897957H27995961H24994783H27287777H34087400H44783549
570H58226093H72756046H86857444H99380947I09641196I17739590I24342759
563I29791473I33611377I34953068I33440920I29868960I26318027I25217799
556I27661302I32508053I37392754I40726997I42710691I44624604I47453454
549I51214091I55360866I59467314I63286858I66459646I68675369I70054723
542I70883458I70820158I68459255I61978723I51157776I39353548I32400536
535I34149897I43233440I54755949I64509150I71071199I75046365I77665006
528I79989686I82572968I85398649I88146626I90605900I92826016I94846510
521I96456884I97406459I97692066I97134031I94377628I87048775I74523181
514I60915225I53425781I56216751I66692322I78409341I86337995I88664694
507I85197514I75767008I59946206I37257152I07696822H73434345H40780010
500H18992786H14803522H27504971H50030841H74462559H95981603I13015767
493I25827829I35416333I42770175I48467697I52874011I56551256I60141508
486I63889686I67642762I71263548I74677510I77695036I80250304I82644190
479I85192617I87823356I90175329I91901358I92889173I93316575I93359423
472I92857414I91439677I88823341I84929547I80181459I75823683I73415899
465I73785906I76705565I81424779I87037685I92470628I96872476A000014298
458A001204472I98058041I88988250I77835535I72667674I77655140I88573597
451I98206894A003634868A006500445A008862428A011180339A013079561A014338868
444A015165371A015995763A017112266A018451796A019732416A020737013A021507345
437A022206960A022821527A023185845A023260376A023210114A023224517A023287889
430A023102957A022340618A020942829A018963452A016058919A011174073A002817078
423I90205716I74774801I60138192I49605805I43923474I42374171I45476529
416I54719222I69513898I86226664A000604308A009922904A012890308A008084678
409I91953205I60333569I16574765H76969506H60767175H72715427H99807701
402I25024514I39610131I43069969I37720270I26020394I11236880H98542993
395H93820179I00125498I15537045I34899706I53322729I68320556I79759169
388I88430649I94792211I98940787A001247464A002485022A003352286A004055573
381A004336211A003789842A002136331I99290631I95250220I89875032I82812990
374I73578866I61354726I44588453I21225638H89815343H51002380H08951170
367G71571212G47942593G43745912G58322962G85683340H18133372H49579098
360H76659630H98176082I14158843I24805952I29420025I26464360I15085158
353H96745166H75529805H56408318H41897089H29461660H12327829G84208712
346G45611864G06745539F82583369F82746985G05532609G41236228G79839126
339H15423922H45752856H70464924H90152007I05808546I18239942I28009129
332I35840279I42586395I48672937I53718013I56514528I55266168I48597682
325I37465992I26191139I20415914I23006109I31996250I42759877I51734895
318I57821436I61170442I61800563I59438076I54001529I45750109I35099904
311I22523832I07948150H89828590H66692405H41319106H21136927H11056496
304H06817038G98885213G83371479G67016118G60926552G70685153G93167743
297H21333669H49654352H75286182H96920376I14156107I27268971I36674704
290I42583227I45177887I44778354I41614064I35597304I26632008I15255183
283I02970767H92039707H84723169H82188352H84021322H89023478H96329646
276I05513289I15936218I26554737I36536869I45841783I54889391I63759197
269I72113023I79748439I86720751I93084402I98918391A004347662A009395907
262A014111016A018651779A022966419A026799862A030166004A033322159A036290211
255A038847208A040860140A042137955A041667848A036681247A021323566I84813176
248I13158931H00821811F67421278E57414384E10238233E29852547E89011699
241F56198851G13621353G57597134G91115273H18276461H42193786H64121005
234H83378454H98682700I09757859I17586200I23548013I28618727I33089346
227I36854450I39843819I41810662I41681973I37944381I30717787I23286531
220I20083641I22539168I27729139I31405232I31297499I27143090I18893468
213I06242501H89637900H69361888H42394633H04344226G61942812G29313607
206G08387093F97508390F99728506G17100199G45412169G76755344H03773804
199H20965246H23314051H05603461G66579714G15462460F71552211F52979611
192F64871627F98593784G40555625G80518145H13750247H39374227H57648253
185H67998449H70246434H67185412H63422038H61299573H59798660H57582934
178H55529389H56025421H61034343H71187151H85780333I02926691I19967843
171I34605094I45964996I54320049I60133442I63979848I67047351I70767012
164I75655674I80776510I84470966I85848663I85700963I85417444I84722294
157I80985926I70655318I51350413I24339950H96066364H75789271H70380596
150H80271631H99815550I21886653I41706890I57407069I69062371I77397114
143I83179829I87650379I92314214I97498781A001794409A003769678A003876331
136A003695864A003847381A003794091A003331042A002979110A002895718A002771134
129A003036286A004839948A008292510A011561076A012337962A010098618A006403586
122A002988255A000380849I98341776I96296581I92865912I86223352I75470383
115I60857974I42767006I21333658H96752656H68647006H34551745G91121613
108G41119206F98495557F79820845F91673826G28014335G75565606H21968255
101H60345822H86987069H97883850H90653224H70455922H50855256H44219969
94H49758917H52692906H35375728G92909645G41970986G07922750G04968453
87G30167550G69647361H10137527H45472794H74881320H99360639I19257570
80I33458852I41058405I43210468I41685358I36841272I29284351I22304766
73I20141901I24295013I33233376I44670405I57224945I70123424I81962506
66I90989662I96696835I99834696A001007370A000604164I99523596I97773226
59I91973228I78030836I57517970I39668321I34979497I45272225I63371186
52I80109661I88407893I82584346I58710232I20411377H81081211H57561765
45H60730880H86386834I17965425I41389093I53295868I58972722I65891024
38I77040573I88979395I96049358I96285707I92434117I90764259I97082325
31A007744556A015168612A016732321A014335843A011274821A008158492A002925315
24I95765335I90817477I91408207I96181791A000833888A001366647I97025434
17I92184157I89483492I84593029I72906472I55359207I37402980I25144342
10I23096990I32932935I50646549I68528965I83123514I94536199A000308259
3I95141695I80625568I73050644
##END=


$$ === CHEMSPECTRA PEAK TABLE EDIT ===
##TITLE=X7810
##JCAMP-DX=5.00
##DATA TYPE=INFRAREDPEAKTABLE
##DATA CLASS=PEAKTABLE
##$CSTHRESHOLD=0.93
##MAXX=3997.453
##MAXY=0.8887175311635621
##MINX=373.96442
##MINY=0.3111904555563401
##$CSSOLVENTNAME=- - -
##$CSSOLVENTVALUE=0
##$CSSOLVENTX=0
##NPOINTS=47
##PEAKTABLE= (XY..XY)
386.71320702892854, 0.764031409045073
437.708355144644, 0.7097890370719655
450.4571421735727, 0.7738663545216019
475.95471623143067, 0.7615855330028127
497.2026946129786, 0.5834901925938631
507.11841785770093, 0.6987462633358363
522.7002686708365, 0.5626759525058815
586.4442038154807, 0.7203989617248893
624.6905649022669, 0.7081068746168703
645.9385432838153, 0.5404599299604778
662.9369259890536, 0.577315627507853
684.1849043706015, 0.7615373122087107
718.1816697810787, 0.4223153583326691
769.1768178967941, 0.7301720370919104
797.5074557388584, 0.6298057430610504
830.0876892572319, 0.7618123288224878
859.8348589913994, 0.5649624458290163
889.5820287255665, 0.6155856245581224
932.0779854886628, 0.7397994990692033
946.2433044096947, 0.7124420994753725
964.6582190070367, 0.7799867982635417
1079.3973022673963, 0.6743987790584695
1099.228748756841, 0.7891340246676887
1131.808982275215, 0.7717317931179272
1161.556152009382, 0.7657867659643773
1185.6371941751368, 0.6828339094793541
1205.4686406645815, 0.7304992068202972
1240.8819379671618, 0.6415371885323492
1274.8787033776384, 0.476244627872559
1284.7944266223608, 0.4758506409751666
1318.791192032838, 0.7709258784729373
1408.03270123534, 0.6139600863595823
1434.9468071853007, 0.7518716443979858
1450.5286579984358, 0.7789429413959557
1491.608082869429, 0.5962462422054632
1558.1850817982795, 0.6546161163375366
1592.1818472087566, 0.747516035369948
1899.5692677951524, 0.789396821374083
1981.7281175371381, 0.7830992328422757
2100.7167964738073, 0.3111904555563401
2364.1917284050173, 0.8023181550824596
2852.8952311806097, 0.7127683157132889
2891.1415922673964, 0.7346341001857741
2926.5548895699767, 0.642249404529603
2959.13512308835, 0.7670235622907949
3008.7137393119706, 0.81376099421773
3032.794781477725, 0.8130388849291631
##END=


$$ === CHEMSPECTRA PEAK TABLE AUTO ===
##TITLE=X7810
##JCAMP-DX=5.00
##DATA TYPE=INFRAREDPEAKTABLE
##DATA CLASS=PEAKTABLE
##$CSTHRESHOLD=0.93
##MAXX=3997.453
##MAXY=0.8887175311635621
##MINX=373.96442
##MINY=0.3111904555563401
##NPOINTS=100
##PEAKTABLE= (XY..XY)
3987.5372767552776, 0.8187912093411336
3966.2892983737293, 0.8198136085347221
3950.707447560594, 0.8178108920190612
3943.624788100078, 0.8196222176702223
3932.2925329632526, 0.8188321581150334
3916.7106821501175, 0.8179907789217138
3902.545363229085, 0.8174719203630552
3892.6296399843627, 0.8207342002731625
3881.297384847537, 0.8190730799953494
3871.381661602815, 0.8196834910205032
3855.799810789679, 0.8176814308572234
3840.217959976544, 0.8186135878060309
3827.4691729476153, 0.8212666502094379
3817.553449702893, 0.8201095456564245
3807.6377264581706, 0.819799243273781
3800.555066997654, 0.8203517173376174
3786.3897480766223, 0.8243740789632024
3779.3070886161063, 0.8231716728529697
3772.2244291555903, 0.8230023355940113
3750.976450774042, 0.8194042432927637
3746.7268550977324, 0.8194874518899601
3736.81113185301, 0.8144177786491994
3724.0623448240813, 0.8198141432177463
3712.7300896872557, 0.8206133238362892
3702.8143664425334, 0.8231625551003465
3691.4821113057073, 0.8237507337404956
3677.3167923846754, 0.8196377747942514
3670.2341329241594, 0.8236472593323897
3657.4853458952307, 0.8254487504577093
3648.9861545426115, 0.8205955021723927
3629.1547080531664, 0.8196006408099159
3622.0720485926504, 0.8246215569181851
3612.156325347928, 0.8247331964161264
3596.574474534793, 0.8240599626186772
3588.0752831821737, 0.8236480348710796
3568.2438366927286, 0.8260030735646976
3391.177350179828, 0.8264509434335428
3382.678158827209, 0.8259398328126387
3292.0201177326035, 0.826405345565917
3031.3782495856135, 0.8126346463538485
3008.7137393119624, 0.8137609933900473
2959.13512308835, 0.7670235622907949
2926.5548895699767, 0.642249404529603
2891.1415922673964, 0.7346341001857741
2852.8952311806097, 0.7127683157132889
2799.067019280688, 0.8195253597576201
2770.7363814386235, 0.8224521268977247
2362.7751965129005, 0.8012143367416721
2342.943750023456, 0.8237732640912723
2100.7167964738073, 0.3111904555563401
2008.642223487099, 0.7604270569795654
1993.060372673964, 0.7804593438367219
1981.7281175371381, 0.7830992328422757
1966.146266724003, 0.7963350404541039
1951.9809478029708, 0.7988669267995
1932.149501313526, 0.8155423395461316
1923.6503099609067, 0.8165714711108019
1899.5692677951524, 0.7893968197187176
1879.7378213057073, 0.8227378719346592
1592.1818472087566, 0.747516035369948
1558.1850817982795, 0.6546161163375366
1491.608082869429, 0.5962462422054632
1450.5286579984358, 0.7789429397405903
1434.9468071853007, 0.7518716443979858
1408.03270123534, 0.6139600863595823
1318.791192032838, 0.7709258784729373
1284.7944266223608, 0.4758506409751666
1274.8787033776384, 0.476244627872559
1240.8819379671618, 0.6415371885323492
1205.4686406645815, 0.7304992068202972
1185.6371941751368, 0.6828339094793541
1161.556152009382, 0.7657867659643773
1131.808982275215, 0.7717317931179272
1099.228748756841, 0.7891340246676887
1079.3973022673963, 0.6743987790584695
1032.6517498279904, 0.8056794995072473
1015.6533671227521, 0.8050602066190398
964.6582190070367, 0.7799867982635417
946.2433044096947, 0.7124420994753725
932.0779854886628, 0.7397994990692033
889.5820287255665, 0.6155856245581224
859.8348589913994, 0.5649624458290163
830.0876892572319, 0.7618123288224878
797.5074557388584, 0.6298057430610504
769.1768178967941, 0.7301720370919104
718.1816697810787, 0.4223153583326691
684.1849043706015, 0.7615373122087107
662.9369259890536, 0.577315627507853
645.9385432838153, 0.5404599283051124
624.6905649022669, 0.7081068746168703
586.4442038154807, 0.7203989617248893
522.7002686708365, 0.5626759525058815
507.11841785770093, 0.6987462633358363
497.2026946129786, 0.5834901925938631
475.95471623143067, 0.7615855330028127
450.4571421735727, 0.7738663545216019
437.708355144644, 0.7097890370719655
419.29344054730245, 0.8200384369526194
405.12812162627006, 0.8200824845705479
386.71320702892854, 0.764031409045073
##END=

##END=

