##TITLE=X9626
##JCAMP-DX=5.0
##DATA TYPE=LINK
##BLOCKS=1


$$ === CHEMSPECTRA SPECTRUM ORIG ===
##TITLE=X9626
##JCAMP-DX=5.00
##DATA TYPE=INFRARED SPECTRUM
##DATA CLASS=XYDATA
##ORIGIN=Default
##OWNER=
##XUNITS=1/CM
##YUNITS=TRANSMITTANCE
##XFACTOR=1
##YFACTOR=9.772605e-010
##FIRSTX=3996.5625
##LASTX=399.65625
##MAXX=3996.5625
##MAXY=1.0493254708158914
##MINX=399.65625
##MINY=0.6031398803029154
##NPOINTS=1765
##XYDATA= (X++(Y..Y))
1765I57277946I57592297I58201907I59096837I59874906I59956391I59352574I58804992
1757I58762115I58846161I59189178I59900644I59959623I58873912I57186947I56117460
1749I56852591I58468014I59163683I59148252I59267552I59497185I59825747I60550570
1741I61101690I60696035I60062333I59247425I58466489I58777729I59357392I59702483
1733I60264032I60331245I59975908I60031044I60270985I60994711I62229729I62107563
1725I60418951I59140689I58391347I58320231I61054727I66127456I69456985I69164470
1717I66355381I62907955I61946911I64095949I64958980I63714996I64492272I65791331
1709I66227360I66453456I64679699I63850824I66019806I69388614I71711721I70182236
1701I68322237I68788518I67932501I65913193I66792691I72405134I79381227I76335736
1693I67313193I62678017I63084221I66526402I70780685I74621385I75341634I71869812
1685I68609020I66897718I65913071I65874402I66571535I69417829I73857405I74256411
1677I72595123I70580755I66599836I64307834I66031089I69283769I70350939I71476172
1669I71791071I69032972I66407468I63939567I62176240I61934225I62353847I62867335
1661I62679603I62446127I63824719I64143400I61943496I61261244I63858509I67494094
1653I68719902I68136823I67245065I67224755I68898608I69347079I69205944I73218091
1645I80542568I82604754I79553224I79819025I79290289I74324722I72289373I75627746
1637I80973778I80981829I74125280I67863276I66247853I67110823I68020878I68034418
1629I66623012I65194712I66017244I69899418I73274142I71363033I67313071I65678985
1621I67034035I67947810I66796045I65456732I65125548I68181774I74178891I75817734
1613I70350146I65264120I64193291I66970969I72227100I77535928I78319730I76984686
1605I77625524I74575214I68325653I64690434I63801238I64392002I66733590I68866953
1597I69766883I74455366I82650497I83243457I74722753I67833390I65530288I65566456
1589I65385311I65280710I66924433I70805509I75198121I73328425I67210910I65325295
1581I67995445I71544970I72336275I72095358I72782489I73291830I72874465I70500307
1573I67109847I65768582I66765855I67966352I68209037I67788805I66986461I67324903
1565I69728093I70547880I68240509I66562814I65909960I65080841I64087044I63561541
1557I63965122I66023831I69336405I70249876I67860897I65794137I64829799I64453786
1549I64773443I65461794I65449291I64769601I65065044I66064452I65757481I64361384
1541I63656078I64051608I64474585I64439880I64911955I66316225I67360949I67269096
1533I66696690I65848603I64852427I64535027I65042538I65601099I65836648I65629582
1525I65564687I66792996I68329190I68102180I66850450I66483220I66651617I66092020
1517I65487045I65598049I65645867I65545230I65427822I65160008I65469052I66182836
1509I66160879I65653186I65548524I65712896I65893980I66288291I66755303I66438696
1501I65357315I64912138I65431908I65673618I65551025I66159355I67066970I67541667
1493I67558196I66838191I65991201I65983211I66676746I67221584I67378576I67122838
1485I66608191I66948585I68028441I68584074I68549797I68322176I68142312I68092421
1477I68040639I68108157I67903652I67219266I66879604I66860757I66780859I67250372
1469I67954824I67754772I67175962I67289162I67915729I68275579I68096569I67935185
1461I67940491I67780632I67620224I67762945I68046068I67903286I67428040I67414317
1453I67711224I67766055I67768556I67677556I67472137I67486348I67570028I67398764
1445I67200907I67497814I67861873I67592351I67308192I67648646I67813263I67102467
1437I66100315I65373844I64890242I64482087I64020929I63742808I63969757I64218481
1429I63707555I62389405I60890354I59923150I59360747I58885501I58558952I57604007
1421I55901001I55002290I55024430I54541499I52922051I50628646I48513764I46506836
1413I44498384I42978413I41295473I38721080I35758415I32604968I29415293I26689519
1405I23704653I19559483I14733648I09852798I04373560H98095210H91986173H85800897
1397H79233447H73557207H68651289H63368383H58166230H53995749H51057297H48855014
1389H47130477H46307945H46099781H46204016H47348400H49323734H51261497H53516416
1381H56952803H61575719H66360995H70835214H75235573H79290780H82863177H86028274
1373H88232021H89267901H89801943H90390451H91182670H91619614H90991950H89721374
1365H89240638H89977843H91112957H92816329H95746181H99578647I03401659I06935327
1357I10367506I13627383I16623105I19003118I20459657I21244802I21779332I22328805
1349I23124135I23549002I23525276I24478574I26108391I27094198I28025051I30176467
1341I32645162I33798512I34683378I36243176I37256185I37253989I36813264I36346557
1333I36153884I35955357I35630760I35803549I36682193I38109701I39923651I41355306
1325I41971382I42410216I43029036I43761789I44236730I44042716I43640538I42848379
1317I41346218I40285148I40173594I40800039I41565300I41043883I38723276I34883796
1309I30248498I25556722I20526504I14920709I08577220I01527083H96368112H96080903
1301H99083091I01103863I00205640H99086201I02020078I08828444I16011543I21588367
1293I25527263I28185215I29627482I30364077I30822002I30554188I29737389I28755120
1285I27170254I25293117I24182216I23993143I24056513I24404470I25640586I27468930
1277I29227500I30800655I32569410I34319075I35080494I34965952I34968879I35471816
1269I35956821I36107165I36184380I35833069I34122743I30105900I22565513I11191624
1261H97987316H86337928H79396722H76289141H70448223H58625801H49395216H52670524
1253H64958860H75525465H79202403H78476725H79047850H83357575H89221060H94335263
1245H97742191H98389556H95710318H89792856H83165330H80856799H84138267H90066769
1237H96374150I01973603I06500214I09918303I12460919I15128385I17938632I20017957
1229I21429118I22805332I24287061I25606369I27117069I29010675I30896229I33017149
1221I35096108I35888815I34903618I32586732I29337467I25045430I20146161I14537499
1213I05639745H94141554H88190668H93163737I03888860I13142317I18983906I22468171
1205I24639287I26222933I28006265I30099923I32363625I34690087I36393337I37216174
1197I37605362I37711792I37794313I38350739I39209440I39766964I39721037I39614607
1189I40176278I41357928I42814407I44270520I45528775I46485794I47231050I48110304
1181I48971322I49306288I49427051I49580262I49292565I48745775I48439842I48267785
1173I48257965I48304562I48118843I48181421I48748093I49535677I50396817I51116578
1165I51822373I52804276I53964336I54913425I55239547I55213260I55212406I55011195
1157I54829379I54999484I55159526I54987164I54548452I54293202I54440253I54456659
1149I54346814I54472578I54457574I54554795I55392636I56202482I56133378I55778103
1141I55912528I56318427I56358986I56089587I55903684I55835191I55992061I56374295
1133I56900530I57273006I57202378I57067281I56983052I56820997I56782695I56963352
1125I57256050I57560520I57747337I57898413I58228805I58628726I58925328I59115073
1117I59269443I59466750I59872039I60294223I60329476I60346127I60629615I60798684
1109I60962141I61401769I61740882I61765278I61786930I61890433I61946179I62053037
1101I62212408I62249673I62224057I62353176I62425146I62363972I62485223I62548349
1093I62866786I63656383I63935419I63661018I63604174I63891383I63971587I63678889
1085I63966159I65191601I66216565I66478645I66497797I66206745I65552488I65438434
1077I66036883I66232788I65971744I66352759I67006222I66927787I66449491I65761812
1069I65185136I65714665I66531281I66273287I65434287I64935132I65149212I65836282
1061I65939297I65349753I65529617I66727918I67690609I67478785I66443026I66176127
1053I66945292I67689755I68101570I68094007I67825156I67634313I67720861I68032222
1045I67908958I67889502I68867197I69821654I69905029I69813298I70324895I71081130
1037I71375048I71228729I70646992I69850137I69471318I69418561I69491324I69838793
1029I70331116I70763547I70974699I70741895I70089590I69914910I70613629I70920417
1021I70291289I70012070I70579169I70797458I70510249I70534035I70656262I70852167
1013I71589372I72318222I72561395I72292910I71292770I70466335I70609360I71156149
1005I71311739I70838078I70578559I71086619I71509778I71238122I71035325I71266483
997I71208724I70759460I70421262I70632659I71723249I73004865I73674125I74008054
989I73942366I73233217I72419041I72115913I72483814I73043533I73226752I73337695
981I73594409I73587395I73450103I73495603I73549519I73255052I72314684I70730550
973I69016443I67466282I65981076I64828580I64037214I63568433I63395644I63190956
965I63560992I64264652I63955485I63308548I63026828I63333005I64511119I65791758
957I67208592I68233617I67664748I66896925I67691829I68971797I69917594I70270308
949I69513951I67697074I66358248I66547505I66763537I65758884I65119692I66075308
941I67160287I67458597I67703051I68188178I68541624I69094330I70175039I71032763
933I71285817I71652621I72701858I73946391I74644501I74701711I74633461I75416593
925I76941870I77483109I76570126I75849450I75729358I75553092I75860550I77079467
917I78419452I78788389I78725873I79146959I79129515I77705057I75745337I74793808
909I75151036I76081889I76925585I77987936I79797129I80856308I79617936I78334856
901I79043456I79997059I79998462I79635623I79011985I78612551I78891038I78430918
893I76915095I75584747I75057170I75758085I77683527I80655036I83348180I84836069
885I85430249I83993897I80830204I79113414I79397634I79705764I81148397I83705041
877I84024576I81871025I79965344I80376183I81921282I82239231I81339240I81486351
869I83951569I85981856I86775296I87589899I85889698I82069431I81009946I82316446
861I81302584I79090786I80947552I85168656I86561398I85081377I82841218I81399621
853I81248240I81778928I82211724I81888652I81586133I82068943I82299857I82350968
845I83131660I83941445I84795936I86345671I87213093I85640548I82908126I81736539
837I82274484I83112691I83508953I83795492I84621866I85542168I85957216I85531922
829I84625465I85227513I87119166I87674250I87057443I86557312I86763890I88206463
821I89343467I88447806I86318652I85495205I87133011I89257957I90293350I89939477
813I88281726I87125448I87550315I88329361I88045994I87469746I88005617I88400538
805I89054245I91532028I93789813I93655205I90552930I86138910I85133464I87794770
797I88298682I84568743I82356823I86507604I91953357I92669764I91573075I93109940
789I95873956I96071203I94110141I91942806I90391180I90878076I93279680I94754578
781I94232856I93870444I93200025I90980420I91109661I94634973I95742946I94402047
773I95383340I96015578I93071455I89479052I87756040I87961886I89716248I90880699
765I90249375I89661965I90658445I90699066I88382606I88154437I91041350
758I92030573I88779722I84515009I82510217I83393069I85514844I86458627
751I86385986I87708466I90024011I89221301I85676655I84503238I85658662
744I86555787I88346438I90668204I90935103I90356171I91289769I92777536
737I93245220I92932272I92491608I91587530I89971253I87616308I84989768
730I84072637I85604685I88396573I91123201I92943006I94217791I95874627
723I98242990A000685397A000223569I96255031I92936053I91767638I92037160
716I93862210I95788629I95231166I92564615I91462192I94574836I99955389
709A001979089I99953743I98782461I99208670I99693065A000965105A003673862
702A004099766A000392638I94922427I89547667I87427722I89284854I92423724
695I94984211I97681807A000288525A001126000A001050249A001775012A002799060
688A002386269A000043339I98018053I98794964A000108478I97641064I94822705
681I94933832I96367622I97853315I98649926I98120641I98663710A001703103
674A002437563I96523272I89212335I84854427I83646184I82864578I80970851
667I80173935I80076287I80427721I82481673I83522921I80134412I74654320
660I70957195I70231639I70019876I70733722I76170449I81482448I79995412
653I77062023I75146888I74824731I76210947I80466267I88885848I95766001
646I94571603I92187870I93640262I99076745A006367493A011133923A014188685
639A018523905A019497757A016422501A010840005A006140788A005618639A007888501
632A013931911A020285219A014584277A005440726A001784587A001689684I99326566
625I94438946I86432340I69126960I47457146I26037519I07453268H95425305
618H85595294H73968107H36283494G52871677F93469676F63315570F65951503
611F98489587G39808138G82011311H23736737H63781479H87286042I00195455
604I12158828I18896200I18614724I13374207I04709074H96702529H88188351
597H83354708H92809498I13175923I33828032I48340608I58562733I66576354
590I70987996I69428624I56823498I31433503I11157102I14208937I28269871
583I31135804I18105261H92159572H58332188H34310234H43325336H77435477
576I08706705I37314127I56894309I65619152I73605083I84791606I99885920
569A001479020I84687127I68395305I52493341I34058153I14320247H96018082
562H75106880H40751736G74445307G10318534F73992143F49792459F39085086
555F47196841F69681564F99385492G30239233G62322807G89824147H13958447
548H35818250H49337091H52015292H43990754H34341706H39745497H56348315
541H72115000H70219809H42060920H20127805H23160732H27791029H15024397
534H02517101H08376987H28407349H52276519H73764456H93698085I11644425
527I22268423I23458247I23357611I24180692I18453035I04947002H89404218
520H72943937H65589025H75688740H92534914I07136965I11546472I01853510
513H86427707H78455378H83981580I00130377I14654176I13036069H97324094
506H78861155H75625980H90083298I06566511I10483877H91047086H41991023
499G84433896G44581643G41590067G69908145H07220161H41747606H68889827
492H89143662I04808735I14007177I18060371I20622078I23410612I26157672
485I25744820I17408737I02019773H87726279H81509592H81302891H77811185
478H60745502H28136119G84174255G44099687G22428348G16706059G24525360
471G44524921G62375931G68212092G72271263G82737720G89897886G84785817
464G76604836G81875788H04447484H31635327H51719727H64323572H74002445
457H84196514H94231517I02483126I09005564I14448634I18561722I20529432
450I20522052I19508494I17414654I11521039H98462440H80464440H63459566
443H44978817H16562055G81379072G54636956G46152175G54676905G74667561
436G99403909H22883038H42593254H57712331H68259175H77427060H88886399
429I01668096I10285899I06842986H84435723H45029806H07541708G93958765
422G98025865G98052641G95324061H04637961H27733453H54845117H77790875
415H94805813I07216071I15644374I20068641I21242911I20966375I21475411
408I24331463I29460243I35438575I39989217I38529140I24890511H98228355
401H64697999H27041321G82747540G36937509G06697282G06394398G30260092
394G61765101G93824096H23849632H48062429H66796902H82173424H94952986
387I05211645I12965319I18460049I22508425I25799530I27384152I24462839
380I16782171I11288356I13180192I19171272I25966037I32705848I38321281
373I41926675I40787596I32883395I24120737I23451964I29693902I31683081
366I20501498I03704482H99961308I11024873I20301262I19361687I17452895
359I24796706I37549493I47483311I53285072I57093935I60501472I64064721
352I67676154I70848935I72839699I73587090I74361866I75874579I77333314
345I78352788I79302548I79311453I76132207I66899914I51222277I37452761
338I34390191I34969123I26063562I09723008H95653108H89011920H95298808
331I11962862I24383184I26571256I28039262I36718056I49042560I58541081
324I64314909I68772782I72825000I76299324I79672340I83185271I86528158
317I89159395I90929797I91707195I90015777I82979913I69624468I56091477
310I52222356I59667779I70831796I80164786I87093977I90744931I88390657
303I78347237I65617018I55759256I37863112I03817561H81356808H96557674
296I31304506I58360363I72841956I80543910I86354149I91621380I95481719
289I97098666I97644358I98887793I99337972I95184751I87972987I86506811
282I92791015I99625364A003717837A006230689A006933800A004589040I98050806
275I89551205I87799710I95757523A005254641A011225349A014649294A016519722
268A017396415A017678867A017579999A017273639A016313265A013728260A010843603
261A012151567A018098976A023512344A026357109A027869825A028202105A026366017
254A021156727A014984381A010783404A002026114I72604028I15802952H65042907
247H65850618I06108282I37909100I43174623I38334089I44794437I64685310
240I86095423A001822890A011221995A014544937A009215494I92491913I75219895
233I72929479I73474927I56018287I40584799I56993177I91152416A015380521
226A025656563A030199577A034515465A039178634A043053918A046099593A048008873
219A045714126A030818157A002430427I85197688I92211047I97110926I87780010
212I87467733A006977165A030583339A046001275A053509336A054657682A047757463
205A022911760I62110857H75824446H25375153H41669842H71301190H63982141
198H41004363H47374749H81139007I13607316I32536841I15790814H35571357
191G16541260F34339454F33579194F89982911G61294124H25836188H74908963
184H98193834H78576568H20297117G81740142H09233614H70868821I18078181
177I35590566I27172450I15887181I23317051I40241112I49942552I50132541
170I41508761I19442135H76619166G98214573F90566356F17174111F26177563
163F88279721G54579258H05175418H40416587H65607322H84153698H97243768
156I06668367I14249192I19741909I22270070I22409253I21451319I20473198
149I18684559I14164840I08675783I03401354H96330236H87470297H77949514
142H68819321H61672269H54902754H42065433H21598190H03699545G97245722
135G99048755H02498926H07036271H10873433H06636532H00816473H07309818
128H27722779H45100556H34480583G89794017G53688049G64087171H00809703
121H33180731H55850929H72661790H87422846I01952683I14629413I24602265
114I34086270I43032391I50458662I55041812I43582108H96636658H32862294
107H08547703H35699073H75259969I03717290I22239513I35753231I46514521
100I54970391I60632726I60587714I48334265I16146090H76920220H66271765
93H89980161I19631941I41110120I56590083I66413262I73103366I80129106
86I87014687I91155649I87648573I75104377I66084640I62629773I35742801
79H85694528H68194951I01265674I43376688I70227065I85100101I91467194
72I81763680I52567934I31062919I40656403I65764556I85546926I97623682
65A006659033A016627921A026413346A033057522A035218942A017821526I52233212
58H67035196H41001740H73150820I06971129I32686514I60651389I84963297
51A000724371A007179474A011410642A020268751A030737523A036498057A037066499
44A038614952A043448778A046255121A047103270A050211644A053584718A056500240
37A058992599A053602650A038070176A030666776A041796028A055127198A062966929
30A070765069A073741823A064802046A044925139A014657527I81322345I60378269
23I54189272I48165807I30113280I02324609H83442719H93749927I24182460
16I42033166I29676458I12870172I27097308I63477738I99859450A024920395
9A031286325A033246838A036843757A037603834A032049696A024941132A027794805
2A041220512A053517875
##END=


$$ === CHEMSPECTRA PEAK TABLE EDIT ===
##TITLE=X9626
##JCAMP-DX=5.00
##DATA TYPE=INFRAREDPEAKTABLE
##DATA CLASS=PEAKTABLE
##$CSTHRESHOLD=0.93
##MAXX=3996.5625
##MAXY=1.0493254708158914
##MINX=399.65625
##MINY=0.6031398803029154
##$CSSOLVENTNAME=- - -
##$CSSOLVENTVALUE=0
##$CSSOLVENTX=0
##NPOINTS=72
##PEAKTABLE= (XY..XY)
405.7734375, 1.001634483128886
426.1640625, 0.8921119607238059
436.359375, 0.8633536732912994
468.984375, 1.014464979232848
513.84375, 0.8218777809332699
540.3515625, 0.9098910137533994
556.6640625, 0.8484526319117355
589.2890625, 0.8465731781997825
615.796875, 0.7901617325076314
650.4609375, 0.7365495596097644
662.6953125, 0.7826063068122164
674.9296875, 0.7791167529045809
734.0625, 0.6031398803029154
754.453125, 0.8950603644476505
766.6875, 0.7639637620409909
783.0, 0.619171919918037
801.3515625, 0.8218803442875614
809.5078125, 0.8066065347083564
827.859375, 0.9840790077564825
838.0546875, 0.962794785173724
866.6015625, 0.9191963709631394
893.109375, 0.9169968409831845
903.3046875, 0.8453722638162735
931.8515625, 0.9878575248895815
956.3203125, 0.965337638494455
976.7109375, 0.9655069752621135
1005.2578125, 0.8613151948644839
1029.7265625, 0.930569295735738
1076.625, 0.86879623344516
1086.8203125, 0.9131426252517555
1131.6796875, 0.8965904748941474
1139.8359375, 0.8794966378367339
1150.03125, 0.902453128064622
1170.421875, 0.8905661144287379
1205.0859375, 0.6903313425866789
1233.6328125, 0.9000240601156875
1254.0234375, 0.7772387895148904
1260.140625, 0.7759045396632824
1292.765625, 0.7291850476165874
1343.7421875, 0.758945230331778
1362.09375, 0.7004085215713695
1411.03125, 0.7247266796714534
1427.34375, 0.85571468302779
1441.6171875, 0.858479741931969
1455.890625, 0.8459059633660124
1486.4765625, 0.7842682633818104
1494.6328125, 0.8014785087782025
1506.8671875, 0.815369192776413
1531.3359375, 0.6245526106869029
1578.234375, 0.815338436433957
1592.5078125, 0.890437845079071
1614.9375, 0.8632676636174339
1647.5625, 0.648232105595985
1692.421875, 0.9832616495512739
1712.8125, 0.9696260139301349
1727.0859375, 0.952972535340324
1739.3203125, 0.9479621090296979
1753.59375, 0.9581332848383205
2824.1015625, 0.9182482406441235
2866.921875, 0.8679936563050139
2926.0546875, 0.8608265558191395
2946.4453125, 0.8585006035118624
2956.640625, 0.830080393485768
2991.3046875, 0.9137052937344959
3011.6953125, 0.9029820009247514
3044.3203125, 0.8786414303323604
3052.4765625, 0.8757044713062314
3078.984375, 0.9187945165592369
3111.609375, 0.9143549843329799
3144.234375, 0.902524772986398
3180.9375, 0.8690197505121989
3225.796875, 0.8268598950299505
##END=


$$ === CHEMSPECTRA PEAK TABLE AUTO ===
##TITLE=X9626
##JCAMP-DX=5.00
##DATA TYPE=INFRAREDPEAKTABLE
##DATA CLASS=PEAKTABLE
##$CSTHRESHOLD=0.93
##MAXX=3996.5625
##MAXY=1.0493254708158914
##MINX=399.65625
##MINY=0.6031398803029154
##NPOINTS=207
##PEAKTABLE= (XY..XY)
3980.25, 0.9369603438859575
3965.9765625, 0.93437582701833
3957.8203125, 0.9373377003236459
3939.46875, 0.9366714402733844
3927.234375, 0.9381465358400339
3908.8828125, 0.9365285081071755
3894.609375, 0.9400727192173155
3888.4921875, 0.9418005988484579
3876.2578125, 0.9419333381876519
3866.0625, 0.9463030734917385
3859.9453125, 0.9439488099477764
3847.7109375, 0.9407872002324285
3827.3203125, 0.943910901035721
3811.0078125, 0.9423799560087569
3790.6171875, 0.9400603216906125
3782.4609375, 0.9405605832950834
3774.3046875, 0.939402643942062
3762.0703125, 0.9452305476836774
3755.953125, 0.9471666854364119
3747.796875, 0.9572786734628519
3739.640625, 0.9501799988026665
3727.40625, 0.9442758599467065
3717.2109375, 0.943246666846476
3704.9765625, 0.9437199277205924
3694.78125, 0.9431790756012539
3682.546875, 0.9422680176593055
3672.3515625, 0.954768542732703
3662.15625, 0.941884879748499
3641.765625, 0.943574612016024
3635.6484375, 0.943330709294955
3623.4140625, 0.9433742804543475
3615.2578125, 0.9499903956067589
3603.0234375, 0.943807487329611
3592.828125, 0.9449976723700905
3574.4765625, 0.9416506333384305
3558.1640625, 0.9425225891332529
3550.0078125, 0.9428312226580604
3539.8125, 0.9417430206143189
3533.6953125, 0.94250899934874
3517.3828125, 0.9426019827535335
3507.1875, 0.9436082287999634
3496.9921875, 0.94450587481881
3490.875, 0.9435323523402225
3480.6796875, 0.943212751998084
3470.484375, 0.943592433338502
3456.2109375, 0.942970518437949
3450.09375, 0.9435948774670124
3435.8203125, 0.9440172357734654
3425.625, 0.9446280040407554
3409.3125, 0.9460278788894595
3397.078125, 0.9447967456567694
3388.921875, 0.945182864212101
3378.7265625, 0.9459248228606925
3372.609375, 0.9456170239163519
3362.4140625, 0.9454157991385784
3352.21875, 0.9454723043406884
3344.0625, 0.9452072419752734
3335.90625, 0.945312087368016
3317.5546875, 0.941827778417484
3293.0859375, 0.933286015426545
3225.796875, 0.8268598950299505
3180.9375, 0.8690197505121989
3144.234375, 0.902524772986398
3111.609375, 0.9143549843329799
3078.984375, 0.9187945165592369
3052.4765625, 0.8757044713062314
3044.3203125, 0.8786414303323604
3011.6953125, 0.9029820009247514
2991.3046875, 0.9137052937344959
2956.640625, 0.830080393485768
2946.4453125, 0.8585006035118624
2926.0546875, 0.8608265558191395
2866.921875, 0.8679936563050139
2824.1015625, 0.9182482406441235
2789.4375, 0.9266950530048824
2785.359375, 0.9265590945696015
2756.8125, 0.9331170363362294
2746.6171875, 0.9325930517331209
2740.5, 0.932645444623047
2736.421875, 0.9327536859960269
2726.2265625, 0.9340441868268314
2713.9921875, 0.9340999766742555
2695.640625, 0.9350259349070474
2638.546875, 0.9403435630558484
2632.4296875, 0.9404802964587059
2618.15625, 0.941692296885327
2612.0390625, 0.9417653129035845
2595.7265625, 0.943484846730057
2589.609375, 0.9440060295273119
2577.375, 0.9432373085999279
2567.1796875, 0.942992989565886
2559.0234375, 0.9433981822916564
2546.7890625, 0.9442057649600835
2534.5546875, 0.9456307925395364
2526.3984375, 0.945880178669271
2518.2421875, 0.947760228510129
2501.9296875, 0.9473744676321404
2485.6171875, 0.947859529904055
2477.4609375, 0.9479544805342349
2471.34375, 0.9484413311928644
2452.9921875, 0.9483984157752674
2442.796875, 0.9485080878576194
2434.640625, 0.9489544672271625
2426.484375, 0.948354367712751
2408.1328125, 0.9500104831963364
2393.859375, 0.9513143343828314
2367.3515625, 0.941288475256038
2357.15625, 0.9411280794446939
2342.8828125, 0.9449101723739625
2328.609375, 0.944383744619604
2320.453125, 0.9431733527637659
2287.828125, 0.9524707834135905
2273.5546875, 0.953369502464466
2263.359375, 0.9564701360109165
2253.1640625, 0.9526274842029839
2236.8515625, 0.956088010541988
2224.6171875, 0.9563593908965354
2214.421875, 0.952884857482785
2196.0703125, 0.956848864522347
2181.796875, 0.957681422060112
2173.640625, 0.9590240763520199
2157.328125, 0.958702270332933
2151.2109375, 0.956826751071753
2136.9375, 0.9589351456465199
2128.78125, 0.9592653551286464
2106.3515625, 0.9594123409714095
2088.0, 0.9622355742386325
2077.8046875, 0.9641234920037759
2065.5703125, 0.9630855367859025
2053.3359375, 0.9646787088752039
2045.1796875, 0.9650151777108329
2026.828125, 0.962732021595372
2018.671875, 0.9600185200233915
2010.515625, 0.9690251990610375
1998.28125, 0.96787017976239
1984.0078125, 0.96844602073941
1975.8515625, 0.9717898416522435
1965.65625, 0.96529496152842
1955.4609375, 0.9671575467468825
1947.3046875, 0.9656842991798384
1937.109375, 0.9601684259205284
1928.953125, 0.963956061871353
1918.7578125, 0.962116126619499
1906.5234375, 0.9678359668495454
1886.1328125, 0.9616953172709385
1861.6640625, 0.9692153377956989
1849.4296875, 0.9689168374850159
1820.8828125, 0.9649741093155809
1796.4140625, 0.9753236214838065
1788.2578125, 0.9722009340996525
1778.0625, 0.9754238766839805
1755.6328125, 0.9577898422717634
1739.3203125, 0.9479621090296979
1725.046875, 0.9526577040294254
1712.8125, 0.9696260139301349
1647.5625, 0.648232105595985
1614.9375, 0.8632676636174339
1592.5078125, 0.890437845079071
1578.234375, 0.815338436433957
1531.3359375, 0.6245526106869029
1506.8671875, 0.815369192776413
1494.6328125, 0.8014785087782025
1486.4765625, 0.7842682633818104
1468.125, 0.9023609206046654
1455.890625, 0.8459059633660124
1441.6171875, 0.858479741931969
1427.34375, 0.85571468302779
1411.03125, 0.7247266796714534
1362.09375, 0.7004085215713695
1343.7421875, 0.758945230331778
1292.765625, 0.7291850476165874
1260.140625, 0.7759045396632824
1254.0234375, 0.7772387895148904
1233.6328125, 0.9000240601156875
1205.0859375, 0.6903313425866789
1170.421875, 0.8905661144287379
1150.03125, 0.902453128064622
1139.8359375, 0.8794966378367339
1131.6796875, 0.8965904748941474
1086.8203125, 0.9131426252517555
1076.625, 0.86879623344516
1029.7265625, 0.930569295735738
1005.2578125, 0.8613151948644839
974.671875, 0.9640741393712654
956.3203125, 0.965337638494455
903.3046875, 0.8453722638162735
893.109375, 0.9169968409831845
872.71875, 0.9508055491122794
866.6015625, 0.9191963709631394
838.0546875, 0.962794785173724
829.8984375, 0.9650132104854464
809.5078125, 0.8066065347083564
801.3515625, 0.8218803442875614
783.0, 0.619171919918037
766.6875, 0.7639637620409909
754.453125, 0.8950603644476505
734.0625, 0.6031398803029154
674.9296875, 0.7791167529045809
662.6953125, 0.7826063068122164
650.4609375, 0.7365495596097644
615.796875, 0.7901617325076314
589.2890625, 0.8465731781997825
556.6640625, 0.8484526319117355
540.3515625, 0.9098910137533994
513.84375, 0.8218777809332699
436.359375, 0.8633536732912994
426.1640625, 0.8921119607238059
##END=

##END=

