##TITLE=JMB-201
##JCAMP-DX=4.24
##DATA TYPE=INFRARED SPECTRUM
##DATE=3/4/2019
##SAMPLING PROCEDURE=Diamant-ATR
##ORIGIN=Angelika Moesle
##XUNITS=1/CM
##YUNITS=TRANSMITTANCE
##RESOLUTION=4
##FIRSTX=3997.453
##LASTX=373.96442
##DELTAX=-1.4165319
##MAXY=0.93949157
##MINY=0.34585699
##XFACTOR=1
##YFACTOR=8.7496971e-010
##NPOINTS=2559
##FIRSTY=0.85808766
##XYDATA=(X++(Y..Y))
3997+980705561+980980024+981454221+981852803+981974537+981819150+981552521
3988+981241068+980832200+980457938+980426125+980797662+981230236+981380173
3978+981299176+981282963+981408035+981465870+981394274+981377107+981383715
3968+981149307+980802362+980894940+981595370+982411539+982870477+982987169
3958+982974090+982987851+983175935+983550129+983854294+983870779+983706469
3948+983499923+983090034+982335855+981514237+981110069+981302922+981860705
3938+982451867+982874360+983120348+983292901+983401692+983330436+983063194
3928+982767067+982581026+982457862+982216233+981751097+981178736+980738328
3918+980589685+980720820+981033704+981466619+981945925+982354521+982677283
3908+983057676+983552309+983976028+984170312+984275015+984371271+984189999
3898+983607352+982933830+982474824+982243755+982094499+981854165+981362188
3888+980606375+979834281+979469147+979675898+980113104+980433618+980588936
3878+980716256+980984997+981396181+981711858+981807365+981966975+982340011
3869+982587362+982638453+982844863+983187107+983185609+982734641+982249749
3859+982008938+982044702+982446009+983323147+984235504+984417322+984021056
3849+983447742+982759574+982023993+981526839+981472682+981644281+981764994
3839+982023176+982788594+983953479+985092547+985882216+986088966+985718179
3829+985112166+984606701+984251990+983922484+983522267+982983355+982265213
3819+981533447+981119197+981247948+981767718+982202745+982310310+982233332
3809+982275499+982616586+982978450+982915641+982491855+982158738+982250703
3799+982717202+983340859+983825614+983912402+983781812+983833244+984036384
3789+983967104+983477307+982977428+982940506+983367903+983907225+984320520
3779+984604998+984833479+985028171+985145341+985144660+985098541+985170137
3769+985349571+985337241+984929735+984301855+983823707+983793938+984298313
3759+984983688+985091729+984380877+983561506+983499310+984592463+986359615
3750+987416459+987162091+986425012+986169282+986648520+987235050+987466256
3740+987437917+987220199+986746207+986111515+985635070+985391670+985112711
3730+984671485+984288435+984301106+984778436+985315305+985399708+985029057
3720+984791175+985176813+985925133+986379098+986314109+986113831+986213016
3710+986563095+986865080+986951526+986746548+986296738+985802990+985530094
3700+985640247+986074184+986550697+986681355+986271806+985575327+985130967
3690+985276135+985727511+985965529+985992983+986066827+986204910+986219556
3680+985982083+985624920+985499916+985843182+986287610+986232022+985650125
3670+984975513+984782251+985210057+985889846+986521473+987058682+987518029
3660+987756728+987598821+987223878+987194517+987761088+988488426+988837551
3650+988550144+987827507+987304398+987106300+986735171+985990394+985269664
3640+985080285+985378931+985687932+985787663+985836438+985933853+985975407
3631+985956537+986150072+986698862+987118017+986908269+986133791+985368781
3621+985347050+986265607+987391322+987942224+987911092+987678115+987474090
3611+987216930+986750975+986156066+985642427+985301068+985234513+985621309
3601+986371196+987063655+987537035+988060756+988664249+988887076+988527596
3591+988027308+987813405+987752641+987501884+987244723+987362915+987721918
3581+987854892+987566600+987151192+986982386+987102825+987334917+987579066
3571+987887045+988378068+989120870+989857336+990002096+989415293+988641292
3561+988205379+988098155+987947401+987583698+987199967+987032728+987112976
3551+987303376+987479744+987589965+987574842+987437372+987390504+987646643
3541+988071928+988311173+988157217+987652570+987003708+986514252+986416497
3531+986685783+987126600+987562512+987811226+987664014+987133276+986592728
3521+986443745+986727610+987148126+987342955+987156914+986801931+986660986
3512+986841305+987019444+986801249+986158791+985473893+985273410+985840798
3502+986897574+987825599+988256607+988210420+987841472+987309235+986803225
3492+986523039+986567727+986826455+987093765+987381717+987882072+988495647
3482+988752807+988416762+987817016+987405423+987296632+987283212+987104937
3472+986761262+986550561+986692118+987071012+987456242+987699165+987674845
3462+987377766+987052483+986885516+986728223+986464455+986369152+986735921
3452+987394660+987889770+987937728+987548820+986975165+986606829+986658943
3442+986941513+987113589+987045058+986784832+986373239+985902653+985599919
3432+985677714+986130044+986701315+987068560+987139816+987141246+987354536
3422+987833910+988416966+988898588+989174005+989259703+989183679+988923112
3412+988516696+988123633+987851486+987619054+987273266+986798116+986359342
3403+986128341+986095438+986139785+986234407+986428282+986706356+987012700
3393+987284847+987372588+987118834+986625563+986281206+986419426+986946826
3383+987366117+987319385+987058478+987128575+987605089+988004692+987996926
3373+987834796+987946652+988396121+988896885+989179523+989209974+989126115
3363+989034832+988912826+988733188+988600282+988612544+988679508+988654780
3353+988573033+988560090+988629847+988716703+988795656+988859827+988882852
3343+988837006+988704441+988513222+988389581+988509612+988902880+989288450
3333+989273259+988848927+988494761+988578824+988923521+989209156+989431711
3323+989654197+989735534+989623201+989541114+989646431+989829270+989984180
3313+990145901+990262662+990139021+989713463+989195395+988883193+988920796
3303+989185995+989401464+989468224+989591320+989888196+990082616+989900935
3293+989575380+989599359+990078188+990611447+990816834+990755797+990725619
3284+990781615+990769558+990786316+991177336+991921909+992420084+992169055
3274+991396143+990747554+990511784+990418934+990155983+989820755+989774023
3264+990170766+990762405+991106012+990932165+990414302+990087316+990364641
3254+991132171+991907058+992311498+992253662+991834917+991318825+991029988
3244+991066365+991251588+991446554+991674898+991915709+992083630+992210337
3234+992363679+992458846+992427237+992423082+992574040+992730175+992766144
3224+992860084+993134888+993338709+993215817+992896052+992632829+992485550
3214+992422400+992403122+992321308+992173551+992168442+992432210+992803952
3204+993075758+993241431+993445728+993779254+994132057+994309924+994318303
3194+994283220+994108010+993617191+993024871+992820505+993204168+993939953
3184+994664771+995150208+995360500+995404030+995469019+995781630+996424225
3174+997103332+997364171+997142911+996791334+996505835+996111477+995474605
3165+994796110+994406793+994444941+994768316+995104362+995249393+995142033
3155+994842365+994522328+994391397+994498417+994639361+994540312+994128583
3145+993580065+993156346+993054913+993343137+993901464+994455228+994811505
3135+995044755+995286179+995409616+995159404+994526756+993799281+993296473
3125+993132436+993115064+992898300+992355573+991710254+991229449+990980599
3115+990903145+990926442+991032849+991313579+991841729+992473560+992914037
3105+992888831+992219125+991025219+989847595+989156225+988818272+988418465
3095+987847535+987264887+986839057+986785990+987249901+987963001+988379090
3085+988231265+987659041+986834084+985804898+984659359+983504896+982293960
3075+980943647+979564178+978290978+976979018+975394705+973646492+972117631
3065+971059220+970528686+970611182+971372377+972619281+973951133+975026983
3055+975657452+975706363+975070581+973763117+971994330+970229086+969063928
3046+968817667+969219382+969624776+969573616+969155552+968855884+969017333
3036+969471229+969734725+969463259+968661940+967706598+967218436+967626214
3026+968750022+969977171+970822701+971227345+971519111+972179009+973447031
3016+975122967+976858987+978503110+980048184+981476225+982760800+983848231
3006+984641988+985150382+985541606+985922204+986247146+986530328+986874140
2996+987190907+987193428+986809697+986351168+986109812+985934602+985334243
2986+983963970+981977057+979896136+978177555+976945297+976050515+975202806
2976+974082677+972554974+970816978+969174013+967646446+965913151+963678411
2966+961015932+958295142+955805080+953546360+951410533+949456455+947901026
2956+946871499+946313989+946219776+946782804+948162069+950200074+952558047
2946+955014661+957455198+959683467+961440673+962569385+963044945+962886425
2936+962107927+960738812+958869887+956713691+954602864+952821543+951426269
2927+950332639+949533432+949091321+948991727+949158353+949523895+950003133
2917+950576788+951462374+952976452+955166369+957730138+960297110+962641050
2907+964637091+966187342+967309924+968232976+969199423+970155446+970824540
2897+971144168+971391246+971801409+972293999+972696667+973022018+973345801
2887+973597171+973694926+973727966+973755010+973604597+973130604+972432695
2877+971551469+970209194+968193466+965820029+963748508+962454327+962001793
2867+962161062+962571020+962891398+962976687+962910472+962841737+962845824
2857+962954002+963240387+963822897+964727830+965728950+966452950+966793083
2847+967125995+967946251+969341593+970939393+972322065+973391579+974360750
2837+975481220+976793045+978107798+979223227+980119780+980850252+981330239
2827+981507493+981676231+982229245+983108018+983897960+984444911+984936615
2817+985404273+985577575+985320278+984937024+984902009+985371778+986049183
2808+986515205+986618683+986528149+986476308+986524266+986588573+986639800
2798+986757856+986951935+987070195+987007386+986904250+987010997+987402766
2788+987936025+988467649+988981697+989486617+989904409+990117017+990054481
2778+989769050+989478715+989429463+989653447+989999916+990394546+990866631
2768+991335651+991593016+991513654+991191914+990885842+990852939+991136939
2758+991525916+991791864+991916186+991978858+991952359+991775446+991555957
2748+991503367+991673195+991917685+992046027+991942481+991638657+991349003
2738+991294778+991434360+991532864+991501255+991459974+991485247+991517877
2728+991503572+991455273+991412969+991439060+991581162+991785528+991951269
2718+992078657+992261496+992567841+992986518+993427744+993765425+993943155
2708+993994246+993930076+993744988+993553157+993539941+993747032+994024561
2698+994192073+994181105+994063254+993960867+993900102+993766174+993454244
2689+993041425+992762193+992771798+992966218+993125419+993186661+993244701
2679+993348178+993495049+993750642+994168094+994650738+995050069+995316834
2669+995446743+995403758+995202253+994961306+994788208+994687251+994618175
2659+994576076+994589019+994668654+994760618+994788412+994790933+994919683
2649+995201095+995450489+995548857+995647498+995962290+996484989+997006804
2639+997354157+997513426+997555798+997520511+997426707+997321459+997236851
2629+997161032+997116889+997154492+997232015+997218186+997047949+996834932
2619+996829210+997210556+997851107+998357457+998453850+998251937+998054928
2609+997984830+997938507+997878765+997964053+998295330+998715983+999000392
2599+999114429+999225467+999531607+1000029783+1000425231+1000428910+1000130399
2589+999823714+999552725+999146650+998672658+998514955+998897460+999552657
2580+1000060098+1000324683+1000465696+1000490151+1000411811+1000372845
2571+1000378500+1000302271+1000225293+1000262283+1000158466+999623300+998870961
2561+998389952+998411683+998803724+999222198+999309598+998952230+998391450
2551+998069165+998335113+999163272+1000110780+1000631845+1000469510+999866495
2541+999457627+999714174+1000422166+1001009036+1001294263+1001566683+1002041152
2531+1002550159+1002779253+1002757727+1002977080+1003749719+1004660645
2523+1005055480+1004805745+1004222485+1003564223+1002936751+1002446955
2514+1002302604+1002693624+1003428932+1003898906+1003736571+1003273751
2506+1003022040+1003033621+1003082260+1003200111+1003681120+1004558939
2497+1005347110+1005535536+1005195130+1004780676+1004529511+1004469768
2489+1004821754+1005834659+1007255343+1008400745+1008816357+1008605315
2480+1008174444+1007923755+1008080436+1008557221+1009030737+1009241779
2472+1009073313+1008441005+1007440157+1006451980+1005803936+1005504404
2463+1005441255+1005539555+1005674436+1005726890+1005751278+1005866063
2455+1006017294+1006016272+1005857684+1005847875+1006219480+1006761799
2446+1007176253+1007545678+1007999984+1008258302+1008058705+1007703312
2438+1007654946+1007888468+1008037042+1007930499+1007702154+1007515977
2429+1007409366+1007346353+1007263108+1007066440+1006739046+1006416489
2421+1006184057+1005848011+1005141859+1004150821+1003315441+1002982666
2412+1003126675+1003532273+1004033787+1004470040+1004641776+1004480327
2404+1004090124+1003536974+1002799486+1001995033+1001455712+1001479078
2395+1002042242+1002800371+1003412719+1003849449+1004297828+1004855202
2387+1005411418+1005737585+1005648823+1005224286+1004855542+1004938583
2378+1005573956+1006610636+1007790509+1008773917+1009243141+1009087006
2370+1008428607+1007579058+1006975838+1006889391+1007157043+1007363997
2361+1007208951+1006703078+1006232151+1006300613+1006950292+1007638460
2353+1007911629+1007871710+1007783356+1007640436+1007297442+1006800356
2344+1006508317+1006807645+1007691051+1008708520+1009352341+1009559227
2336+1009670947+1009817818+1009773266+1009477957+1009166572+1008909003
2327+1008609675+1008449657+1008773304+1009553232+1010332411+1010706264
2319+1010578672+1009989962+1009062209+1008148421+1007730016+1008003526
2310+1008703138+1009414945+1009924565+1010238607+1010488002+1010834879
2302+1011295724+1011656906+1011695463+1011417458+1010984066+1010522676
2293+1010057471+1009513313+1008850554+1008295156+1008220494+1008583039
2285+1008786383+1008451223+1008018921+1008192019+1009041500+1010072185
2276+1010914990+1011529518+1011911001+1012027762+1012034302+1012188871
2268+1012482272+1012643312+1012660683+1012877652+1013242308+1013007356
2259+1011846421+1010727110+1010758855+1011581972+1011970403+1011702344
2251+1011666580+1012256039+1012794202+1012746517+1012649034+1013313428
2242+1014541803+1015354906+1015402796+1015280653+1015291553+1014840313
2234+1013432028+1011550772+1010240310+1010215309+1011379990+1012951087
2225+1014194926+1015034120+1015637953+1015744905+1015032894+1013990696
2217+1013735988+1014736155+1016097027+1016580284+1016069301+1015326431
2208+1014647392+1013914468+1013723522+1015095702+1017974877+1021008211
2200+1022809900+1022910448+1021786368+1020349949+1019256046+1018750309
2191+1019222258+1021195069+1024270639+1026755660+1027111665+1025526331
2183+1023467890+1021787458+1019978616+1017647891+1015791159+1015627190
2174+1016764895+1017558924+1017037927+1015608593+1014358350+1014539146
2166+1017003526+1020984981+1024046109+1024412469+1023034635+1022392653
2157+1023425518+1024926790+1025706786+1025811285+1025970691+1026542643
2149+1027154378+1027247909+1026494412+1024774878+1022537821+1020953850
2140+1020794240+1021531251+1022347080+1023302354+1024583047+1025538661
2132+1025400783+1024233377+1022695319+1021440104+1020865359+1020984845
2123+1021388263+1021444055+1020699278+1019273009+1017847148+1017114088
2115+1017230508+1017784612+1018177744+1018155945+1017953623+1017691898
2106+1017022055+1015960442+1015523508+1016669933+1019008491+1021174360
2098+1022149799+1021956264+1021424436+1021343167+1021706052+1021933580
2089+1021684321+1021126607+1020578838+1020138566+1019639368+1018985398
2081+1018488721+1018478094+1018679053+1018692678+1018961214+1020267725
2072+1022311111+1023730909+1023585741+1022104634+1020136386+1018550439
2064+1017908662+1018043271+1018127402+1017557902+1016566932+1015726307
2055+1015184397+1014688469+1014112566+1013697704+1013864398+1014749711
2047+1015844226+1016418699+1016380278+1016183542+1015888165+1015008029
2038+1013591025+1012602780+1012812255+1014170061+1016539956+1019759944
2030+1022706287+1024004419+1024112188+1024930332+1026823033+1027826946
2021+1026523228+1024186373+1023130891+1023868311+1024825833+1024498235
2013+1023061066+1021886507+1022047207+1023311891+1024531206+1024978495
2004+1024836392+1024464446+1024163143+1024571125+1026134797+1028142691
1996+1029356352+1029559696+1029508128+1029443071+1028750339+1027185986
1987+1025342402+1023741604+1022281070+1020777141+1019541205+1019179682
1979+1020209685+1022899208+1026664990+1029600773+1029937568+1028218102
1970+1026734065+1026567099+1026522342+1025453373+1024284332+1024638225
1962+1026518051+1028306388+1028615730+1027495260+1025914218+1024843273
1953+1024932649+1026287594+1028157474+1029276649+1028940059+1027559635
1945+1026062724+1025127954+1025031562+1025621634+1026362392+1026821670
1936+1027095316+1027464060+1027714749+1027218072+1025682058+1023525726
1928+1021582411+1020580746+1020747100+1021710480+1022788783+1023496161
1919+1023725936+1023556517+1023098261+1022372353+1021257333+1019692504
1911+1017882367+1016147573+1014614761+1013168941+1011583266+1009635387
1902+1007369924+1005331987+1004261928+1004426170+1005413461+1006647695
1894+1007983907+1009729396+1012139891+1014901895+1017141268+1018293006
1885+1018722856+1019134176+1019674111+1019960291+1019904772+1019967512
1877+1020485443+1021270889+1022005857+1022588708+1022980478+1023074622
1868+1022962085+1023091721+1023745828+1024613293+1025169032+1025318832
1860+1025531985+1026211979+1027153220+1027780350+1027760459+1027308470
1851+1026910433+1026766628+1026694146+1026624866+1026841630+1027507863
1843+1028220759+1028494132+1028286701+1027805556+1027309219+1027004510
1834+1026951102+1027157648+1027681846+1028455303+1029124192+1029348041
1826+1029095445+1028549584+1027984580+1027628370+1027574758+1027797449
1817+1028155634+1028474990+1028726973+1029047010+1029544300+1030090570
1809+1030353385+1030130353+1029586877+1029113906+1028987063+1029144356
1800+1029267589+1029096943+1028625744+1027992823+1027389194+1027106420
1792+1027410993+1028131724+1028766893+1029014720+1028824660+1028309726
1783+1027712501+1027176177+1026579360+1025761829+1024822972+1024012457
1775+1023476269+1023279737+1023486556+1023965044+1024373027+1024531001
1766+1024547283+1024615609+1024847837+1025269375+1025840987+1026513010
1758+1027272706+1028057879+1028746184+1029319566+1029871013+1030436562
1749+1030908579+1031163832+1031225141+1031248098+1031406891+1031754449
1741+1032153303+1032366184+1032306577+1032163930+1032257257+1032742558
1732+1033308379+1033678622+1033998250+1034335590+1034456097+1034139535
1724+1033523780+1033024378+1032950194+1033393531+1034305889+1035262457
1715+1035685767+1035661924+1035592372+1035625275+1035754229+1036024333
1707+1036490900+1037050795+1037531327+1037975891+1038572843+1039266665
1698+1039740317+1039943116+1039925473+1039614496+1039141457+1038780002
1690+1038622027+1038530608+1038405536+1038401312+1038739538+1039239280
1681+1039535951+1039636091+1039719199+1039931944+1040272554+1040549470
1673+1040632715+1040621202+1040648247+1040695115+1040650018+1040483051
1664+1040167919+1039570217+1038628635+1037538548+1036506909+1035605655
1656+1034877704+1034280002+1033479365+1032350380+1031371604+1030822745
1647+1030842024+1031312542+1031666504+1031661258+1031515341+1031407027
1639+1031395242+1031628355+1032362574+1033499188+1034606034+1035647278
1630+1036857260+1038347087+1039944683+1041391730+1042708731+1044008362
1622+1045095588+1045775582+1046228797+1046685282+1047039925+1046978479
1613+1046410206+1045379793+1043830564+1041510671+1037994556+1032738334
1605+1024739523+1012117751+992974325+967794135+940514495+915292206+891655591
1595+864591898+830847825+792511038+752409143+710640168+669333537+637806493
1585+628786874+649213446+694493835+750482178+803151551+846790405+881803931
1575+907884965+925198227+937832942+949970367+962366314+972516689+979363082
1565+984377811+988508999+991828445+994935828+999309939+1004903364+1009075765
1555+1011637832+1013454304+1014501543+1014596913+1013932179+1012910691
1547+1011785657+1010617978+1009593288+1009182717+1010025249+1012322049
1538+1014796170+1016447855+1017758726+1019506531+1021737184+1023718034
1530+1025163037+1026383578+1027627894+1028896665+1030036754+1030955787
1521+1031774068+1032498681+1032786020+1032439143+1031513433+1029931982
1513+1027534022+1024342781+1020205462+1013441974+999760088+977945055+952608662
1503+921465894+875951437+808307974+718190465+621796676+550486446+521970631
1493+529212131+562384286+616045617+679150864+736654648+782612510+818499835
1483+846889455+869662419+887457440+900673303+910390627+917528785+922334925
1473+924749849+924417754+920996942+914162539+903093267+888283827+874987784
1463+869962019+872987451+879383421+886476824+894184619+901868911+907535772
1453+911151276+913897613+916431068+918793197+920898302+922717294+924258144
1443+925702466+927238071+928813187+930599344+933522389+938397401+944313247
1434+949924044+955200021+960481993+965525265+969797738+973257720+976276612
1424+979019338+981421318+983736170+986412205+989206091+991407315+992943329
1414+994132875+995239448+996414006+997554913+998415838+998792552+998268081
1404+996021828+990791833+980533757+963413008+940449506+915181644+891122128
1394+873178397+866963155+873750077+890421562+911710149+930758341+942456515
1384+946775720+946264941+943096385+938990607+935817690+935612098+940003989
1374+948887228+959655401+969423203+977264925+983374443+987896105+991072836
1364+993440824+995454440+997158988+998388794+999164566+999676026+999999401
1354+1000026990+999686585+999094333+998506236+998240424+998544452+999420364
1344+1000641314+1001988153+1003415581+1004943420+1006464379+1007834379
1336+1009130876+1010552513+1012137370+1013783878+1015485837+1017364504
1327+1019483097+1021747130+1023971788+1026002163+1027763524+1029143335
1319+1029755683+1028886174+1025967966+1021469942+1017282485+1015453070
1310+1015968753+1016320194+1013555738+1006366624+995259475+981786520+968713577
1300+960338528+960676753+970236716+985064412+999626842+1010501558+1017275673
1290+1021031917+1022907451+1023642964+1023516802+1022370514+1019873231
1282+1015903901+1010771525+1005210049+1000195047+996624503+994936986+994889914
1272+995769845+997010141+998619999+1000881376+1003748765+1006751717+1009311127
1262+1010884540+1010908655+1008914316+1004822367+999092425+992536777+985913348
1252+979526574+972912818+964572580+951946448+932076705+903191908+866533509
1242+826540610+788265133+754096524+723107780+693361308+664654717+639514583
1232+621948588+614894424+618214143+628562412+641034520+651824560+660662430
1222+671168879+688249164+714300974+747365530+782721096+816126807+845545953
1213+870609995+891609132+909109730+923798049+936298700+947136562+956750817
1203+965425535+973172635+979799471+985209376+989367608+991633480+990511103
1193+984603499+974156112+962385592+955278702+958053922+970410018+986473855
1183+1000166368+1009451322+1015560907+1020115473+1023735133+1026153326
1174+1025903727+1019218034+1000763593+967344939+920441340+864546120+804606431
1164+745238627+689928097+641109999+603860643+588437220+604588594+651669787
1154+716069352+779457714+829608210+864355242+887666983+904070476+916417853
1145+926273328+934460701+941272011+946524963+949548760+949729760+947738964
1135+946089391+947762057+953757675+962142738+969844265+975101440+977913787
1125+978898762+978557676+977344696+975756910+974226755+973054035+972512806
1115+972984483+974796799+977892056+981750892+985507137+988001286+987801552
1105+982968436+970512064+946664544+909140521+860394836+808559957+763733055
1095+732544850+717117476+718622358+738385081+773920489+816780369+857041805
1085+889202452+912938933+929975688+941901934+950090397+955890914+960330966
1075+963945245+966947992+969415097+971459777+973443965+975885933+979000332
1065+982453161+985640111+988080988+989557941+990099851+989947121+989388453
1055+988510021+987182664+985328725+983032198+980309841+976981061+972888908
1045+968124663+963015107+958085530+954075395+951765584+951595893+953483961
1035+957068947+962001998+967883375+974093440+979863846+984402131+986778633
1026+985885418+981114156+973527483+965659602+958687728+949970639+935789760
1016+917725999+904149838+902919147+912966454+924763337+929424922+926729064
1006+924178442+929070143+942205895+958711162+973215144+983397809+989767347
996+993805276+996689491+998993853+1000873065+1002344976+1003516537+1004653697
986+1006020087+1007641185+1009349003+1011033386+1012651895+1014015833
977+1014879960+1015272479+1015435563+1015355860+1014621574+1012869886
969+1010230773+1007262495+1004529238+1002256962+1000405340+999150465+999184254
959+1001224165+1005151532+1009886212+1014205757+1017513487+1019831200
950+1021252769+1021380157+1019274848+1014349358+1007595748+1001567909+998719049
941+999852189+1004168124+1010214764+1016513933+1021903197+1025874162+1028541341
931+1030259172+1031413430+1032385939+1033368258+1034245124+1034857676
922+1035290183+1035764584+1036361196+1036999431+1037650404+1038372565
914+1039120339+1039723287+1040092303+1040282500+1040388770+1040555737
905+1040947779+1041529677+1042045019+1042358448+1042595240+1042732574
897+1042229630+1040472083+1037768119+1035591895+1035431944+1037459526
888+1040555124+1043448331+1045569990+1047025347+1048178720+1049313768
880+1050404741+1051056804+1050843582+1049817666+1048569059+1047753503
871+1047682315+1048283287+1049306819+1050565577+1051940755+1053218791
863+1054226587+1055115442+1056182436+1057457747+1058680945+1059537442
854+1059844808+1059541802+1058351235+1055583440+1050418842+1041944062
846+1029072624+1011291364+988820044+961008643+926368086+885850783+843805233
836+803550882+763497149+718767798+666002237+607736986+553935052+517883246
826+507703442+520489592+544515216+567550246+584210525+596457830+607901092
816+618654619+625789849+627210668+623920105+619078746+615914141+616685145
806+622728925+634273144+649895891+667042936+683952644+701182389+720968478
796+744838819+771828873+799146729+824348241+846543531+865894594+882696260
786+897023601+908917762+918730729+927130643+934665612+941460777+947444677
776+952727671+957602478+962210519+966419843+970072814+973119705+975558743
766+977663235+980089330+983215174+986584281+989457665+991601735+993291977
756+994942027+996810476+998740780+1000261875+1001056926+1001129953+1000390557
747+997785982+990748031+977053407+959007765+944472789+940877312+948244906
737+960068015+970336514+977635918+983311839+988382360+992768528+996086748
727+998398126+1000165687+1001341199+1000597580+995933610+986365133+973095045
717+958952723+946498123+936217089+926226528+914400557+901791456+893881953
707+897182393+913401958+937146000+960203851+977657172+989202480+996428653
697+1000943026+1004341358+1007884244+1011742263+1015298501+1018212282
688+1020720736+1023070603+1025200232+1026986662+1028451215+1029703569
680+1030827922+1031783265+1032456718+1032936365+1033575144+1034670137
671+1036297161+1038423792+1040538979+1041402016+1040930067+1040406005
663+1040542317+1041116449+1041479335+1041383283+1041240226+1041453857
654+1041829822+1041659176+1039935487+1035262866+1026443457+1014687992
646+1004855066+1002007295+1005933572+1010817303+1010360409+1001229070+983204955
636+960227285+940045952+928306155+924379061+925969708+933891338+948769445
626+966091154+977319423+975118403+958370212+935008947+919077470+920501423
616+935892965+952098837+959848731+961594492+966340549+979282016+997570649
606+1014827847+1027235102+1034892759+1039579822+1042837754+1045488924
598+1047724483+1049453418+1050776005+1052031902+1053344544+1054437901
589+1055131996+1055748499+1056803708+1058440202+1060193320+1061330003
581+1061657329+1061922732+1062987615+1064756537+1066374979+1067233111
572+1067387475+1067390677+1067988175+1069451162+1071188340+1072458474
564+1073124434+1073462864+1073698906+1073741823+1073103997+1071451563
555+1069259875+1067067030+1064064214+1058743413+1051655528+1046546722
547+1047179984+1052994533+1059293906+1061479735+1057243231+1045719109
538+1028098548+1008964454+992608101+975202874+943066207+883827902+800899575
528+713173624+639233852+584888339+546250793+518942031+497575342+472042553
518+436421414+402877961+395278820+426303942+488775349+564346198+632287457
509+673120504+674356509+642112686+603946477+591375456+615991596+663822198
499+715152362+760859740+799492584+831403291+857594002+878812764+895232675
489+908013716+919291509+930014381+938910359+943733734+942616193+933388938
479+913359586+883144366+849769446+821417498+799246596+777966116+755690510
469+739257587+738024239+754345305+779136791+796410407+793070251+767184318
459+730578169+705588789+710693916+744830644+793335109+839889175+871734689
449+881019574+861095606+808917461+737352421+677067695+655042505+668332076
439+688954771+693294752+676252752+644499134+608029979+581409282+582809665
429+619650766+678746560+738733866+786779870+820757056+843209711+857159588
419+864959552+868416945+869328349+869209476+868670086+867288164+864072331
409+858235711+849753983+840122288+832537249+830217629+834711497+846431879
399+865195935+887720867+907275274+920905182+930546891+938657081+947590390
390+958091389+967406521+971721025+970968618+969733907+971469927+974307820
380+974751362+972536785+971679062+975704524+979955402
##END=
