##TITLE=X7447
##JCAMP-DX=4.24
##DATA TYPE=INFRARED SPECTRUM
##DATE=29/10/2018
##SAMPLING PROCEDURE=Diamant-ATR
##ORIGIN=ComPlat
##XUNITS=1/CM
##YUNITS=TRANSMITTANCE
##RESOLUTION=4
##FIRSTX=3997.453
##LASTX=373.96442
##DELTAX=-1.4165319
##MAXY=0.99153727
##MINY=0.18708767
##XFACTOR=1
##YFACTOR=9.2344105e-010
##NPOINTS=2559
##FIRSTY=0.98539454
##XYDATA=(X++(Y..Y))
3997+1067089817+1067127125+1067350326+1067547902+1067725404+1067739475
3989+1067429459+1067146101+1067478450+1068433218+1069506493+1070483142
3980+1071451916+1072108868+1071853652+1070666711+1069273932+1068356343
3972+1068024511+1068086992+1068352793+1068625953+1068767115+1068822625
3963+1068964175+1069327699+1069881893+1070353985+1070362698+1069742345
3955+1068732583+1067819835+1067390473+1067530087+1068078213+1068732648
3946+1069140386+1069200285+1069321309+1069931336+1070652705+1070805873
3938+1070536909+1070403492+1070355469+1070029640+1069638102+1069643137
3929+1069881764+1069964706+1069981811+1070209724+1070577702+1070685946
3921+1070219018+1069186924+1067979006+1067273128+1067538607+1068618788
3912+1070044873+1071467859+1072531000+1072680812+1071585398+1069752026
3904+1068381581+1068160187+1068636990+1069283743+1070045647+1070844794
3895+1071401957+1071464890+1071072513+1070689431+1070652640+1070596549
3887+1070056426+1069125541+1068244614+1067532604+1067013717+1067200643
3878+1068320068+1069619448+1070170996+1069519015+1067947185+1066492183
3870+1066348632+1067656468+1069159750+1069812377+1069546511+1068843925
3861+1068232737+1068016055+1068257136+1068777249+1069227911+1069317630
3853+1069281291+1069742603+1070564534+1071373299+1071984939+1072111127
3844+1071398795+1069919847+1068374868+1067509819+1067686999+1068904083
3836+1070575056+1071780134+1071951956+1071189407+1070187714+1069665470
3827+1069801792+1070245805+1070501989+1070321776+1069807665+1069371720
3819+1069304140+1069500490+1069908422+1070560662+1071204446+1071381754
3810+1070770179+1069491324+1068448902+1068675395+1069559033+1069422905
3802+1067854367+1066532977+1067151588+1069256699+1071458887+1072612909
3793+1072501567+1071874371+1071468634+1071392211+1071388661+1071305332
3785+1071143837+1070890945+1070451449+1069753317+1069015102+1068704247
3776+1068960238+1069509591+1070088829+1070526259+1070657481+1070466941
3768+1070209207+1070191845+1070563760+1071172044+1071514139+1071093491
3759+1069931530+1068738521+1068198269+1068187490+1068101966+1067476836
3751+1066492700+1065939538+1065907975+1065686582+1064884853+1063938799
3742+1063683196+1063977978+1063983400+1063180187+1061868349+1061111544
3734+1061558269+1062881725+1064786743+1067018364+1068948039+1069901903
3725+1069680703+1068765954+1067905423+1067499169+1067495684+1067731600
3717+1068106807+1068349501+1067992690+1066933421+1066059594+1066512580
3708+1067993206+1069329894+1069801856+1069355067+1068453614+1067790014
3700+1067764454+1068291539+1069094171+1069932885+1070813683+1071941628
3691+1073184402+1073741823+1072986826+1071588367+1070413174+1069452532
3683+1068419147+1067279712+1066284861+1065679094+1065508563+1065917141
3674+1066923223+1067668345+1067319795+1066143827+1065694973+1066874684
3666+1068602329+1069599891+1069502943+1068757369+1067958287+1067287845
3657+1066820982+1066902246+1067439528+1067472770+1066267821+1064271793
3649+1063000425+1063086014+1063720051+1064682307+1065978008+1067139259
3640+1067775362+1068001532+1067907360+1067246342+1066072697+1064938233
3632+1064026904+1062866944+1061581183+1061578149+1062965183+1064220285
3623+1064710255+1064885692+1065339775+1066064694+1066470173+1066074827
3615+1064866651+1063359625+1062488057+1062796330+1064146121+1066195012
3606+1068178841+1069026269+1068459423+1067164303+1065935859+1065034407
3598+1064306777+1063527639+1062581133+1061704143+1061231600+1060989681
3589+1060552122+1060066670+1060371135+1061731576+1063273585+1064062534
3581+1063917950+1063497819+1063496657+1063783371+1063897102+1063911108
3572+1064048656+1064045365+1063578114+1062893860+1062575130+1062676726
3564+1062727653+1062517232+1062136861+1061818648+1061871576+1062302358
3555+1062541566+1061998410+1060962314+1060402827+1060621445+1060968123
3547+1060898606+1060510877+1060219838+1060437036+1061361726+1062583328
3538+1063177734+1062645938+1061523156+1060683280+1060422384+1060548637
3530+1060789781+1060820828+1060342024+1059460516+1058775293+1058828673
3521+1059457353+1059912598+1059719669+1059200201+1058946728+1058906129
3513+1058413383+1057219858+1056055896+1055826305+1056498296+1057254326
3504+1057494051+1057267429+1056934176+1056666116+1056393924+1056089589
3496+1055882008+1055907762+1056136450+1056370365+1056426262+1056322472
3488+1056224168+1056167690+1055989220+1055612915+1055224476+1054983718
3479+1054678156+1053974022+1053048041+1052634171+1053168872+1054152234
3471+1054697133+1054348196+1053161836+1051545340+1050202520+1049676404
3462+1049786907+1049926779+1049840480+1049730623+1049787230+1049960666
3454+1050089694+1050090145+1050023017+1049941818+1049693961+1049002541
3445+1047807274+1046475104+1045601858+1045433393+1045432682+1044843569
3437+1043716204+1042825208+1042550628+1042447806+1041983654+1041139841
3428+1040213409+1039456088+1038938556+1038466659+1037709983+1036613472
3420+1035511732+1034717620+1034230618+1033868256+1033394099+1032601730
3411+1031542010+1030535669+1029777509+1029081184+1028127836+1026811545
3403+1025206667+1023260405+1020709731+1017451695+1013869508+1010498452
3394+1007473040+1004603767+1001786517+998960812+995860269+992059528+987124839
3384+980757547+973109786+964796295+956169432+946781505+935896234+923148094
3374+908227263+890313035+868318195+841850817+812461947+784463532+763725730
3364+754338641+756173304+765668313+778024593+788489023+793310562+791043053
3354+782849424+771236846+758765803+747553347+738869232+732850037+729039098
3344+727276921+727805942+730706263+735680454+742330847+750327415+759457416
3335+769761707+781411850+794315031+808002318+821818957+835089469+847414509
3325+858992038+870295053+881289923+891336351+900004266+907610265+914732813
3315+921577684+928115895+934347059+939995888+944503152+947831478+950793182
3305+954189024+958037465+961758168+964788162+967010295+968772924+970501214
3295+972385964+974487073+976851660+979375031+981766081+983784894+985417656
3285+986788682+988050109+989482713+991496749+994159153+996778439+998428434
3275+998948290+999068604+999541470+1000497012+1001649808+1002749095+1003674817
3265+1004403221+1005143567+1006224329+1007549140+1008528436+1008846262
3257+1008855104+1008947276+1008999172+1008707035+1008172722+1007965464
3248+1008616090+1010012031+1011388028+1012109332+1012391141+1012945400
3240+1013934248+1014696862+1014735589+1014519489+1014781934+1015453021
3231+1015866310+1015623100+1014835120+1013967360+1013688779+1014380521
3223+1015652469+1016725163+1017264446+1017551032+1017917783+1018371156
3214+1018803293+1019257634+1019779749+1020224601+1020467231+1020642474
3206+1020946357+1021323501+1021536891+1021525983+1021592659+1022106253
3197+1023054244+1024056453+1024758523+1025011867+1024873480+1024599029
3189+1024329226+1023827056+1023010417+1022484688+1022851956+1023777936
3180+1024436179+1024614520+1024766010+1025111591+1025298000+1025013609
3172+1024507890+1024333809+1024809256+1025771899+1026694974+1027148734
3163+1027242262+1027363544+1027578096+1027709835+1027753662+1027718678
3155+1027498446+1027280021+1027496122+1028156301+1028832100+1029252748
3146+1029360476+1029092932+1028589536+1028233563+1028256606+1028674285
3138+1029509190+1030607122+1031436476+1031535942+1031069402+1030690838
3129+1030934242+1031797161+1032787687+1033373251+1033390678+1033010501
3121+1032473670+1031974921+1031612236+1031377417+1031285761+1031391230
3112+1031530520+1031325909+1030675799+1030018202+1029865744+1030207839
3104+1030571621+1030645204+1030614609+1030748736+1030968774+1031140080
3095+1031422664+1031889591+1032160879+1031874487+1031236383+1030788884
3087+1030849170+1031270593+1031532909+1031086894+1029873618+1028552292
3078+1027979896+1028336966+1028975458+1029241711+1029075117+1028594699
3070+1027651291+1026189513+1024603418+1023412217+1022821361+1022623656
3061+1022358435+1021704840+1020730257+1019549512+1018006341+1016089059
3053+1014363029+1013576016+1013919338+1014833635+1015572109+1015919367
3044+1016148765+1016432833+1016829857+1017630811+1018960592+1020279788
3036+1021040659+1021499841+1022214497+1023176494+1023929104+1024141590
3027+1023798204+1023120146+1022341202+1021465761+1020420564+1019224393
3019+1017569169+1014648000+1010062765+1004473125+998749423+992985379+986777839
3009+979748624+971478057+961958132+952634816+945979324+943245404+943156136
2999+943206289+941897807+939572787+937495173+936435582+935947806+934538568
2989+930415032+922748359+912695734+902520665+893241240+883962331+873993294
2979+864531267+857352241+852492103+848083272+842447353+836113108+831718736
2969+831707698+836078576+842752980+850136617+858642069+869378819+882005354
2959+894484013+904713301+912043172+917407351+922245221+927187010+931687948
2949+934909967+936641872+937104281+936248591+933772662+929686886+924437534
2939+918524647+912375972+906576105+901726230+897861653+894405396+890978184
2929+887886742+885515959+883532582+880866887+876348522+869482545+861012207
2919+852912106+847591043+846520027+849162615+853485922+858005643+863118738
2910+870066624+879039002+888862940+898167473+906232913+912950627+918507348
2900+923157195+927129499+930700455+934225841+937920984+941678802+945243626
2890+948492754+951433158+954073487+956431748+958506393+960120888+960955923
2880+960764350+959356661+956427036+951654745+944935740+936292935+925589555
2870+912421671+896245932+876787307+855003145+834237266+820093313+817924947
2860+829354472+850989467+876672608+901095162+921711940+938210216+951087384
2850+960871690+968107581+973435421+977477500+980719400+983454353+985785247
2840+987836461+989934279+992340304+994909244+997311785+999428837+1001242715
2830+1002629491+1003586841+1004408321+1005365412+1006357552+1007052844
2822+1007321486+1007390679+1007523193+1007724125+1007951522+1008389662
2813+1009227343+1010377234+1011662543+1013061260+1014564606+1015986754
2805+1017038728+1017478740+1017191703+1016244164+1014917545+1013683098
2796+1013045769+1013265549+1014197532+1015468125+1016838958+1018380774
2788+1020279143+1022485140+1024629301+1026330998+1027502383+1028272936
2779+1028731666+1028896195+1028891418+1028972617+1029281600+1029720386
2771+1030171435+1030687611+1031358956+1032184051+1033139529+1034147806
2762+1034973094+1035403940+1035514960+1035538325+1035552009+1035447767
2754+1035125423+1034636098+1034169170+1033884328+1033757753+1033696757
2745+1033794221+1034250111+1034982518+1035567758+1035729253+1035687814
2737+1035803223+1036034105+1036019195+1035598482+1034941595+1034223260
2728+1033534810+1033096154+1033149340+1033575087+1033974628+1034191374
2720+1034448139+1034935205+1035524577+1035929927+1036023455+1035984662
2711+1036150998+1036686280+1037437082+1038108040+1038447295+1038265339
2703+1037469097+1036165005+1034628417+1033110999+1031755593+1030711622
2694+1030160075+1030145487+1030563295+1031356633+1032447981+1033500278
2686+1034167750+1034594401+1035223856+1036124663+1036932137+1037420945
2677+1037713921+1037913175+1037920727+1037726378+1037575856+1037708305
2669+1038118174+1038638739+1039094758+1039373469+1039500496+1039595185
2660+1039674448+1039647145+1039521603+1039458928+1039633784+1040095096
2652+1040641673+1040891209+1040691955+1040360768+1040300740+1040543563
2643+1040834409+1040955497+1040847318+1040560539+1040179845+1039735509
2635+1039242957+1038896924+1039058419+1039837750+1040824468+1041489488
2626+1041734829+1041752643+1041554615+1041073036+1040596168+1040621406
2618+1041238403+1042010183+1042553920+1042932032+1043321440+1043657145
2609+1043874343+1044159895+1044653416+1045220777+1045723980+1046144498
2601+1046311738+1045936853+1045105369+1044427246+1044466942+1045176305
2592+1046066333+1046761883+1047134186+1047116952+1046756784+1046279658
2584+1045817765+1045288422+1044650898+1044032933+1043635134+1043683996
2575+1044251551+1045061413+1045816926+1046586769+1047464727+1048198231
2567+1048684199+1049402147+1050728830+1052115154+1052566914+1051856840
2558+1050698945+1049806013+1049377749+1049440423+1049974220+1050620457
2550+1050819195+1050322641+1049310427+1048179835+1047429485+1047433164
2541+1048105865+1048952582+1049476311+1049507938+1049304230+1049347025
2533+1049860813+1050604708+1051270890+1051828375+1052327705+1052707495
2524+1052920950+1052916431+1052532510+1051840446+1051430254+1051830764
2516+1052791728+1053611143+1053995322+1054247052+1054801827+1055784285
2507+1056834001+1057366701+1057150084+1056423809+1055378031+1053975829
2499+1052414004+1051262499+1050948417+1051382426+1052096888+1052576918
2490+1052594668+1052372500+1052327770+1052694263+1053496250+1054633684
2482+1055715866+1056094624+1055465233+1054301723+1053365544+1052882545
2473+1052485973+1051926615+1051531398+1051795134+1052636107+1053332948
2465+1053337854+1052938313+1052802120+1053031776+1053117816+1052789211
2456+1052368692+1052198806+1052263353+1052508435+1052976266+1053479081
2448+1053664006+1053513678+1053334691+1053278665+1053258591+1053189268
2439+1052992080+1052536577+1051829215+1051179105+1051026969+1051550956
2431+1052431883+1053127756+1053363285+1053202888+1052767846+1052111153
2422+1051257077+1050301147+1049575260+1049453655+1049786003+1049934783
2414+1049605597+1049201408+1049272796+1049965958+1050940865+1051644096
2405+1051872009+1051975799+1052223269+1052295368+1051795586+1050842432
2397+1049847968+1049134345+1048978465+1049587717+1050828296+1052232822
2388+1053317651+1053744043+1053384714+1052526572+1051816305+1051707997
2380+1052087787+1052584406+1053001762+1053324751+1053609271+1053974215
2371+1054465347+1054963774+1055235965+1054852496+1053504835+1052007427
2363+1052049317+1054020688+1056169820+1056787786+1056107791+1055323812
2354+1054838425+1054231819+1053344760+1052630556+1052549163+1053105100
2346+1053897792+1054519631+1054988495+1055560568+1056175823+1056534248
2337+1056698389+1057160347+1058115889+1059061104+1059389903+1058960025
2329+1057860221+1056257667+1054687516+1053796778+1053646127+1053772444
2320+1053950979+1054311017+1054796728+1055140114+1055227639+1055145213
2312+1055024512+1055015798+1055285537+1055905632+1056688836+1057188682
2303+1057080761+1056583755+1056318986+1056726209+1057678395+1058521175
2295+1058460501+1057212952+1055392877+1054026756+1053624245+1053894049
2286+1054270418+1054433268+1054328445+1054021334+1053620695+1053208439
2278+1052883319+1052867957+1053241680+1053578224+1053379034+1052821936
2269+1052481390+1052517342+1052820258+1053623406+1055145858+1056836453
2261+1057695177+1057329070+1056255796+1055202788+1054516081+1054306047
2252+1054649046+1055392361+1056297428+1057575185+1059565404+1061701691
2244+1062713711+1062212703+1061227921+1060737757+1060396695+1059319095
2235+1057621336+1056371204+1056191507+1056693548+1057223860+1057535167
2227+1057786703+1058247176+1058907549+1059446316+1059650282+1059412107
2218+1058396665+1056586982+1054993013+1054800278+1056005033+1057573894
2210+1058745150+1059751813+1061223145+1062888696+1063381894+1061933218
2201+1059493887+1057433764+1056181116+1055682948+1055869809+1056139677
2193+1055472979+1053562281+1051328981+1049930264+1049363032+1048642696
2184+1047691607+1047969608+1050339229+1053674333+1056512625+1058438620
2176+1059065364+1057495600+1053827889+1049878563+1047534114+1047245657
2167+1048446088+1050321285+1051811787+1052513598+1053837248+1056863886
2159+1059121713+1057439767+1053359670+1051109008+1052722922+1056973033
2150+1060769966+1061755716+1060444975+1058860172+1057463843+1055388423
2142+1052633267+1049968863+1047923715+1047312979+1049230260+1053360251
2133+1057629985+1060278833+1061154209+1060835609+1059712505+1058101882
2125+1056478609+1055360604+1055099902+1055494344+1055689660+1055212987
2116+1054891482+1055695986+1057036870+1057487209+1056864531+1056295491
2108+1056482095+1056987685+1057123491+1056894222+1056845619+1057100060
2099+1057020539+1056257216+1055615174+1056072678+1057332750+1058337218
2091+1058874307+1059610199+1060744470+1061743904+1062263953+1062227742
2082+1061354303+1059862446+1059081953+1059953198+1061495207+1062053919
2074+1061448088+1060650297+1060074803+1059534422+1059383190+1060326146
2065+1062122403+1063511180+1063536482+1062175073+1059889942+1057537619
2057+1056410319+1057236576+1058879084+1058865529+1055971986+1052010460
2048+1050310313+1052230821+1056066546+1059533131+1061891779+1063220786
2040+1062886695+1060119469+1056184472+1054249053+1055740846+1058421774
2031+1059783570+1060184919+1060944499+1062164100+1063868960+1066569574
2023+1069507977+1070459001+1068285213+1064309810+1060683409+1058781619
2014+1059367376+1062261952+1065479324+1066989706+1067473609+1068778411
2006+1070277756+1069869888+1067689000+1066045394+1066590874+1068819785
1997+1070572086+1069992461+1067546869+1065625779+1065925338+1067943312
1989+1070136980+1071230845+1070369153+1067617870+1064387201+1062398984
1980+1062522009+1064881561+1068818171+1072213304+1072839789+1070803033
1972+1067807958+1064693344+1061556268+1059364278+1059277915+1060699352
1963+1061919921+1062394982+1063015142+1064313231+1065363205+1064672754
1955+1061687555+1057543170+1054590244+1054710171+1057660322+1061263164
1946+1063499820+1064105199+1063914594+1063473549+1063039411+1063182446
1938+1064198016+1065338742+1065560910+1064776544+1063619682+1062534143
1929+1061777274+1061532838+1061470938+1060970640+1060063636+1059472457
1921+1059517511+1059832819+1060248303+1060937657+1061494820+1061033573
1912+1059556238+1058288098+1058201671+1058858429+1059354854+1059525643
1904+1059598516+1059510217+1059039610+1058241044+1057447061+1056932176
1895+1056726467+1056693677+1056662114+1056487065+1056160783+1055973535
1887+1056406188+1057563954+1058705583+1058756317+1057615397+1056249212
1878+1055311420+1054631231+1054026110+1053636057+1053521230+1053547629
1870+1053497928+1053270661+1053270080+1054048831+1055526746+1057068626
1861+1057971886+1057931997+1057374705+1057105934+1057474170+1058224649
1853+1059019278+1059595353+1059743487+1059553850+1059367828+1059400165
1844+1059694044+1060194342+1060712584+1061112835+1061324741+1061137040
1836+1060296842+1058831384+1057014666+1055195817+1053856676+1053407370
1827+1053735523+1054378856+1054900518+1055053816+1054832357+1054358459
1819+1053916317+1053871522+1054175599+1054363042+1054177084+1053651355
1810+1052885901+1052248120+1052193707+1052587633+1052838653+1052644627
1802+1052223140+1051995550+1052187575+1052648048+1053079217+1053268144
1793+1053043910+1052470159+1052051318+1052030922+1052073458+1051820178
1785+1051139280+1050117448+1049013837+1047995426+1047020133+1046173802
1776+1045655819+1045321921+1044759078+1043855108+1042957141+1042414759
1768+1042271724+1042146827+1041571204+1040542401+1039374373+1038248557
1759+1037187288+1036183142+1035246964+1034521593+1034011549+1033220599
1751+1031639603+1029710510+1028382019+1027815884+1027621729+1027410147
1742+1026944317+1026215848+1025327240+1024422430+1023584427+1022503084
1734+1020811972+1019238012+1018519032+1018181778+1017718336+1016862388
1725+1015213296+1012686505+1009746423+1006452952+1002195546+996619203+990132242
1715+983437764+976779626+969714654+961664834+952612418+942718900+932004418
1706+921609698+912915514+903307226+885688233+855405462+817555484+775417441
1696+728623808+685788343+651612272+617342932+574477131+525582259+476587566
1686+423773511+365128607+322041638+307173283+306548282+309582988+317868498
1676+339216908+374148202+412761859+451854965+496756232+544683943+584135055
1666+613659343+640602621+670507344+701571447+728047152+748528125+764604010
1656+777414825+788654971+800025823+808721557+814059337+819697645+827497025
1646+836117433+844138852+852805992+863006363+873849098+883812842+892499410
1636+900861311+908339315+912879626+914914059+915843138+916232545+916373901
1626+916686241+917239531+917970130+918886235+919524855+919459212+919065092
1616+919066383+919445463+919716622+919737664+919719591+920131912+921049760
1606+921813729+921977483+921693157+921090166+920179418+919039790+917706200
1596+916358023+915316053+914430543+913211136+911607743+909958199+908610538
1587+907833789+907518997+907223956+906760449+906116278+904993561+902988884
1577+899970314+896432406+893014876+889272421+884158229+877857742+872357628
1567+868374544+864879688+861446022+858015841+853782899+847766544+841234336
1557+835834527+829655386+821117016+809422852+793276030+771655364+745313657
1547+714644642+677424571+632447720+581580573+521977480+453408722+396621039
1537+358254691+324065937+283302923+240814539+212284489+202598391+208480425
1527+229028639+261112104+298718243+343079451+396974914+450214103+494900140
1517+536721229+577959852+613686452+642808746+667730113+689548419+711461673
1507+740923222+773456075+794934545+807345948+816849155+825965665+835451316
1497+845252726+853961821+860012514+863517181+865725889+868035676+870887264
1487+873195180+873712711+871467987+865506948+855942551+845077290+836462303
1477+832745731+834646424+841370012+851521328+862254528+869771066+872951389
1468+872332906+867503105+857846149+844847376+830451629+814178167+794051036
1458+771291904+755166253+749785873+748943867+749433321+751831795+755576380
1448+756244434+749654650+738959855+733453738+740859128+761458930+790515000
1438+824491752+858649233+884068381+898134038+905803422+911338585+916108939
1428+919980164+922960587+925538822+928007392+930063126+931310869+931911407
1418+932443784+932746764+931528325+926782563+915119574+891728405+853621404
1408+803292509+748906365+704050023+683051647+689445404+715859273+751229707
1398+781292053+792755529+781727417+756365006+731639021+718148986+719717782
1388+738071440+770929606+808684959+842031030+868198333+887671674+901140150
1378+909284014+912252689+908035238+891469575+856988265+804265027+741361362
1368+683186871+640055914+606945502+576976748+561652374+577629892+613788113
1358+642280758+652420972+656879245+674502046+711538935+759501372+805881587
1349+842723030+868612268+886090614+898062069+906404154+912321818+916664037
1339+919907421+922136654+923318237+923692412+923659364+923389496+922922504
1329+922468422+922222178+922149111+922157567+922158535+921988004+921528435
1319+920800418+919890768+918891915+917822383+916614013+915254282+913723762
1309+911747292+908855556+904678252+899176202+892879975+886761443+881247323
1299+875215993+866388714+853244777+837025598+821498614+809617459+799910673
1289+786537984+763209424+727248263+680675119+628770133+578066031+534322271
1279+500730021+477329686+461618003+449231935+434619377+412901149+383232439
1269+351127786+326524148+318176803+328437654+351806361+377631504+394758751
1259+396080174+381458612+357218305+332539922+315230558+309008656+313478095
1249+326220232+344962911+368423080+395957568+426851205+459904784+493530372
1239+526044991+555714250+580629355+599033682+610336115+616021413+619373944
1230+624086917+632994749+647601885+667844424+691857174+716530683+738971344
1220+757643150+772368664+783657801+792106194+798075107+801615791+802668798
1210+801395107+798254352+793748766+788207278+781831078+774877706+767754577
1200+760623121+752452665+740995127+725273664+708516622+696874611+693756060
1190+696093602+696957166+690889819+676149718+653335269+623552087+587872863
1180+547670820+504953443+462142118+421479957+384672337+352779137+326070162
1170+304062477+285918788+270869349+258364323+248036424+239692823+233449814
1160+229837613+229657012+233751455+242956280+258030247+279187132+305205753
1150+332554510+355264329+366309610+360720003+339187636+309237730+281825847
1140+265454823+262758372+271683277+288785416+311441403+338114135+367642264
1130+398756906+430169236+460785421+489783689+516732163+541694549+565064482
1120+587225722+608352351+628447660+647512166+665632425+682882536+699201245
1111+714458620+728650788+741968871+754629422+766650191+777840507+788030357
1101+797277380+805850992+814030679+821918939+829471752+836682600+843645009
1091+850435144+857056103+863500593+869769388+875817693+881513318+886628994
1081+890922481+894329102+897079224+899512811+901713902+903431090+904482290
1071+905186812+906241820+908148581+910881339+914156738+917865178+922003366
1061+926260449+929999418+932626708+933648927+932497229+928589212+921157617
1051+908400505+886624734+850454766+795746085+725881174+656075193+607239445
1041+591584078+604514303+631038546+657842598+679368187+697046756+715690097
1031+738783644+765243147+790685596+811377957+826304339+836503807+843708780
1021+849231163+853328106+855474075+855111067+851862455+845118728+833621882
1011+815302304+787180800+745467729+686854389+611819001+528206676+451011475
1001+396493238+374282232+383575599+415817510+460554797+509649020+558229487
992+603898661+645727979+683458159+717075905+746760332+772783826+795281804
982+814284604+829977214+842799582+853320812+862031069+869188343+874893262
972+879262461+882389339+884282803+885116547+885391449+885620266+885979272
962+886363709+886613051+886647519+886506357+886256240+885905689+885518347
952+885299600+885416816+885877999+886654555+887671352+888583067+888779481
942+887666511+884719071+879284343+870872677+860137540+849369614+841334899
932+837231307+835825878+834656622+831944260+827358057+821296907+813889581
922+805035644+795581880+788356122+787406195+795275995+810714293+829401978
912+846958683+861069330+871417060+878744801+884099363+888256915+891541028
902+894108161+896104188+897479475+898025536+897735401+896883197+895631129
892+893788592+891159172+887890938+884144868+879520582+872946935+862763604
882+846505052+820799578+782484867+731679749+674852080+622994665+584217545
873+559121194+545303910+543996074+558784327+589056512+628129899+667796079
863+702823579+731630113+754751544+773333953+788335532+800451570+810339021
853+818627533+825745046+831883652+837145267+841598699+845116017+847215384
843+847117596+843908357+837038895+827549114+818786123+814526394+815473933
833+818271818+818823818+816410111+814169518+815900002+822774241+832890831
823+843317630+852119607+858800788+863644983+867091817+869618608+871777680
813+873991551+876427333+879272660+882816184+886964441+891006262+894141595
803+896103737+897261761+898234472+899272440+900011172+899964570+898991793
793+897023779+893658596+888261433+880168755+868557403+852229206+829667715
783+799455816+761303245+717972646+677126883+650201550+646695398+667708103
773+705145243+747393337+785688232+816296445+839005361+854993593+865503592
764+870979566+870493661+861696203+842009730+812256561+780691127+760927198
754+761938573+780150940+803597425+822453769+833450705+836948788+833844566
744+825095001+812022258+796691300+782198992+771861267+767755351+770180160
734+778186088+790287087+804795726+819843067+833629240+845063219+854055542
724+861007107+866149442+869446851+870967689+871228069+871015647+870780311
714+870437442+869839292+869010712+867862821+866288474+864585422+863127903
704+861618167+859243446+855596261+851113654+846618202+842568313+838779384
694+834805466+830425358+825726521+820898721+816008763+810944917+805534458
684+799566190+792757336+784977772+776429075+767433717+758145578+748449184
674+738287089+728169531+718566278+708524626+696196488+682762480+671698674
664+662653358+653603136+644142336+635122968+626993240+619455143+612328722
654+605838275+600096823+594711666+589049476+582599629+574978526+566304286
645+557867512+551546499+548015433+545888763+542738132+536874494+528351389
635+518352951+507701241+496274491+483799963+470704822+458202829+447703641
625+439835100+434065893+429627629+426587953+425788903+427869583+432427257
615+438318522+444710406+451300158+457785021+464007085+470442861+477752367
605+485994857+494766046+503810361+513063290+522306634+531210110+539622905
595+547521847+554896320+562036553+569656882+578218811+587272260+595785844
585+603100934+609537937+615920979+622519863+628809313+634328855+639276131
575+644082115+648872607+653679817+658728495+664022965+669057313+673562640
565+678060803+682992587+688025064+692918185+698087112+703466266+708053955
555+711577598+715341225+720398874+725977025+730608734+734169169+737863602
545+742431797+747359644+752015235+756573684+761345394+766100902+770564726
535+774699365+778186991+780558807+782063122+783718023+786264630+789157851
526+790683466+789838233+787961034+787596542+790522165+796958909+805294539
516+812273795+815136098+814479017+814157706+817620289+824831330+833415269
506+841728373+849225031+854596504+856365136+855748396+855850508+857918505
496+860707355+862936523+864839992+867136934+869806373+872326516+874043059
486+874057388+871744697+867581464+862609210+857188810+851232290+845632839
476+842566054+843569102+846958877+847553929+840864680+826837362+808864462
466+791566200+778069840+768243321+760981676+758144610+764808428+783258196
456+806920007+827236645+842590388+854673508+863551004+868755754+871752829
446+875273698+880512464+885810096+888815305+889266612+888343923+886562318
436+883861187+880425585+875810400+867806795+853936906+834412121+812253334
426+790906667+774108508+766124268+768990960+782332473+804788561+829697148
416+848191000+859122228+865019043+867577269+867815315+866245615+863186769
407+859817778+858172172+859641244+863508726+866539946+864804362+859678423
397+859307282+865197191+871041853+874857439+878644689+881105515+877856773
387+868647058+860643131+861957228+871839967+882406509+887204747+883749845
377+873105073+861324352+855330137
##END=
