##TITLE=2-Mee-8-NH2-qu
##JCAMP-DX=5.0
##DATA TYPE=LINK
##BLOCKS=1


$$ === CHEMSPECTRA SPECTRUM ORIG ===
##TITLE=2-Mee-8-NH2-qu
##JCAMP-DX=5.00
##DATA TYPE=INFRARED SPECTRUM
##DATA CLASS=XYDATA
##$CSCATEGORY=SPECTRUM
##ORIGIN=
##OWNER=
##XUNITS=1/CM
##YUNITS=TRANSMITTANCE
##XFACTOR=0.12501352010900002
##YFACTOR=0.003809693256208739
##FIRSTX=4000.433
##LASTX=249.7859
##MAXX=4000.433
##MAXY=121.91018419867964
##MINX=249.7859
##MINY=61.43892314287833
##NPOINTS=3890
##XYDATA= (X++(Y..Y))
3890B6194B6180B6224B6262B6298B6315B6297B6274B6247B6233B6242B6217B6205B6285
3876B6277B6222B6221B6246B6234B6216B6227B6219B6212B6207B6251B6296B6298
3863B6251B6229B6223B6214B6215B6228B6211B6209B6261B6286B6284B6268B6206
3850B6169B6180B6191B6187B6193B6201B6213B6226B6217B6251B6325B6312B6255
3837B6260B6276B6331B6314B6225B6180B6178B6273B6254B6176B6204B6238B6222
3824B6213B6201B6215B6224B6217B6245B6148B6140B6244B6289B6199B6138B6217
3811B6266B6254B6234B6194B6206B6223B6186B6250B6312B6281B6258B6237B6228
3798B6232B6258B6230B6205B6224B6184B6155B6136B6206B6188B6277B6341B6174
3785B6313B6351B6330B6330B6293B6249B6186B6069B6237B6404B6326B6263B6189
3772B6087B6287B6323B6266B6298B6162B6074B6226B6232B6209B6205B6105B6054
3759B6242B6242B6133B6059B6111B6342B6324B6199B6062B6156B6312B6217B6239
3746B6346B6244B6177B6173B6200B6251B6071B5975B6509B6385B6334B6311B6237
3733B6280B6263B6215B6210B6206B6202B6253B6192B6166B6241B6192B6187B6366
3720B6242B6207B6301B6254B6180B6249B6315B6259B6204B6203B6286B6267B6216
3707B6221B6153B6124B6258B6299B6251B6213B6164B6239B6386B6307B6241B6195
3694B6191B6219B6233B6201B6190B6301B6275B6235B6203B6185B6285B6444B6320
3681B6239B6212B6267B6346B6305B6284B6278B6280B6323B6322B6286B6240B6283
3668B6301B6264B6306B6366B6345B6305B6211B6245B6250B6236B6248B6206B6200
3655B6270B6294B6266B6227B6322B6378B6358B6297B6260B6323B6341B6324B6259
3642B6191B6196B6360B6281B6139B6256B6332B6219B6054B6188B6480B6208B6145
3629B6299B6248B6223B5977B6138B6682B6461B6282B6299B6263B6156B6184B6268
3616B6319B6319B6435B6282B6322B6464B6415B6316B6194B6132B6233B6325B6340
3603B6211B6188B6350B6274B6156B6278B6370B6314B6268B6257B6189B6090B6441
3590B6508B6297B6310B6352B6270B6262B6327B6328B6258B6230B6346B6374B6358
3577B6322B6323B6320B6322B6267B6244B6149B6148B6326B6185B6116B6420B6385
3564B6323B6298B6240B6214B6256B6282B6286B6337B6280B6137B6202B6423B6487
3551B6360B6171B6047B6315B6355B6323B6352B6363B6332B6327B6314B6240B6241
3538B6254B6195B6217B6221B6160B6359B6396B6262B6227B6106B6076B6197B6433
3525B6432B6320B6393B6354B6277B6271B6322B6351B6373B6388B6321B6265B6279
3512B6266B6219B6303B6309B6254B6204B6178B6440B6549B6354B6306B6398B6335
3499B6290B6260B6244B6232B6321B6345B6370B6313B6212B6177B6146B6234B6285
3486B6185B6199B6391B6302B6270B6281B6278B6248B6227B6247B6253B6278B6278
3473B6253B6197B6212B6231B6212B6276B6336B6282B6254B6187B6322B6344B6462
3460B6512B6369B6322B6340B6319B6297B6350B6391B6360B6333B6316B6249B6202
3447B6259B6311B6329B6292B6227B6237B6277B6363B6406B6351B6326B6250B6244
3434B6297B6345B6263B6228B6249B6271B6266B6258B6247B6285B6294B6246B6227
3421B6233B6252B6266B6270B6277B6292B6293B6207B6221B6244B6242B6207B6246
3408B6290B6271B6274B6290B6264B6230B6189B6185B6236B6283B6289B6250B6204
3395B6291B6315B6238B6264B6348B6347B6290B6239B6232B6214B6247B6281B6270
3382B6248B6210B6215B6247B6250B6273B6258B6250B6267B6260B6275B6304B6302
3369B6314B6321B6313B6247B6226B6265B6264B6272B6291B6269B6289B6286B6232
3356B6200B6199B6244B6320B6311B6259B6299B6307B6250B6249B6227B6213B6181
3343B6235B6279B6254B6181B6174B6222B6246B6255B6267B6214B6173B6185B6185
3330B6206B6205B6183B6090B6048B6075B6095B6042B5994B5980B5930B5843B5736
3317B5734B5733B5630B5548B5470B5324B5215B5121B4973B4816B4655B4478B4324
3304B4192B4070B3975B3884B3862B3908B3944B3977B4034B4146B4294B4412B4532
3291B4662B4779B4907B5003B5102B5186B5219B5308B5413B5491B5549B5605B5660
3278B5678B5734B5820B5885B5962B5965B5993B6053B6107B6107B6095B6102B6159
3265B6193B6191B6194B6212B6195B6174B6171B6190B6202B6211B6172B6168B6240
3252B6250B6225B6223B6220B6268B6253B6223B6236B6215B6198B6161B6139B6135
3239B6175B6147B6061B6017B6028B5981B5896B5860B5829B5732B5610B5513B5381
3226B5227B5076B4890B4675B4444B4182B3921B3736B3560B3330B3124B2921B2667
3213B2415B2147B1952B1870B1839B1797B1826B1925B2037B2186B2306B2387B2527
3200B2683B2835B2994B3185B3373B3553B3745B3961B4139B4257B4406B4553B4664
3187B4782B4850B4893B5014B5142B5158B5221B5333B5392B5395B5419B5436B5488
3174B5572B5608B5637B5673B5704B5711B5722B5735B5742B5741B5770B5819B5839
3161B5820B5859B5946B5952B5855B5847B5905B5920B5911B5897B5891B5910B5964
3148B6007B6022B6013B6039B6072B6084B6078B6073B6051B6061B6127B6108B6089
3135B6126B6121B6165B6160B6111B6093B6137B6163B6160B6143B6126B6159B6183
3122B6187B6195B6217B6219B6203B6177B6196B6222B6198B6177B6187B6230B6250
3109B6263B6275B6256B6238B6215B6217B6232B6236B6238B6224B6213B6213B6194
3096B6194B6192B6217B6204B6177B6207B6188B6209B6261B6257B6228B6221B6235
3083B6247B6226B6236B6223B6220B6225B6199B6137B6121B6178B6205B6189B6151
3070B6137B6144B6123B6127B6111B6076B6093B6123B6119B6083B6087B6077B6067
3057B6080B6060B6074B6123B6130B6125B6145B6176B6156B6149B6144B6130B6136
3044B6150B6156B6166B6166B6184B6190B6208B6203B6171B6187B6243B6237B6231
3031B6215B6163B6135B6165B6188B6144B6126B6153B6127B6142B6147B6110B6111
3018B6154B6141B6124B6159B6177B6217B6220B6176B6152B6203B6274B6244B6182
3005B6178B6220B6266B6270B6230B6217B6248B6247B6215B6226B6295B6322B6261
2992B6252B6266B6284B6312B6338B6363B6335B6271B6287B6318B6276B6243B6232
2979B6227B6240B6294B6287B6250B6257B6278B6279B6252B6242B6254B6261B6242
2966B6217B6165B6128B6149B6182B6159B6132B6180B6215B6226B6219B6244B6249
2953B6239B6272B6290B6245B6211B6216B6222B6206B6206B6217B6199B6192B6180
2940B6164B6138B6113B6065B6026B6000B5974B5954B5938B5937B5958B5986B6024
2927B6034B6047B6100B6119B6117B6131B6118B6141B6148B6107B6088B6092B6089
2914B6068B6088B6119B6112B6020B5938B5889B5877B5923B5942B5921B5893B5863
2901B5830B5823B5853B5842B5824B5791B5758B5761B5776B5792B5837B5879B5880
2888B5894B5916B5923B5931B5986B5992B5952B6004B6055B6035B6037B6054B6046
2875B6041B6033B5994B5964B5993B5995B6019B6019B6013B6032B6061B6074B6069
2862B6051B6063B6042B6030B5994B5921B5844B5816B5816B5757B5711B5669B5678
2849B5729B5768B5792B5829B5872B5927B5948B5973B6011B6040B6049B6072B6106
2836B6117B6115B6136B6152B6156B6156B6144B6108B6108B6149B6152B6146B6137
2823B6138B6186B6188B6156B6196B6240B6216B6180B6173B6144B6115B6126B6123
2810B6095B6127B6110B6057B5986B5937B5848B5724B5560B5389B5232B5127B5135
2797B5272B5459B5596B5709B5774B5807B5867B5922B5945B5966B5980B6032B6073
2784B6034B6016B6060B6061B6023B6035B6034B6049B6093B6111B6118B6102B6095
2771B6104B6100B6129B6134B6129B6146B6170B6187B6211B6214B6185B6161B6171
2758B6201B6189B6173B6194B6209B6213B6210B6175B6162B6178B6211B6181B6138
2745B6151B6149B6138B6116B6125B6131B6131B6126B6128B6107B6081B6125B6167
2732B6185B6179B6144B6137B6166B6148B6128B6152B6144B6152B6171B6180B6223
2719B6213B6176B6183B6186B6182B6196B6175B6178B6225B6213B6179B6191B6189
2706B6155B6147B6150B6156B6170B6173B6146B6146B6150B6153B6169B6169B6139
2693B6119B6115B6150B6163B6139B6108B6099B6077B6050B6039B6023B6029B6061
2680B6097B6134B6161B6199B6220B6217B6225B6231B6217B6212B6225B6230B6244
2667B6251B6239B6248B6254B6248B6276B6289B6268B6264B6264B6239B6256B6265
2654B6257B6251B6262B6262B6258B6248B6257B6267B6251B6259B6270B6266B6274
2641B6274B6241B6240B6258B6254B6247B6257B6274B6299B6303B6305B6299B6270
2628B6267B6269B6280B6294B6255B6241B6254B6248B6239B6244B6243B6234B6234
2615B6241B6251B6241B6238B6240B6240B6273B6286B6271B6266B6253B6245B6251
2602B6270B6281B6286B6294B6308B6301B6287B6277B6272B6281B6301B6299B6288
2589B6263B6254B6258B6272B6275B6280B6293B6245B6230B6260B6251B6226B6217
2576B6236B6237B6219B6224B6233B6207B6200B6235B6241B6226B6239B6237B6236
2563B6258B6292B6303B6290B6271B6233B6241B6247B6241B6226B6219B6221B6214
2550B6220B6229B6237B6253B6243B6216B6238B6274B6272B6253B6239B6233B6221
2537B6226B6219B6237B6254B6259B6253B6238B6248B6267B6289B6260B6245B6253
2524B6250B6252B6253B6254B6235B6255B6272B6236B6223B6231B6244B6260B6254
2511B6280B6276B6257B6274B6292B6266B6231B6236B6261B6261B6249B6266B6272
2498B6257B6253B6259B6251B6220B6207B6216B6227B6201B6190B6213B6195B6187
2485B6182B6175B6186B6212B6213B6179B6194B6233B6201B6148B6187B6231B6253
2472B6246B6228B6231B6240B6246B6222B6208B6214B6201B6195B6204B6229B6237
2459B6221B6227B6232B6212B6235B6248B6251B6264B6227B6202B6233B6223B6221
2446B6215B6183B6185B6219B6233B6261B6263B6244B6240B6206B6215B6248B6241
2433B6226B6254B6266B6238B6220B6237B6244B6318B6357B6310B6249B6229B6258
2420B6302B6338B6313B6273B6275B6243B6274B6313B6291B6293B6303B6313B6280
2407B6262B6274B6278B6259B6245B6259B6251B6241B6257B6252B6260B6238B6261
2394B6249B6227B6268B6277B6250B6264B6258B6263B6262B6276B6254B6210B6235
2381B6280B6297B6289B6233B6262B6305B6302B6295B6299B6375B6402B6342B6301
2368B6292B6274B6250B6293B6342B6301B6248B6223B6236B6282B6265B6275B6301
2355B6305B6292B6271B6295B6293B6290B6314B6299B6293B6285B6277B6327B6358
2342B6322B6313B6321B6302B6321B6318B6286B6292B6296B6274B6278B6323B6306
2329B6234B6191B6235B6260B6256B6261B6271B6277B6296B6340B6352B6327B6293
2316B6278B6326B6348B6301B6280B6295B6279B6288B6302B6316B6276B6275B6277
2303B6284B6282B6268B6228B6243B6285B6320B6292B6237B6246B6266B6308B6320
2290B6279B6296B6288B6234B6239B6275B6292B6334B6353B6327B6291B6283B6289
2277B6314B6250B6229B6269B6254B6269B6302B6275B6277B6325B6329B6234B6203
2264B6246B6305B6327B6330B6326B6336B6345B6357B6346B6348B6366B6372B6354
2251B6359B6348B6355B6340B6342B6337B6332B6327B6299B6278B6251B6232B6314
2238B6302B6241B6253B6260B6243B6225B6236B6242B6263B6284B6254B6249B6254
2225B6255B6260B6253B6241B6282B6304B6316B6301B6275B6254B6232B6247B6292
2212B6324B6320B6294B6268B6286B6315B6250B6232B6282B6315B6344B6355B6269
2199B6299B6333B6312B6321B6395B6429B6398B6299B6254B6278B6332B6342B6388
2186B6370B6356B6257B6246B6328B6366B6374B6317B6277B6228B6189B6172B6260
2173B6320B6364B6368B6299B6313B6312B6283B6214B6116B6091B6169B6222B6239
2160B6223B6237B6252B6259B6276B6303B6240B6192B6237B6234B6203B6200B6280
2147B6283B6355B6314B6334B6287B6287B6160B6186B6134B6237B6283B6324B6298
2134B6316B6309B6332B6253B6177B6258B6262B6272B6293B6278B6264B6208B6242
2121B6257B6255B6250B6301B6297B6235B6199B6192B6184B6173B6158B6152B6168
2108B6161B6190B6240B6217B6252B6309B6268B6244B6249B6268B6264B6240B6257
2095B6305B6356B6329B6205B6251B6401B6456B6405B6376B6424B6455B6358B6299
2082B6294B6244B6258B6247B6191B6237B6284B6271B6291B6365B6379B6268B6258
2069B6188B6175B6390B6434B6322B6321B6446B6505B6451B6519B6431B6352B6466
2056B6467B6339B6397B6449B6461B6380B6195B6250B6416B6299B6223B6271B6215
2043B6010B5965B6175B6288B6303B6382B6447B6509B6293B6242B6336B6440B6515
2030B6602B6587B6332B6323B6418B6368B6380B6533B6522B6494B6434B6286B6162
2017B6207B6340B6402B6379B6281B6314B6283B6288B6310B6156B6156B6195B6279
2004B6322B6476B6631B6547B6442B6444B6328B6252B6467B6575B6392B6325B6589
1991B6698B6530B6384B6063B6174B6149B6039B6171B6278B6388B6487B6564B6543
1978B6403B6508B6756B6810B6726B6714B6639B6510B6325B6406B6479B6497B6492
1965B6585B6444B6402B6370B6397B6454B6266B6163B6215B6265B6390B6484B6464
1952B6453B6389B6365B6403B6298B6311B6238B6095B6191B6308B6244B6092B6056
1939B6100B6152B6226B6208B6156B6118B6136B6177B6183B6119B6166B6150B6081
1926B6117B6287B6280B6172B6201B6112B5985B6063B6153B6174B6054B6095B6208
1913B6141B6079B6101B6084B6034B6079B6162B6294B6354B6288B6169B6049B5972
1900B6017B6215B6236B6279B6316B6262B6232B6225B6266B6373B6304B6176B6183
1887B6084B6095B6139B6150B6175B6225B6255B6288B6207B6147B6217B6205B6243
1874B6307B6219B6250B6326B6235B6136B6270B6413B6421B6486B6402B6244B6377
1861B6350B6364B6463B6467B6512B6532B6347B5943B6045B6283B6310B6460B6551
1848B6437B6539B6569B6506B6541B6675B6528B6319B6349B6381B6296B6308B6249
1835B6242B6270B6409B6302B6354B6463B6509B6301B6150B6102B6118B6286B6323
1822B6297B6421B6298B6443B6508B6474B6449B6298B6175B6104B6204B6293B6231
1809B6234B6289B6405B6452B6296B6168B6240B6334B6308B6320B6286B6216B6266
1796B6264B6258B6228B6205B6149B6162B6486B6625B6422B6507B6334B6097B6138
1783B6112B6083B6063B5996B6022B6129B6239B6264B6252B6281B6296B6323B6449
1770B6354B6173B6116B6170B6192B6293B6420B6265B6212B6184B6147B6078B6074
1757B6151B6242B6251B6279B6259B6243B6245B6290B6380B6377B6309B6309B6318
1744B6276B6289B6257B6200B6130B6120B6196B6245B6277B6269B6245B6229B6197
1731B6187B6173B6144B6113B6129B6061B6025B5969B6016B6059B6102B6130B6200
1718B6252B6223B6196B6183B6238B6268B6259B6207B6172B6212B6251B6228B6192
1705B6201B6231B6232B6205B6256B6287B6317B6293B6203B6162B6202B6187B6160
1692B6185B6224B6281B6273B6188B6197B6225B6244B6242B6243B6239B6198B6224
1679B6250B6254B6245B6251B6281B6277B6280B6273B6248B6253B6267B6240B6212
1666B6222B6230B6217B6194B6165B6154B6146B6162B6172B6185B6171B6160B6245
1653B6282B6276B6281B6249B6241B6238B6256B6252B6237B6245B6256B6230B6195
1640B6159B6205B6212B6194B6152B6146B6187B6178B6183B6201B6222B6238B6250
1627B6277B6286B6264B6256B6282B6283B6276B6257B6273B6270B6245B6256B6261
1614B6275B6261B6238B6245B6247B6221B6229B6267B6250B6240B6251B6241B6189
1601B6188B6230B6250B6266B6259B6268B6266B6248B6255B6274B6251B6245B6236
1588B6251B6262B6272B6272B6251B6271B6266B6212B6212B6238B6259B6236B6202
1575B6250B6236B6202B6195B6191B6140B6111B6143B6117B6091B6060B6016B6022
1562B6018B5993B5864B5698B5643B5694B5513B5396B5306B5195B5034B4788B4529
1549B4209B3678B2997B1909B0716A9599A8609A7754A7078A6613A6338A6162A6127
1536A6418A6945A7480A8150A8902A9639B0258B0875B1456B1987B2275B2502B2733
1523B3167B3409B3476B3711B3921B4072B4224B4290B4388B4476B4550B4617B4797
1510B4886B5063B5172B5134B4987B5189B5458B5391B5306B5275B5438B5410B5398
1497B5444B5502B5586B5676B5725B5799B5827B5790B5824B5962B6057B6050B6042
1484B6078B6136B6163B6151B6101B6170B6206B6162B6136B6144B6105B6112B6188
1471B6179B6176B6183B6179B6140B6190B6249B6250B6260B6279B6270B6253B6225
1458B6153B6066B6122B6350B6269B6198B6120B6079B6053B6070B6191B6128B6062
1445B6029B5998B5971B5950B5877B5812B5752B5729B5858B5729B5651B5587B5505
1432B5364B5193B5017B4873B4614B4294B3855B3428B2936B2337B1606B0811A9998
1419A9194A8417A7997A7723A7704A7926A8339A8871A9470B0047B0506B0916B1137
1406B1248B1290B1353B1428B1560B1732B1936B2153B2361B2575B2800B3047B3198
1393B3313B3351B3279B3273B2993B2720B2512B2486B2658B2942B3228B3488B3698
1380B3904B4079B4148B4180B4568B4680B4694B4768B4771B4796B4874B5032B5100
1367B5147B5172B5208B5277B5295B5285B5202B5112B5266B5394B5625B5660B5634
1354B5667B5789B5813B5827B5815B5894B5970B5975B5962B5952B6000B6010B5966
1341B6029B6055B6018B6130B6212B6210B6211B6201B6156B6223B6288B6303B6319
1328B6244B6179B6137B6131B6109B6169B6078B5960B5900B5956B5969B5828B5651
1315B5646B5654B5588B5537B5347B5166B4909B4556B4089B3546B2892B2146B1371
1302B0931B0696B1000B1520B2080B2549B3247B3685B3913B4461B4724B4909B5112
1289B5207B5308B5528B5688B5713B5785B5867B5844B5774B5742B5505B5372B5145
1276B4883B4317B3598B2787B1977B1289B0537B0153B0460B1002B1582B2197B2731
1263B3165B3443B3823B4267B4523B4803B5026B5143B5175B5208B5236B5414B5350
1250B5303B5250B5182B5108B5073B5047B5021B5101B5159B5177B5227B5286B5357
1237B5429B5471B5427B5290B5001B4461B3538B2502B1469B0943B0956B1082B1163
1224B1408B1840B2435B3023B3474B3776B4114B4355B4536B4642B4922B5337B5435
1211B5586B5741B5844B5903B5940B5974B6003B6028B6054B6069B6088B6092B6107
1198B6180B6190B6197B6189B6161B6154B6175B6171B6170B6191B6254B6334B6339
1185B6360B6355B6338B6284B6238B6199B6126B6029B5875B5640B5321B4829B4096
1172B3008B1639B0335A9542A9428A9981B0887B1707B2430B3066B3563B3998B4326
1159B4566B4798B4996B5158B5371B5516B5640B5747B5803B5862B5895B5884B5837
1146B5815B5765B5690B5579B5407B5121B4708B4142B3510B2932B2541B2407B2494
1133B2620B2736B2831B2912B2965B2999B3032B3063B3110B3175B3253B3392B3655
1120B4047B4484B4903B5213B5447B5655B5809B5973B6013B6074B6162B6237B6264
1107B6288B6299B6281B6245B6198B6148B6081B5998B5921B5869B5805B5740B5673
1094B5541B5389B5274B5126B4973B4678B4314B3917B3453B2866B2162B1358B0502
1081A9722A9119A8823A8982A9573B0406B1320B2236B3018B3596B3972B4171B4184
1068B4054B3811B3420B2915B2395B1897B1427B0966B0480A9940A9346A8670A7980
1055A7374A6922A6644A6538A6598A6839A7193A7611A8100A8609A9090A9535A9968
1042B0376B0745B1137B1524B1898B2241B2558B2834B3066B3258B3422B3563B3689
1029B3814B3956B4134B4338B4525B4683B4840B4995B5103B5181B5233B5228B5147
1016B4953B4651B4333B4141B4215B4520B4906B5212B5403B5561B5698B5799B5898
1003B5982B6067B6122B6159B6198B6237B6284B6315B6320B6342B6326B6286B6237
990B6158B6006B5823B5556B5199B4744B4201B3597B2954B2332B1794B1344B0971
977B0716B0685B0880B1193B1582B2013B2417B2776B3039B3269B3492B3668B3799
964B3958B4149B4361B4583B4797B5013B5218B5405B5582B5739B5895B6008B6105
951B6190B6243B6247B6260B6295B6311B6291B6253B6177B6012B5756B5377B4759
938B3875B2725B1434B0266A9528A9347A9709B0387B1202B1991B2711B3354B3898
925B4327B4677B4931B5085B5128B5020B4672B3934B2760B1349B0000A8999A8578
912A8700A9083A9541B0006B0441B0782B1090B1381B1627B1851B2079B2283B2516
899B2783B3002B3187B3363B3526B3697B3855B4000B4124B4243B4386B4520B4636
886B4732B4826B4917B4959B4989B5032B5071B5088B5083B5006B4908B4807B4694
873B4585B4501B4507B4570B4622B4721B4858B4971B5031B5077B5148B5222B5273
860B5308B5348B5379B5422B5437B5470B5511B5533B5569B5604B5646B5675B5693
847B5726B5779B5825B5844B5833B5858B5879B5905B5924B5923B5942B5992B6034
834B6075B6102B6090B6108B6131B6129B6150B6147B6139B6179B6228B6267B6273
821B6235B6217B6196B6209B6237B6265B6263B6286B6296B6280B6257B6275B6283
808B6270B6266B6241B6236B6253B6271B6278B6259B6225B6202B6226B6255B6233
795B6160B6110B6143B6166B6121B6107B6127B6121B6111B6099B6102B6121B6099
782B6074B6088B6089B5997B5934B5885B5765B5581B5327B5040B4631B4030B3333
769B2622B2170B2114B2396B2874B3347B3744B4089B4371B4660B4893B5090B5297
756B5442B5517B5598B5657B5710B5787B5822B5883B5939B5948B5961B5981B5989
743B5968B6003B6017B5969B5877B5764B5632B5601B5670B5737B5819B5928B6011
730B6022B6052B6130B6135B6136B6139B6146B6185B6206B6186B6167B6173B6215
717B6258B6238B6182B6203B6250B6238B6253B6247B6212B6197B6240B6259B6242
704B6255B6258B6259B6291B6315B6293B6271B6282B6272B6262B6277B6265B6272
691B6295B6306B6291B6257B6236B6237B6233B6206B6152B6034B5861B5651B5508
678B5479B5593B5748B5862B5975B6074B6131B6147B6159B6181B6172B6196B6205
665B6206B6191B6207B6249B6226B6207B6229B6274B6285B6247B6259B6265B6236
652B6247B6222B6150B6027B5748B5286B4662B3769B2835B2301B2514B3237B3937
639B4454B4823B5033B5059B4965B4766B4348B3787B3292B2981B2829B2816B2837
626B2980B3289B3737B4145B4338B4349B4194B3812B3211B2472B1877B1773B2213
613B2922B3626B4209B4699B5080B5293B5461B5614B5769B5846B5908B5949B5899
600B5883B5922B6004B6061B6071B6055B6016B5927B5675B5188B4237B2633B1496
587B2271B3919B5014B5507B5705B5825B5968B6094B6189B6257B6304B6299B6278
574B6279B6257B6234B6255B6263B6184B6046B5848B5546B5114B4451B3729B3238
561B2946B2947B3454B4200B4802B5279B5672B5924B6045B6125B6161B6205B6180
548B6000B5646B5020B3871B2071A9882A8050A7336A7837A9064B0396B1427B2129
535B2470B2376B1865B0922A9692A8408A7383A6899A7016A7497A7999A8391A8636
522A8911A9483B0277B1052B1724B2374B2905B3279B3650B4003B4280B4494B4640
509B4740B4914B5069B5236B5321B5345B5419B5489B5538B5609B5685B5726B5801
496B5891B5948B5996B6065B6166B6309B6345B6430B6432B6284B6149B5968B5976
483B6137B6257B6320B6352B6339B6380B6438B6419B6423B6429B6444B6456B6455
470B6444B6445B6433B6441B6434B6419B6370B6391B6384B6341B6397B6457B6429
457B6371B6345B6330B6304B6269B6252B6247B6234B6234B6271B6273B6214B6184
444B6202B6161B6144B6159B6168B6161B6128B6075B6033B6038B6037B5984B5951
431B5952B5904B5835B5772B5710B5605B5546B5534B5414B5223B4986B4671B4457
418B4347B4457B4816B5261B5679B6001B6168B6250B6260B6272B6295B6256B6169
405B6161B6144B6055B5994B6016B6030B5959B5877B5898B5944B5899B5819B5867
392B5911B5834B5796B5767B5747B5712B5685B5700B5605B5459B5336B5196B4981
379B4847B4786B4844B4959B5022B5108B5265B5324B5294B5304B5325B5332B5303
366B5304B5290B5265B5269B5358B5383B5328B5332B5404B5457B5418B5365B5334
353B5348B5388B5303B5223B5304B5242B5089B5164B5379B5639B5920B6059B6095
340B6068B6050B6093B6163B6106B6006B5991B6102B6146B6078B6052B6147B6153
327B6149B6145B6158B6193B6169B6183B6141B6122B6272B6332B6347B6374B6308
314B6308B6397B6358B6325B6381B6278B6267B6217B6209B6306B6265B6178B6148
301B6003B5877B5792B5663B5627B5675B5580B5304B5057B5024B4825B4347B3833
288B3513B3499B3681B3895B4272B4575B4690B4733B4712B4694B4732B4695B4497
275B4373B4173B3969B3749B3435B3058B2832B2962B3371B3821B3953B4027B4275
262B4390B4235B4233B4343B4273B4210B4313B4441B4491B4415B4281B4242B4381
249B4395B4447B4545B4449B4392B4509B4592B4603B4804B5020B5119B5108B4956
236B5121B5146B5166B5202B5317B5308B5429B5572B5709B5485B5507B5687B5757
223B5772B5678B5735B6026B6026B5860B5857B6073B6246B6043B6010B6247B6042
210B5789B5558B5255B4883B4095B2997B2337B2016B2081B2622B3094B3293B3371
197B3282B3271B3584B3564B3520B3932B4128B4247B4253B4338B4384B4094B3565
184B3175B3053B3374B3897B4347B4393B4448B4598B5027B5462B5151B5187B5519
171B5354B5390B5843B6079B5964B5853B6071B5987B5827B6105B5942B5690B5776
158B5578B5277B5491B5781B5971B6309B6211B6149B6104B5921B5896B6108B6304
145B6221B6167B6207B6048B5901B5914B5915B6273B6559B6541B6246B6052B5832
132B6046B6425B6413B6230B6047B6036B6058B5934B5546B5575B5730B6043B5935
119B5339B5306B5637B5541B5275B5418B4624B3789B3679B3329B2700B2503B2632
106B2119B1597B2199B2769B3025B3029B3362B4072B4553B4926B5035B4943B5377
93B5514B5104B5147B5855B5847B5664B6219B6833B6684B6342B6590B6623B6246
80B5666B6298B5601B3654B4585B4003B3226B3310B3026B3337B3787B3628B2836
67B2447B2686B2004B1562B1476B1108B0409B1068B2046B2655B3346B3955B4915
54B5687B6402B6609B6004B6029B6275B5907B5705B5542B5984B7336B8999B9389
41B6995B6484B5814B5215B5260B5136B4304B5384B6056B6626B5155B5520B5702
28B5018B5334B5894B7205B8414B6357B5537B5607B5720B7213B7917B7896B7477
15B4813B4636B5309B4852B4238B4726B4589B2412B0442B8908C2000B5197B2122
2B0892A9172
$$ === CHEMSPECTRA INTEGRALS AND MULTIPLETS ===
##$OBSERVEDINTEGRALS= (X Y Z)

##$OBSERVEDMULTIPLETS=
##$OBSERVEDMULTIPLETSPEAKS=
$$ === CHEMSPECTRA SIMULATION ===
##$CSSIMULATIONPEAKS=
##END=


$$ === CHEMSPECTRA PEAK TABLE EDIT ===
##TITLE=2-Mee-8-NH2-qu
##JCAMP-DX=5.00
##DATA TYPE=INFRAREDPEAKTABLE
##DATA CLASS=PEAKTABLE
##$CSCATEGORY=EDIT_PEAK
##$CSTHRESHOLD=0.93
##MAXX=4000.433
##MAXY=121.91018419867964
##MINX=249.7859
##MINY=61.43892314287833
##$CSSOLVENTNAME=- - -
##$CSSOLVENTVALUE=0
##$CSSOLVENTX=0
##NPOINTS=47
##PEAKTABLE= (XY..XY)
255.57244733864718, 77.87774954341904
307.65137338647446, 77.75202966596416
313.4379207251218, 85.51618452211757
318.2600435073282, 87.72199691746242
320.1888926202105, 88.48393556870417
323.0821662895346, 90.11448428236152
350.0860538698894, 82.27794525434014
425.3111692723064, 87.82485863538005
444.59966040113113, 83.8742067286916
508.2516811262535, 86.98291642575794
525.6113231421959, 89.52398182764915
582.5123719720702, 95.86712109923671
613.3739577781905, 94.4270570483898
651.9509400358409, 92.75460170891417
716.5673853174052, 98.93011447722853
758.0376412445357, 64.38000633667149
770.5751604782718, 66.0448422896347
789.8636516070969, 87.41722145696572
815.9031146310103, 81.89316623546306
841.9425776549238, 82.94845126743287
854.4800968886602, 86.92196133365859
868.946465235279, 84.95996930671109
903.6657492670093, 97.17765557937251
959.6023735406023, 97.6500575431424
988.5351102339932, 84.24755666780005
1089.7996886601645, 93.34129447037031
1129.341095474415, 70.77648131384595
1148.6295866032397, 73.70613542787048
1190.0998425302132, 78.80350500467776
1225.783551118366, 91.96980489813517
1263.396108819748, 63.00470707118013
1289.4355718436614, 71.7098561616171
1343.443347004371, 85.36379679186922
1375.2693573669321, 74.01472058162338
1433.1348307534067, 79.78640586477962
1448.5656236562704, 95.32233496359886
1472.676237567498, 76.77674819237471
1503.5378233736178, 78.84541163049606
1585.5139106711235, 85.6647625591097
1613.4822228079197, 67.44680940791952
1731.1420186937517, 61.43892314287833
2948.245808922463, 95.72616244875698
2998.395885857414, 97.79101619362213
3040.8305663408346, 98.1300788934247
3076.5142749291654, 98.81582367954228
3342.6954525070714, 83.03988390558189
3431.422511699666, 90.90690047965293
##END=


$$ === CHEMSPECTRA PEAK TABLE AUTO ===
##TITLE=2-Mee-8-NH2-qu
##JCAMP-DX=5.00
##DATA TYPE=INFRAREDPEAKTABLE
##DATA CLASS=PEAKTABLE
##$CSCATEGORY=AUTO_PEAK
##$CSTHRESHOLD=0.93
##MAXX=4000.433
##MAXY=121.91018419867964
##MINX=249.7859
##MINY=61.43892314287833
##NPOINTS=100
##PEAKTABLE= (XY..XY)
377.08994145024417, 98.41199619438414
406.02267814348124, 98.3929477281031
3045.652689123168, 98.37770895507826
3297.367498354333, 98.36627987530964
628.8047506814091, 98.36247018205343
1550.7946266392387, 98.3472314090286
1685.814064541013, 98.25198907762338
3040.8305663409615, 98.1300788934247
3301.225196580098, 98.06531410806915
1635.663987606068, 98.01959778899464
403.1294044741576, 97.87101975200251
621.0893542298791, 97.85197128572146
462.92372697351493, 97.825303432928
2998.395885857547, 97.79101619362213
325.97543995885826, 97.7795871138535
333.6908364103879, 97.77196772734108
1517.0397671637952, 97.70339324872931
1751.3949343790177, 97.6919641689607
1555.616749421445, 97.65767692965481
535.2555687066083, 97.63100907686136
958.6379489843148, 97.53195705219993
368.4101204422727, 97.32242392310845
293.1850050398557, 97.30718515008361
270.03881568526594, 97.28813668380256
467.7458497557209, 97.09003263447971
902.7013247107225, 97.06717447494246
1693.5294609925431, 96.75858932118955
413.7380745950113, 96.59096281791636
590.2277684237592, 96.5147689527922
596.0143157624066, 96.49191079325495
471.6035479814859, 96.41571692813076
362.6235731036254, 96.40809754161835
602.7652876574953, 96.39666846184973
606.6229858832603, 96.36238122254385
400.2361308048339, 96.2976164371883
1696.4227346618668, 96.28999705067588
359.73029943430174, 96.28999705067588
599.8720139881716, 96.2519001181138
586.3700701979942, 96.09189300135303
285.4696085883256, 96.06141545530335
278.71863669323693, 95.83283385993083
416.631348264335, 95.817595086906
2948.245808922602, 95.72616244875698
1560.438872203651, 95.66901704991385
337.5485346361529, 95.63853950386418
583.4767965286705, 95.58139410502105
1448.5656236564669, 95.32233496359886
275.82536302391327, 95.31090588383023
1701.2448574440727, 95.19280539288776
477.3900953201337, 95.0747049019453
340.44180830547657, 95.02517888961458
613.373957778349, 94.4270570483898
517.8959266906659, 94.0765652688186
262.3234192337359, 93.8556030599585
1089.7996886603237, 93.34129447037031
485.1054917716633, 92.92603790544356
651.9509400359989, 92.75460170891417
282.57633491900197, 92.5907848988972
490.8920391103111, 92.35458391701225
259.4301455644122, 92.33934514398742
499.5718601182821, 92.32029667770637
496.6785864489584, 92.23267373281357
1225.7835511185394, 91.96980489813517
3431.422511699666, 90.90690047965293
323.0821662895346, 90.11448428236152
434.9554148367188, 89.60398538602954
525.6113231421959, 89.52398182764915
437.84868850604244, 88.65537176523357
320.1888926202105, 88.48393556870417
425.3111692723064, 87.82485863538005
318.2600435073282, 87.72199691746242
789.8636516070969, 87.41722145696572
508.2516811262535, 86.98291642575794
854.4800968886602, 86.92196133365859
352.97932753921305, 85.72952734446525
1585.5139106711235, 85.6647625591097
313.4379207251218, 85.51618452211757
1343.443347004371, 85.36379679186922
868.946465235279, 84.95996930671109
988.5351102339932, 84.24755666780005
444.59966040113113, 83.8742067286916
3342.6954525070714, 83.03988390558189
841.9425776549238, 82.94845126743287
350.0860538698894, 82.27794525434014
815.9031146310103, 81.89316623546306
1433.1348307534067, 79.78640586477962
1503.5378233736178, 78.84541163049606
1190.0998425302132, 78.80350500467776
255.57244733864718, 77.87774954341904
307.65137338647446, 77.75202966596416
1472.676237567498, 76.77674819237471
1375.2693573669321, 74.01472058162338
1148.6295866032397, 73.70613542787048
1289.4355718436614, 71.7098561616171
1129.341095474415, 70.77648131384595
1613.4822228079197, 67.44680940791952
770.5751604782718, 66.0448422896347
758.0376412445357, 64.38000633667149
1263.396108819748, 63.00470707118013
1731.1420186937517, 61.43892314287833
##END=

##END=

