##TITLE=HMS-32
##JCAMP-DX=5.0
##DATA TYPE=LINK
##BLOCKS=1


$$ === CHEMSPECTRA SPECTRUM ORIG ===
##TITLE=HMS-32
##JCAMP-DX=5.00
##DATA TYPE=INFRARED SPECTRUM
##DATA CLASS=XYDATA
##ORIGIN=Angelika Moesle
##OWNER=
##XUNITS=1/CM
##YUNITS=TRANSMITTANCE
##XFACTOR=1
##YFACTOR=8.1642282e-010
##FIRSTX=3997.453
##LASTX=373.96442
##MAXX=3997.453
##MAXY=0.8766273270856009
##MINX=373.96442
##MINY=0.390988439937267
##NPOINTS=2559
##XYDATA= (X++(Y..Y))
2559A069297663A068967671A068902403A069272549A070051388A070798251A071020046
2552A070633328A069950419A069372495A069190781A069509968A070170755A070803434
2545A071127440A071175186A071079837A070803943A070344585A070009482A070133521
2538A070630115A071090863A071221473A070995224A070526007A070050001A069948521
2531A070437742A071153138A071380044A070832929A069899022A069107918A068689879
2524A068545033A068423182A068273301A068350977A068744050A069123176A069309052
2517A069513472A069797835A069907710A069737750A069515370A069426229A069310220
2510A068921166A068408291A068280821A068675278A069015418A068859253A068482320
2503A068311703A068340613A068387849A068477283A068632420A068523788A067572506
2496A065641761A063631803A063057018A064600096A067081533A068792016A069383081
2489A069367604A068820124A067604118A066300431A066167120A067619376A069072290
2482A069076233A068294838A068008723A067930460A067122928A066235892A066424689
2475A067148332A067267117A066838712A066208148A065381417A065123553A066471194
2468A068304037A068526489A067399844A066732778A067253100A068160359A068499258
2461A067576375A065126842A062444197A062982916A068499696A073543828A073741823
2454A070982154A068004489A066131054A065540062A065646506A065615843A065299869
2447A065404926A066164126A066623849A066235673A065765727A065985332A066539164
2440A066720732A066609908A066431332A065788797A064792980A064760635A065986135
2433A066597423A066239175A066712994A068260963A068867432A067567687A065166266
2426A063113087A062869901A064218342A064926437A064356179A064575127A066640717
2419A068454066A068644323A068153861A067776050A067276094A066541938A065988325
2412A065902542A066144487A066430164A066515509A066210778A065655559A065399085
2405A065715352A066037605A065720024A064804442A063679987A062943346A063411613
2398A065140640A066914128A067831681A067994560A067387433A065967226A064622290
2391A064518839A065286435A065205981A063546750A061339892A060558643A062364619
2384A064534316A063858563A061103422A059936476A062565461A065978323A066600125
2377A064877304A062833543A062094201A063148642A065013024A066235600A066197637
2370A065140640A063749052A062884867A063035043A063793294A064377059A064457659
2363A064160447A063721090A063232527A062656939A062272922A062801931A064408963
2356A066010300A066774392A066756506A065941017A064498397A063360874A063380658
2349A064131025A064609733A064501025A064020127A063316996A062403824A061651851
2342A062078431A064090360A066071772A066422279A065471508A064340409A063560840
2335A062781635A061673899A061197236A062848583A065399815A065980660A065172471
2328A065604892A067542865A068603585A067807589A066148795A064682010A063723573
2321A062964883A062307381A062407474A063392924A063635599A061945777A059612982
2314A059152891A061390047A063720798A063911201A062775430A061895913A061952494
2307A062601089A063056650A062922320A062535748A062403313A062382649A062077482
2300A062132383A063839946A066296926A066986113A065846253A064325881A063350433
2293A063379344A064371437A064999298A063873310A061571397A059789002A059400459
2286A060102714A061470866A063176896A064444737A064535046A063523679A062120264
2279A061104590A060845777A061162703A061691640A062185314A062349287A061845977
2272A060890533A060553970A061839260A064009030A065100778A064619224A063578070
2265A062766377A062226634A061817723A061616953A061710110A061909639A061833127
2258A061341352A060894402A061292729A062650515A063841114A063913829A063230699
2251A062676067A062637300A062790396A062659202A062291539A062248757A062843764
2244A063535652A063515795A062767837A062020099A061797427A061902922A061872259
2237A061530951A061020924A060630263A060588284A060865711A061203295A061337117
2230A061142991A060707577A060327064A060234199A060342761A060461102A060586970
2223A060773284A060913311A060863739A060659539A060527104A060663043A060947479
2216A060994495A060613763A060024961A059487191A059065502A058910070A059298248
2209A060160462A060928862A061110649A060789783A060408540A060118264A059611449
2202A058716966A057794011A057292598A057261643A057487308A057776562A057917028
2195A057657269A056973630A056256263A056031547A056454623A057162135A057705964
2188A057996167A058187811A058317691A058207377A057654567A056756726A056037022
2181A056027605A056715915A057636681A058396973A058844291A058933942A058688055
2174A058187154A057566594A057099202A057087813A057456353A057698956A057453798
2167A056853096A056158506A055371417A054457514A053679040A053321013A053260344
2160A053147767A052844277A052360824A051627176A050612158A049434262A048175839
2153A046827545A045386604A043726715A041536357A038707332A035597231A032683956
2146A030127102A027763863A025362587A022757695A019813684A016407466A012553714
2139A008518248A004678587A001268572I98309592I95749164I93670653I92420114
2132I92407338I93681239I95888535I98692810A001944472A005448666A008952129
2125A012389084A015816766A019166331A022316367A025250302A027897320A030073588
2118A031799183A033377450A034987695A036496167A037745975A038750917A039648905
2111A040672318A041992578A043409717A044395241A044595715A044208706A043838124
2104A043990124A044668068A045466328A046011760A046198735A046109812A045938245
2097A045897142A046034615A046254439A046538217A046943699A047415105A047845628
2090A048268412A048761210A049192828A049247072A048767926A048036177A047628721
2083A047932799A048780265A049556695A049728919A049333805A048885687A048750770
2076A048769898A048565916A047987189A047171408A046417683A046040090A046127553
2069A046440315A046654518A046615313A046291600A045708492A045059897A044726766
2062A044993753A045760838A046570341A046935084A046695548A046155441A045815739
2055A045854433A045944597A045748353A045418362A045389013A045866844A046712558
2048A047627629A048282357A048426984A048071293A047561266A047392254A047761597
2041A048355656A048772453A048988700A049114418A048977895A048379821A047545788
2034A047015903A047179877A047958789A048812680A049138949A048807642A048262134
2027A048102029A048538757A049191441A049478797A049258534A048893207A048683530
2020A048565478A048395810A048213730A048139117A048184670A048238187A048208546
2013A048159778A048245415A048504809A048706966A048441658A047578641A046665250
2006A046513760A047274932A048266295A048811074A048929053A049099671A049574655
1999A050071979A050128268A049629409A048884373A048308931A048179636A048511161
1992A048992204A049229550A049178007A049137854A049301024A049533552A049626271
1985A049546985A049433021A049479673A049801780A050285816A050650122A050749996
1978A050688743A050564484A050274866A049702855A048985707A048442970A048214971
1971A048103635A047877021A047613393A047561047A047743345A047906443A047862566
1964A047738600A047769774A047892207A047791165A047475847A047465769A048141015
1957A049176985A049877634A049890118A049477263A049183264A049210423A049145008
1950A048474292A047320123A046394540A046241736A046728474A047288511A047475555
1943A047193748A046551651A045772227A045185615A044947758A044833283A044666827
1936A044735162A045306296A046032789A046365118A046297002A046229032A046339711
1929A046508577A046648312A046757896A046762203A046561069A046177124A045714187
1922A045215329A044626235A043858858A042892974A041837073A040813148A039757685
1915A038458451A036802724A034884536A032921156A031204249A029955755A028997902
1908A027777223A025992711A023991879A022274023A020901490A019724689A018852400
1901A018502550A018595853A018853495A019207361A019860628A020971066A022431864
1894A024001443A025551603A027124321A028780487A030431979A031816121A032714984
1887A033248666A033823378A034749545A036070243A037630186A039010750A039619407
1880A039336288A038873350A039016882A039751260A040523310A040987489A041044508
1873A040559230A039578745A038586359A038126269A038267392A038619432A038761284
1866A038585775A038359746A038498386A039193994A040217046A041110068A041572057
1859A041692008A041839409A042256498A042697899A042631025A041902049A041011509
1852A040562150A040628148A040818697A040724080A040101475A038842103A036974217
1845A034571919A031572861A027809785A023243849A017960400A011839705A004418025
1838I95249139I84300778I71800433I57822644I42290315I25295070I07164273H88335237
1830H69439253H51448556H35453144H22255508H12351587H06249947H04419660H06750992
1822H12386046H20268620H29519712H39162049H48004448H55094822H59984252H62440283
1814H62150591H58726775H51911713H41884045H29353548H15216385H00208246G84917571
1806G69865994G55449870G42031972G30178105G20637321G14048943G10768954G10932417
1798G14481291G21030245G29805988G39874978G50495829G61242032G71812070G81823458
1790G90883855G98856082H05932074H12397946H18411466H24012642H29202424H34009137
1782H38572225H43113703H47781119H52591847H57463829H62152927H66235337H69310906
1774H71215660H72014577H71751241H70148152H66690025H61173464H54056953H46199786
1766H38550104H32149938H27969772H26391067H26933291H28560837H30189260H30970801
1758H30316147H27842521H23428732H17335485H10228322H03069540G96936580G92787734
1750G91289045G92777002G97247152H04311317H13260160H23290675H33735798H44194427
1742H54595089H65115190H75843215H86445960H96311041I05038815I12632723I19245047
1734I25013044I30140185I34875935I39353386I43528588I47243845I50361540I52959789
1726I55355513I57818629I60323721I62654910I64654135I66316142I67745255I69079313
1718I70394463I71635364I72674036I73484488I74247410I75215120I76478070I77897692
1710I79223718I80259617I81022176I81768893I82752225I83952169I85170220I86317745
1702I87451981I88607612I89736885I90729270I91412690I91692088I91756042I91958783
1694I92433256I93008040I93524419I94026854I94609670I95258192I95865318I96302996
1686I96508073I96554578I96580861I96634667I96677668I96712201I96775717I96825945
1678I96763963I96573414I96339645I96151725I96063168I96074995I96059736I95813410
1670I95309078I94811534I94627264I94796787I95074725I95189054I95104585I95016319
1662I95083778I95277538I95514373I95772599I96001915I96105147I96092443I96143475
1654I96442585I96975099I97512869I97835268I97934339I97941056I97940545I97988072
1646I98172780I98523725I98941326I99300666I99543342I99658401I99662636I99604157
1638I99555826I99614670I99861945A000278961A000713937A000944348A000806070
1631A000349924I99883481I99741702I99965907A000275749A000373579A000207122
1624I99928016I99699942I99612188I99673733I99787551I99792442I99641172I99500341
1616I99590724I99942691A000363869A000674222A000930477A001335520A001923665
1609A002462749A002706739A002642054A002473479A002468517A002778578A003288970
1602A003686932A003763078A003601879A003423449A003350296A003399138A003566105
1595A003809511A004040505A004202581A004281282A004247042A004127091A004084890
1588A004282159A004711951A005213875A005527659A005416031A004969082A004643763
1581A004733050A004984122A004990692A004717281A004388822A004072993A003621225
1574A002978033A002441796A002503559A003306565A004342316A004918780A004892936
1567A004669680A004543232A004425179A004235580A004139357A004294497A004664059
1560A005131231A005581173A005918831A006174648A006493032A006914647A007258584
1553A007251283A006717091A005740253A004696693A004022910A003914495A004288364
1546A004958423A005715433A006270433A006340374A005943070A005476335A005351639
1539A005633228A006126463A006637221A007031532A007224563A007242523A007228870
1532A007342031A007608507A007841108A007812635A007561563A007335169A007177327
1525A006814847A006028633A004980179A004107526A003738402A003770817A003754682
1518A003414104A003073599A003335768A004285663A005318348A005894958A006130698
1511A006449812A007033649A007824681A008722887A009522315A009867638A009517131
1504A008679594A007965804A007821396A008046330A008081885A007743643A007414162
1497A007512576A007953027A008232718A008036109A007571346A007191345A006932388
1490A006655838A006394034A006341907A006641087A007219890A007797376A008150731
1483A008334270A008522045A008806042A009186774A009476101A009330525A008735882
1476A008194535A008050054A008003256A007678007A007291802A007358601A007940032
1469A008518102A008523651A007766786A006499237A005352734A005003906A005490499
1462A006053018A006031773A005629723A005457499A005682799A006008046A006213780
1455A006343367A006448206A006468866A006408344A006359137A006275834A005969860
1448A005435524A004959518A004836866A005091953A005455966A005583291A005383178
1441A005125025A005105167A005273011A005305061A004983538A004365679A003634075
1434A002975843A002616061A002726962A003190338A003625752A003720953A003434473
1427A002924665A002412739A002075372A001986960A002126406A002373022A002533931
1420A002525827A002511080A002737110A003265097A003883540A004224702A004017654
1413A003368548A002765801A002721632A003417974A004632592A005863711A006558008
1406A006384251A005496339A004591563A004431166A005011718A005448301A005026902
1399A004086427A003407023A003036585A002372293A001095035I99539108I98479480
1392I98603814I99819599A001251781A002085303A002148673A001770642A001368008
1385A001267039A001620028A002231974A002623876A002441650A001778527A001087953
1378A000791617A000910546A001142051A001296023A001386041A001383997A001264484
1371A001142124A001107519A001104087A001065613A001001804A000963841A001023269
1364A001235281A001595571A001997475A002182183A001913808A001331358A000860901
1357A000724159A000800889A000874480A000738614A000299476I99774994I99500049
1350I99507277I99628833I99857492A000244721A000659326A000954058A001185709
1343A001474233A001763414A001864018A001781082A001854162A002343456A002990079
1336A003310069A003160770A002656799A001826930A000858638A000394167A000946027
1329A002107278A002928096A003024174A002696518A002121806A001193594A000119514
1322I99458362I99501071A000022049A000594279A000910400A000980486A001191915
1315A001983239A003337885A004718741A005552771A005689224A005376608A004942800
1308A004538924A004045470A003296125A002525024A002222556A002295417A002068803
1301A001471167A001287262A001859054A002572698A002972996A003313647A003694671
1294A003599469A002671841A001364212A000450088A000239538A000540473A000959022
1287A000911057A000088997I99270661I99634528A000959168A001835472A001825032
1280A001769474A001915853A001457223A000061911I98506642I97745835I98257249
1273I99984597A001945129A002364044A000578071I98522484I98763334A001169575
1266A003223921A003630059A003588737A004476065A006332854A008288127A009009732
1259A007734663A005291408A003120543A001808679A001280984A001618203A002767992
1252A003960051A004292964A003726429A002875969A001980464A000719705I99124208
1245I97942370I97759779I98359313I99229923A000012705A000316268I99834640
1238I98855323I98107001I97959453I98142993I98277399I98296892I98297987
1231I98246882I97924918I97105928I95869480I94738892I94317641I94729328
1224I95603150I96581299I97521338I98199865I98286087I97801317I97266324
1217I97123011I97195142I97017808I96575020I96315115I96415500I96455727
1210I96050756I95432679I95012231I94733052I94368527I94103147I94215504
1203I94508920I94686108I95006609I95917373I97134912I97664213I96897054
1196I95432386I94469496I94384443I94509942I94582292I95364563I97108118
1189I98476706I98127735I96591301I95465605I95315867I95319079I94634200
1182I93440315I92502320I92299434I92926854I94206014I95552775I96378850
1175I96819594I97264134I97356488I96770825I96573414I98128465A001019107
1168A003278017A003337374A001372315I99153481I98328139I98547891I98077360
1161I96462516I95337039I96039513I97651218I98157300I96943706I95488091
1154I95647976I97701519A000210262A001469269A000865865I99231164I98079985
1147I98316896I99544364A000442789I99771708I97463005I94813432I93112368
1140I92442455I92319949I92821872I94299463I96248022I97403724I97353641
1133I97218286I97889729I98755374I99170641I99285116I98745083I96832881
1126I94395102I93512665I94737870I96409513I96781119I95599135I93880548
1119I92833481I92846330I93215965I92938173I91926222I91204036I91633609
1112I92814061I93741470I94194478I94622373I94912281I94487529I93683794
1105I93653350I94660556I95405737I94553965I92344260I90050303I88453421
1098I87531633I87111186I87030951I86839086I85989505I84542067I83319855
1091I83100469I83639845I83988013I83861860I83820900I84150603I84376341
1084I84160021I84023132I84652964I85949643I87113814I87423145I86774404
1077I85680904I84892939I84814602I85157224I85343684I85102469I84416786
1070I83263202I81773273I80373362I79536847I79474134I79962771I80417605
1063I80380955I80050160I80045123I80672472I81800870I83295106I84973319
1056I86203124I86391701I85904011I85598990I85753692I85937524I85773331
1049I85446551I85286593I85225340I84980693I84534839I84079348I83590784
1042I82900356I82264173I82356746I83281453I84035178I83888943I83331025
1035I83081414I83273569I83549024I83561509I83332193I83185522I83348254
1028I83668245I83926982I84135052I84292382I84303257I84218718I84230910
1021I84464752I84859574I85135541I84983248I84430074I83886609I83710516
1014I83812653I83848134I83686278I83524494I83612686I83921214I84128920
1007I83942605I83310729I82365361I81445689I81078903I81406632I81663690
1000I81157970I80213623I79589485I79613870I79975401I80283491I80490685
993I80653491I80647647I80364675I80071478I80322550I81192429I81892202
986I81910452I81499570I80875578I80121999I79637305I79772222I80043076
979I79678043I78736179I77707947I76705414I75699303I75079619I75337699
972I76155305I76591815I76382503I76024550I75957894I76255763I76755716
965I77048693I76746517I76175820I76336290I77616177I78642365I78429768
958I77728462I77318308I77279907I77448699I77619827I77441544I76833979
951I76422219I77081835I78602284I79464423I79073763I78192347I77535431
944I77234642I77117831I77003867I76585901I75568256I74348964I74079568
937I75315140I76791416I77550544I77960040I78031514I77564488I76963056
930I76557647I76079597I75498607I75749240I77442712I78864744I78426629
923I76877638I75290026I74137317I73384176I72512325I71032983I69149035
916I67487613I66283215I65119117I63847188I62922188I62713096I62952048
909I63137559I63076160I62716893I62366240I63345337I66705123I69489832
902I69313155I67809063I66913996I67260780I67921786I68120511I67948288
895I67581062I67230482I67531198I69102749I71054301I71762397I71309388
888I70675613I70451846I70592969I70798484I71074451I71505704I71648944
881I71007284I69834207I68813787I68109560I66948310I64762697I61750279
874I58253751I54369117I49909845I44571348I38011516I29719737I18816057
867I03896842H82911979H53048213H11355111G57410256F96665884F40092334
860E99482220E82414224E89482075F14995932F50557753F88535013G23439186
853G52083660G74191882G92439709H09837004H25368676H36079179H43166853
846H50088873H58607412H67589399H75740202H83284534H90097701H95592798
839I00736292I08447665I18604556I25860142I29618111I32238774I34524260
832I36457634I38100074I39408726I40335478I41077668I41762328I42364490
825I43142527I43994957I43757173I42104512I39789896I37515068I35590894
818I33773090I31718087I29385876I26691985I23202687I18135412I10159608
811H97998454H81781975H61139954H33781647G99241560G60128529G18725046
804F77227604F39249395F07783891E86549929E81564750E90154763F04379900
797F21312724F40253753F60024800F79289835F96466575G10409832G22442786
790G35698535G52398977G71209543G88312473H01371027H09694348H12696326
783H10165463H03423551G95329183G88811842G85731819G86591112G90007332
776G92248942G90085012G83595192G73841156G60958911G45643413G30759971
769G18960859G10388733G03490513F95364241F82892367F66801171F50814081
762F39292469F37258200F47911100F68912390F93155631G15070677G33854595
755G50325211G64502894G76649738G87756451G97551811H03879772H05745468
748H03676740G97882679G88801328G78488495G70067931G66354426G68683862
741G76426629G88598296H04397174H20706882H33547732H42609955H49695584
734H55881546H61377811H66151306H70241309H73892977H77335841H80432878
727H82983453H85178338H87284446H89173212H90538663H91302975H91420151
720H90666499H88813652H85531035H80186114H72458022H63192767H53753171
713H44965382H37340158H31596983H28567408H28773069H32068755H37350525
706H42908773H47698256H51722406H55067152H57522015H59350697H61669401
699H65515487H70626056H75827956H80522311H84867547H88998287H92706317
692H95765824H98242954I00373301I02269441I03866471I05115914I06139984
685I07128062I08095041I08770283I08762617I07832726I05867230I02546284
678H97137481H88643765H76247163H59749023H39526866H15892649G88652976
671G57728056G24491729F92744382F68348775F56897615F60724281F77875542
664G03063203G29430658G51042944G65009855G72073363G75816433G80537073
657G88590849G99336761H10412592H19557312H25209593H26233153H22135192
650H13846991H03702146G93978114G85406718G77302130G68819583G59828688
643G51326430G45786726G46418383G54833398G69299313G85810886H00854140
636H12949807H22120664H28766936H33155392H35400214H35537613H33690607
629H30318337H26301487H22725820H20539477H20321478H22184471H25730426
622H30111654H34264150H37202174H38318816H37642553H35784450H33529699
615H31450969H29753262H28239022H26525984H24602248H23180213H23372954
608H26044137H31402419H38939013H47622548H56283377H64002121H70321178
601H75244776H79047933H82013481H84319190H86093262H87453019H88491618
594H89314335H90070323H90877489H91734227H92561909H93310304H93967076
587H94477103H94744528H94769789H94737228H94865063H95175489H95478833
580H95604260H95577174H95536217H95535341H95518403H95444593H95303761
573H95013994H94455420H93609560H92506788H91051976H89057788H86403689
566H82991192H78552653H72526646H63987376H51801254H35472198H16488314
559G98946684G88222601G87934442G97320670H11411840H23985265H30679430
552H30102528H23273738H12676176H01364532G92210248G87512681G88746427
545G96013698H07631971H20741633H32765169H42461893H49813928H55289824
538H59366758H62473209H64972607H67040021H68664940H69834586H70620069
531H71072129H71182078H70968094H70425213H69385593H67642768H65259890
524H62584180H59949574H57450322H54880035H51762705H47656058H42718224
517H37955242H34702120H33713385H34690220H36668054H38834393H40913343
510H42844745H44367016H45029263H44460757H42532348H39313685H34943700
503H29658937H24067471H19246813H16265204H15523160H16652580H19033049
496H22290697H26297399H30843550H35520967H39992721H44194646H48124179
489H51593987H54375045H56466187H58079643H59417863H60471136H60945025
482H60354544H58118994H53573793H46426765H37846973H30757547H28048255
475H30225618H35264639H40664973H45133371H48512504H51013507H52860221
468H54229469H55224045H55996897H56826623H57859381H58888779H59583516
461H59747855H59242719H57949326H55951633H53559848H51196974H49357853
454H48204122H46499699H40541956H24123832G90748646G38637362F75568299
447F17971555E82916001E79021512F03178605F43962586F88073389G26036924
440G54690012G75720577G92148192H05831690H17295480H26735076H34621374
433H41522222H47722418H53132757H57498069H60702131H62948994H64670649
426H66241397H67759798H69096120H70124278H70858218H71351673H71599824
419H71674949H71844617H72379759H73299648H74437682H75704939H77160043
412H78817012H80501942H82008881H83341334H84652613H85940751H86973874
405H87564209H87782500H87861055H87996046H88264566H88613248H88874175
398H88874540H88556812H87920192H86808513H84821917H81546820H76992857
391H71859656H67349279H64676417H64586618H66971906H70770099H74516311
384H77234438H78757219H79334413H79285425H78984198H78796643H78922434
377H79379824H80082955H80884426H81615592H82145697H82455393H82678137
370H82944832H83143630H83010028H82475835H81720138H80863400H79816406
363H78469497H76928684H75567394H74878134H75160157H76253003H77647147
356H78997266H80462519H82321498H84315832H85732315H86168971H85864677
349H85220755H84387963H83425511H82530517H81945000H81792488H82055022
342H82626594H83410176H84401688H85630982H87025782H88395833H89511381
335H90133328H90014035H88995440H87193917H85043932H82960310H80863911
328H78234416H74765922H70764039H66795593H63272561H60624816H59526498
321H60404554H62708146H65137530H66766756H67600496H68000429H68133667
314H68093732H67962174H67534279H66410408H64496674H62150004H59798595
307H57637659H55684499H53925176H52364868H51137324H50616422H51150104
300H52612289H54551649H56781578H59448307H62613967H66111444H69636737
293H72817509H75467739H77802652H80136469H82485618H84619323H86244168
286H87051115H86837132H85650110H83760686H81550835H79342444H77225020
279H75180237H73302203H71605519H69763769H67381986H64400596H61008176
272H57312631H53162763H47963053H40351773H28103083H08723281G80588470
265G43702301F99469794F50123069E98670929E49392392E08330729D82775258
258D78904350D98560520E37519689E86930296F37168036F81264676G16128038
251G41898077G60350178G73443048G82882718G90296732G97013603H03581027
244H09920597H15981280H21802571H26964392H30516259H31595231H29705004
237H24525663H16506420H08169376H03775664H06350624H15070224H26136491
230H35979452H43239714H48153893H51271587H53267893H54998672H56806984
223H58247560H59039029H59665649H60597366H61666627H62596153H63528454
216H64726646H66124950H67368261H68156372H68402260H68025836H66877653
209H65535929H65725091H67638971H69650973H70801054H70874864H69624837
202H66045592H58128996H44182308H25509215H07281172G95045040G90080997
195G89422692G90272859G92929733G99108979H08756280H19449043H28540395
188H35117676H39859705H43673376H46944531H49786988H52324276H54607281
181H56679879H58654574H60342644H61171055H61013725H60589116H60556263
174H60925532H61593620H62505040H63172398H63154365H63021931H63840048
167H65747577H67870623H69526861H70846537H72316973H74145654H75978568
160H77085649H76924084H75573308H73723743H72359828H72119927H72606957
153H72640029H71482210H69547084H67820175H66778654H65928780H64481196
146H62545851H61352186H61968584H63993290H65768092H65839712H64186101
139H62278792H61750877H62760124H64122731H64925371H65240908H65552283
132H66215406H67191949H67993421H68286982H68430149H68964050H69932926
125H70919033H71385548H71183684H70815874H70449671H69060419H65914252
118H62192789H59560811H58074168H57076088H57002862H58671731H61600118
111H64325472H66019015H66949127H67468862H67392207H66764419H66411722
104H67121862H68781313H70696216H72272804H73024703H72613309H71289179
97H69798521H68560759H67286347H65727135H64395997H64001394H64452139
90H65074014H65568198H66010621H66402815H66916858H68082635H70169762
83H72674269H74669845H75490810H75227765H74744750H74845573H75306467
76H75155561H73928239H72356470H71701304H72488831H74048263H75102704
69H74650206H72455394H69327187H66988186H66648265H67565818H67920341
62H67186327H66853853H68346993H70897201H73026821H74903833H77313869
55H79687037H80737463H80621163H80922098H82367419H83609781H82901901
48H80009729H75347132H68660632H60122600H50942325H41132510H29169278
41H16115321H07525308H08769275H20028573H36419392H51252605H60188015
34H63534221H65085841H67575966H68685528H65776415H60663145H58257124
27H61700502H68357142H72409838H71450525H68782481H68554918H70656935
20H71350505H67241594H59124083H52729904H52001658H54732853H57748410
13H60441495H62607831H62771808H61312762H62860512H70860336H81163167
6H86850565H85534758H78718671H69924750H65938271H72193007
##END=


$$ === CHEMSPECTRA PEAK TABLE EDIT ===
##TITLE=HMS-32
##JCAMP-DX=5.00
##DATA TYPE=INFRAREDPEAKTABLE
##DATA CLASS=PEAKTABLE
##$CSTHRESHOLD=0.93
##MAXX=3997.453
##MAXY=0.8766273270856009
##MINX=373.96442
##MINY=0.390988439937267
##$CSSOLVENTNAME=- - -
##$CSSOLVENTVALUE=0
##$CSSOLVENTX=0
##NPOINTS=40
##PEAKTABLE= (XY..XY)
375.380951892103, 0.7069717651557442
386.71320702892854, 0.7031953940540289
395.2123983815477, 0.6955935962690356
403.71158973416686, 0.7091080554784288
412.2107810867865, 0.7007007014611697
429.2091637920248, 0.6592820891787285
464.62246109460466, 0.7075514204594073
502.86882218139135, 0.7053904545734111
534.0325238076621, 0.6996766933421108
568.0292892181387, 0.7035530811378131
577.9450124628615, 0.7032275807072845
648.7716070680217, 0.6445027003746314
704.0163508600467, 0.6562207942502525
738.0131162705234, 0.390988439937267
800.3405195230648, 0.69446265798755
828.6711573651287, 0.7017370473618844
859.8348589913994, 0.7199155097077762
882.4993692650505, 0.7142704733166179
922.1622622439404, 0.7058682448018228
1002.9045800938229, 0.47272637566770387
1046.8170687490224, 0.6760374914431792
1079.3973022673963, 0.6658117180625112
1102.0618125410474, 0.6806626328534457
1147.39083308835, 0.6429433238077804
1161.556152009382, 0.6432876591127664
1236.6323422908522, 0.6720631133149291
1257.8803206724, 0.669729174375328
1281.9613628381544, 0.6088773019594873
1317.3746601407347, 0.5363062032895743
1378.2855315011725, 0.6764613397994506
1425.0310839405784, 0.6256692415944013
1450.5286579984358, 0.520272136712124
1476.0262320562938, 0.6414893874317096
1505.7734017904609, 0.47480273320759503
1589.3487834245502, 0.4754962631661917
2851.4786992885065, 0.6460264335540069
2869.893613885848, 0.674684525342949
2922.305293893667, 0.5802879937931303
2956.3020593041438, 0.6567465672806412
3389.7608182877298, 0.8130661261503687
##END=


$$ === CHEMSPECTRA PEAK TABLE AUTO ===
##TITLE=HMS-32
##JCAMP-DX=5.00
##DATA TYPE=INFRAREDPEAKTABLE
##DATA CLASS=PEAKTABLE
##$CSTHRESHOLD=0.93
##MAXX=3997.453
##MAXY=0.8766273270856009
##MINX=373.96442
##MINY=0.390988439937267
##NPOINTS=108
##PEAKTABLE= (XY..XY)
3392.593882071931, 0.8102239974786531
2956.3020593041438, 0.6567465672806412
2922.305293893667, 0.5802879937931303
2869.893613885848, 0.674684525342949
2851.4786992885065, 0.6460264335540069
2743.822275488663, 0.8132087005166938
2735.3230841360437, 0.8120363957237645
2728.2404246755277, 0.8123540291039996
2718.3247014308054, 0.8132326012947493
2706.99244629398, 0.8147414339412369
2345.776813807662, 0.8151814335901564
2178.626050539484, 0.8145824682539548
2170.1268591868647, 0.8152165422206848
2134.7135618842844, 0.8145938524537568
2123.381306747459, 0.8147568708639175
2109.2159878264265, 0.8117836124409676
2096.4672007974978, 0.814073980527511
2090.801073229085, 0.8134143957969243
2079.4688180922594, 0.8116084946446146
2063.8869672791243, 0.8118381511181892
2051.1381802501955, 0.8125985869268849
2044.0555207896793, 0.8101359021906839
2031.3067337607504, 0.8136252769949075
2021.391010516028, 0.815057874527732
2015.7248829476152, 0.81261587223083
2008.642223487099, 0.8127391945306366
1998.7265002423767, 0.8148552767556805
1985.977713213448, 0.8101526511048361
1977.4785218608286, 0.8141517652116865
1966.146266724003, 0.8111264116650153
1957.6470753713836, 0.8105719103484365
1950.5644159108676, 0.8092415942665016
1937.8156288819387, 0.811241270109447
1917.984182392494, 0.8026256572443026
1912.3180548240812, 0.8032138343693608
1906.6519272556684, 0.8033789403726722
1895.3196721188428, 0.8040251145420176
1882.5708850899136, 0.7996650345973378
1875.4882256293977, 0.8001312030469069
1864.1559704925721, 0.8046655068049519
1847.1575877873338, 0.8019428861056279
1838.6583964347146, 0.8026101003074675
1831.5757369741982, 0.8026950964544121
1821.6600137294758, 0.8035386212463448
1810.3277585926503, 0.8031237135363751
1804.6616310242375, 0.8029718409305531
1793.329375887412, 0.8009752046297665
1786.246716426896, 0.7997592097860478
1774.91446129007, 0.800152719870328
1763.5822061532444, 0.7997982511253001
1752.249951016419, 0.7960772522685056
1743.7507596637997, 0.7967942960207411
1736.6681002032838, 0.7969722157802124
1726.7523769585614, 0.7978736176022777
1719.669717498045, 0.7971733815466376
1701.2548029007035, 0.7952607878109418
1687.0894839796715, 0.7964193236330117
1663.0084418139168, 0.7859809406872508
1655.9257823534008, 0.7856977595335968
1647.4265910007816, 0.7894106513117888
1638.9273996481625, 0.7896690377043992
1629.01167640344, 0.7922990327855257
1589.3487834245502, 0.4754962631661917
1505.7734017904609, 0.47480273320759503
1476.0262320562938, 0.6414893874317096
1450.5286579984358, 0.520272136712124
1425.0310839405784, 0.6256692415944013
1378.2855315011725, 0.6764613397994506
1317.3746601407347, 0.5363062032895743
1281.9613628381544, 0.6088773019594873
1257.8803206724, 0.669729174375328
1236.6323422908522, 0.6720631116820834
1199.8025130961687, 0.730483890842743
1161.556152009382, 0.6432876591127664
1147.39083308835, 0.6429433238077804
1102.0618125410474, 0.6806626328534457
1079.3973022673963, 0.6658117180625112
1046.8170687490224, 0.6760374914431792
1002.9045800938229, 0.47272637566770387
922.1622622439404, 0.7058682448018228
909.4134752150117, 0.7174696334845932
882.4993692650505, 0.7142704733166179
859.8348589913994, 0.7199155097077762
828.6711573651287, 0.7017370473618844
800.3405195230648, 0.69446265798755
738.0131162705234, 0.390988439937267
704.0163508600467, 0.6562207942502525
668.6030535574664, 0.7066432839654998
648.7716070680217, 0.6445027003746314
620.4409692259574, 0.7025777710071217
611.9417778733382, 0.7045907986288654
592.1103313838935, 0.7120186101795342
577.9450124628615, 0.7032275807072845
568.0292892181387, 0.7035530811378131
534.0325238076621, 0.6996766933421108
521.2837367787329, 0.7073583013562961
502.86882218139135, 0.7053904545734111
484.45390758404983, 0.714161575575195
475.95471623143067, 0.7116768368093573
464.62246109460466, 0.7075514204594073
458.9563335261919, 0.7077192671941255
447.62407838936633, 0.7189592132481397
429.2091637920248, 0.6592820891787285
412.2107810867865, 0.7007007014611697
403.71158973416686, 0.7091080554784288
395.2123983815477, 0.6955935962690356
386.71320702892854, 0.7031953940540289
375.380951892103, 0.7069717651557442
##END=

##END=

