##TITLE=X7962
##JCAMP-DX=5.0
##DATA TYPE=LINK
##BLOCKS=1


$$ === CHEMSPECTRA SPECTRUM ORIG ===
##TITLE=X7962
##JCAMP-DX=5.00
##DATA TYPE=INFRARED SPECTRUM
##DATA CLASS=XYDATA
##ORIGIN=ComPlat
##OWNER=
##XUNITS=1/CM
##YUNITS=TRANSMITTANCE
##XFACTOR=1
##YFACTOR=8.055272e-010
##FIRSTX=3997.453
##LASTX=373.96442
##MAXX=3997.453
##MAXY=0.8649282442040857
##MINX=373.96442
##MINY=0.4968898286956752
##NPOINTS=2559
##XYDATA= (X++(Y..Y))
2559A010738622A010974591A011467839A011456074A010812691A010140894A010019839
2552A010516342A011286182A011888794A012150143A012305309A012544756A012563106
2545A011977661A011006113A010284443A010153325A010474533A010955574A011316594
2538A011342862A011043258A010657672A010467654A010657006A011201828A011816353
2531A012120838A011865782A011034600A009939999A009172971A009188880A009908033
2524A010777247A011223213A011113183A010871812A011022909A011457479A011630920
2517A011390070A010889346A010129425A009258879A008899857A009423739A010286515
2510A010755049A010603804A009972482A009239492A008844139A008865819A009029270
2503A009141227A009365135A009970854A010913249A011892420A012640283A012912657
2496A012416449A011088765A009434912A008289106A007998085A008280374A008984655
2489A010056910A011115403A011696926A011598735A011017582A010559407A010590263
2482A010726709A010530327A010048919A009555005A009073374A008583678A008423702
2475A008831116A009476867A009907071A009793859A008921093A007520006A006637473
2468A007231353A008635178A009518304A009523261A009232463A009107856A009067751
2461A009105710A009421371A010000304A010320109A009898118A009591040A010200608
2454A011372312A012481265A012976884A012497769A011131755A009542426A008454262
2447A008038264A008091910A008576501A009416487A010103379A010155693A009767517
2440A009526665A009682276A010076442A010439684A010502949A010068083A009336422
2433A008849171A008917246A009654084A010861305A011854904A012090207A011499508
2426A010397433A009497659A009347154A009295210A008334686A006831708A006501619
2419A007988614A010134308A011976995A013211817A013856085A014112405A014196167
2412A014255731A014381153A014548603A014631995A014509608A014035744A013107633
2405A012115587A011844619A012344452A012861897A012968597A012884983A012869888
2398A012734108A012265426A011877843A012232129A013295946A014156654A013889459
2391A012517304A011268349A011161131A011631663A011434911A010007704A008170344
2384A007350854A007445346A007522004A007220106A006561110A005868447A005339457
2377A004583161A003031421A000703848I98709620I98328844I99667110A002090580
2370A004812174A006951876A007911215A007767814A007152327A006676690A006714276
2363A007462142A008834076A010428881A011620934A011761301A010677355A009377788
2356A009409384A010653084A011738511A011864968A011176670A010425181A010297393
2349A010658708A010956610A011084991A011254364A011620934A012309823A013395101
2342A014539872A014978659A014565252A013959532A013479973A012890310A011877547
2335A010489112A009153806A008377304A008691858A010097459A011360695A011539613
2328A010968227A011073002A012571912A014370498A015269754A015035635A014231240
2321A013425957A012728854A012254031A012365541A012846876A012742395A011507352
2314A009549011A007999787A007651790A008446862A010157099A012180629A013545902
2307A013794894A013477824A013183403A012566806A011005817A008710801A006495033
2300A004931750A004559557A005832782A007869408A009552119A010708284A011564550
2293A012308417A013047031A013709504A013822568A012944992A011474720A010614681
2286A011062274A012439092A014134085A015570246A016127425A015679388A014698738
2279A013631366A012529735A011428178A010587821A010200978A010225174A010414896
2272A010390848A009966045A009617382A010291251A012020800A013759229A014728928
2265A014927529A014832742A014718716A014374346A013773954A013398875A013428547
2258A013360324A012867742A012394473A012486818A012871960A013137526A013500174
2251A014136453A014838292A015423663A015846317A015829301A015038151A013819087
2244A013139154A013392512A013992090A014264094A014148218A014079699A014498731
2237A015555000A016981841A018158132A018554225A018184549A017504612A016963860
2230A016764371A016792932A016707543A016356364A016084064A016380339A017279817
2223A018153841A018171451A017147585A015905738A015497953A016043885A016718864
2216A016820902A016467578A016265499A016528254A016958532A017101416A016899781
2209A016663368A016556742A016468688A016339864A016283850A016376713A016481933
2202A016335868A015855643A015334203A015181997A015411824A015504909A014838440
2195A013220178A010994791A008507982A005671104A002324033I98566662I94302133
2188I89010556I82526784I75508546I68837047I63164623I59113420I57188155I57357898
2180I59199179I62371475I66559124I71172242I75537034I79257333I82222074I84505029
2172I86331067I87895238I89218261I90330696I91465107I92882769I94561333I96104789
2164I97101496I97670440I98393293I99531921A000688753A001464660A002018435
2157A002780653A003936893A005202644A005937706A005766187A005164833A004975185
2150A005437577A006266020A007302166A008429177A009245856A009443418A009289216
2143A009368243A009965305A010918725A011958941A012900004A013458438A013276192
2136A012366503A011286182A010637691A010577758A010884687A011246595A011430397
2129A011366022A011100530A010691932A010244338A010023909A010260395A010657524
2122A010394473A008951283A006710801A004321368A001774031I98568660I94553936
2115I90225919I86319598I83158327I80361554I77514983I75061915I73719135I72939306
2107I70961653I66644366I60371253I52953889I44704452I35987524I27801430I21261272
2099I16866660I14521253I13986865I15134816I17867954I21865955I26443112I30874943
2091I34966991I39066439I43419096I47755030I51615031I54868869I57742892I60467224
2083I63055407I65338287I67127032I68517686I69989512I71865642I73814884I75313200
2075I76341355I77159735I77776924I78129138I78455676I79101499I80113747I81124808
2067I81633521I81531927I81281011I81390745I81933865I82717172I83616798I84589013
2059I85581872I86531222I87333619I87875186I88218743I88697413I89624415I90867230
2051I91839593I92044780I91605918I91192585I91435657I92412755I93623676I94386191
2043I94335504I93766412I93519122I94239829I95601995I96546018I96451601I95738885
2035I95102529I94557192I93627598I92276087I91213895I91209677I92280897I93634036
2027I94399214I94526854I94777030I95567662I96232651I95949030I94902747I93784911
2019I92693417I91314454I89674734I88081409I86738407I85734671I84976226I84017475
2011I82481274I80746471I79678359I79477097I79391633I78915626I78637407I79331476
2003I80779846I82166578I83210124I84258479I85499442I86623342I87352192I88005860
1995I89212342I91097798I93098907I94587234I95364473I95625748I95697152I95695081
1987I95470359I95119625I95221515I96138826I97472208I98570658I99194802I99434471
1979I99354630I99019287I98655456I98553491I98828230I99374313I99990910A000488153
1971A000823719A001179633A001660819A001994458A001880361A001450897A001004636
1964A000634737A000440427A000637249A001212708A001858163A002272977A002282001
1957A001870594A001251185A000644948A000117441I99879030A000330027A001440908
1950A002527888A002977701A002902596A002907628A003411013A004255883A004856497
1943A004765558A004121065A003488707A003321850A003599403A003914916A003950730
1936A003857718A003974482A004253956A004333134A004123507A003943700A004056098
1929A004358292A004577168A004603806A004576650A004647463A004793084A004948547
1922A005163279A005456297A005676579A005656453A005400135A005093354A005011590
1915A005312230A005818057A006122618A005991130A005554932A005070786A004603880
1908A004109596A003710395A003512312A003179262A002221994A000751574I99411310
1901I98642063I98455004I98605287I98633109I98211710I97609616I97216335I96790940
1893I95981736I95246600I95384599I96439466I97702258I98553047I98862123I98713985
1885I98124841I97152848I96070233I95086771I93956726I92306869I90387228I89017662
1877I88709549I89177416I89795419I90312046I91016921I92244861I93848250I95341461
1869I96405352I96896901I96639695I95745027I94876627I94674769I95132130I95831305
1861I96457299I96921911I97327623I97868375I98582793I99334504A000056247
1854A000753350A001354260A001825013A002236127A002553120A002633996A002498364
1847A002319371A002193802A002086954A001832561A001118809I99732296I97813249
1840I95668147I93471544I91316969I89288852I87243642I84717837I81286857I76939009
1832I72015336I66902237I61924030I57457051I53864984I51225894I49307140I47824511
1824I46521984I45112388I43451209I41685625I39970504I38172658I36052936I33567532
1816I30859404I28105918I25383361I22494021I18985420I14541081I09300566I03623554
1808H97624222H91183216H84443346H78072339H72919726H69499771H67817504H67600108
1800H68652459H70965603H74464215H78774546H83384335H87956090H92409380H96817681
1792I01259501I05646193I09743498I13430499I16812348I20035921I23157383I26123899
1784I28749375I30845345I32475594I33915306I35354205I36809160I38218091I39437078
1776I40271366I40658802I40715408I40575558I40290531I39788182I38846897I37279914
1768I35209101I32937986I30582812I28175396I26070771I24770316I24279510I24021269
1760I23450919I22478704I21289389I19948386I18226680I15808167I12715934I09472011
1752I06807319I05311814I05293390I06726517I09321137I12756853I16810868I21220574
1744I25592766I29591803I33173511I36512960I39697834I42650662I45402150I48178797
1736I51022482I53539556I55273989I56242649I56928212I57756729I58728574I59622798
1728I60394784I61192815I62154076I63405327I65066135I67037940I68983926I70661753
1720I72113823I73502997I74900755I76205279I77187853I77666968I77672292I77455343
1712I77376243I77710847I78457008I79335765I80008674I80328550I80457895I80724128
1704I81299806I82100501I82956396I83685169I84089179I84149855I84130098I84279419
1696I84576211I84862201I85066867I85246084I85507951I85964720I86738333I87888431
1688I89178896I90076669I90229249I89831602I89359517I89121772I89149224I89296548
1680I89399474I89435435I89500699I89630929I89779954I89958725I90216744I90464182
1672I90492078I90301616I90278752I90791460I91669554I92355409I92544983I92390039
1664I92138232I91932900I91913144I92144081I92421191I92431772I92167759I91987952
1656I92208456I92760604I93278640I93434768I93188662I92814842I92684019I92947958
1648I93422334I93783872I93824424I93528445I93002492I92399880I91875703I91564999
1640I91552790I91802966I92151776I92477574I92843848I93287815I93546056I93311863
1632I92745361I92356443I92330251I92348972I92126988I91744732I91377494I91069088
1624I90877294I90912737I91121032I91308534I91418786I91534810I91675991I91863493
1616I92202685I92630151I92832674I92674252I92464548I92618608I93252298I94124990
1608I94819799I95079446I95075450I95203757I95619754I96158139I96610098I96864047
1600I96854650I96575098I96131723I95723199I95570770I95813028I96371613I96967121
1592I97401912I97777880I98221108I98503323I98333505I97948438I97851209I98012221
1584I97997866I97858682I98100200I98748097I99263617I99499956I99962422A000914806
1576A001902853A002398915A002377309A002024355A001374904A000553713I99994684
1569A000037822A000529664A001135606A001782023A002451673A002861899A002773846
1562A002420966A002286222A002582940A003091431A003430326A003510906A003679244
1555A004167164A004640137A004740252A004686603A004759416A004753349A004608171
1548A004910217A006000083A007127095A007219363A006193431A004921757A004123433
1541A003798893A003679466A003704846A003877105A003982914A003755014A003247633
1534A002924499A003280931A004270830A005215889A005494183A005174008A004754829
1527A004539282A004553045A004825863A005468506A006472465A007493516A007988984
1520A007794304A007369427A007122507A006841254A006296876A005977885A006550529
1513A007860085A009042001A009486338A009355220A009292990A009786235A010683274
1506A011363876A011449414A011056577A010278968A009029865A007675839A007124061
1499A007783871A008941738A009593556A009477015A008982805A008527442A008387666
1492A008800408A009838774A011237938A012438648A012834075A012210001A011066862
1485A010234941A010043961A010127797A010085028A009995791A010176411A010617049
1478A010823642A010363544A009546570A009191248A009575797A010092058A010114105
1471A009689379A009189099A008855386A008875291A009328508A009849059A009822122
1464A009156174A008489631A008441017A008939666A009425884A009456148A008989242
1457A008307160A007803997A007732296A008041816A008460477A008721086A008740843
1450A008712503A008997826A009706768A010398839A010545792A010272678A010147406
1443A010280818A010230427A009800149A009321774A009167643A009412565A009873626
1436A010252552A010442866A010645611A010911474A010888979A010413046A009905739
1429A009794303A009961013A010101085A010245226A010633772A011260654A011620046
1422A010837997A008266685A004108409I99228692I94252849I89138865I83672812
1415I77952883I72218229I66550984I60870051I55059627I49210355I43631164
1408I38296229I32835577I27756072I24593765I23936397I24647559I25907613
1401I28403302I32778675I38661614I45430564I52183235I57234623I58926509
1394I56730720I51835387I46964028I44432155I44225785I44924071I45628571
1387I46533081I48061515I49848780I51055336I51544588I52004760I52869091
1380I53902795I54933762I56278021I58351127I61272137I64906455I68941897
1373I72781254I75750212I77640256I78855987I79998759I81490786I83544875
1366I86203648I89277827I92332471I94893053I96824386I98517974A000524189
1359A002951729A005328583A007078924A008088728A008784943A009641505A010688084
1352A011646832A012387517A012961345A013360916A013596071A013761671A013758563
1345A013368759A012809212A012597218A012699109A012495179A011728374A010901928
1338A010668179A011236458A012344231A013490111A014167457A014075704A013334648
1331A012454926A011828636A011388221A011091798A011272937A012007629A012909401
1324A014004373A015660963A017260282A017439719A016212445A015274860A015570616
1317A016030640A015508313A014699774A015054948A016681867A018423551A019402425
1310A019616270A019529326A019696258A020423328A021544864A022559182A022756451
1303A021530731A019218697A017166528A016387812A016792489A017857196A019193835
1296A020514268A021715422A022742466A023224168A022862930A021968039A020945061
1289A019727039A018156949A016511309A015372607A015076776A015280557A015286921
1282A014777690A013916689A013158837A013439939A015578016A018739727A020923754
1275A021691965A022557702A023874436A023515710A020231682A016412600A015385186
1268A017281445A019279372A019005444A016500654A014081549A015068489A020445231
1261A026055204A026786418A023516080A021045179A021752937A024193056A025717418
1254A025221507A023666437A022446858A021953018A021757744A021115918A019248147
1247A016411046A014556816A015600806A019139227A022937368A025360765A026301162
1240A026282145A025719043A024745278A023285661A021621227A020721009A021178295
1233A022103745A022230496A021778391A021883981A022605577A022928341A022463359
1226A021833295A021515636A021316517A020951872A020531287A020407050A020769993
1219A021435796A022003261A022206228A022067932A021765294A021496546A021391769
1212A021339677A021045549A020563400A020480748A021055242A021523554A021058424
1205A020134084A019986242A020910062A022078735A022942770A023693368A024371013
1198A024656854A024681938A025108369A026140963A027073073A027064860A025954497
1191A024163828A022416446A021748719A022876249A024730997A024555556A020935815
1184A016372569A015426327A019898707A026968741A032572421A035259241A036011988
1177A035399091A032644717A027889600A023528437A021861931A022615640A024077403
1170A025398132A026578049A027681013A029263310A032189872A035921345A038117060
1163A037101632A033819899A030491916A028546305A028565470A030312556A032000298
1156A031747755A030361466A030239372A031294612A030848498A027859487A024627108
1149A023953314A025998154A028231606A028226871A026013619A023508310A022446414
1142A023212258A024881280A025736731A024422439A021440458A019031490A019171414
1135A022225392A027379633A033185025A037504903A038484073A036229162A032695551
1128A029842542A028495545A028652857A029661255A030160793A029308301A028124166
1121A028429468A030343189A031998670A031749974A029631880A027096677A026095531
1114A027732587A031137003A034103446A035218692A034901773A034347480A034234934
1107A034599950A035249548A035812425A035779497A035044879A034131120A033567503
1100A033483815A033844391A034357469A034313295A033407897A032501167A032586705
1093A033315995A033695884A033590220A033521405A033539459A033341080A033156167
1086A033650525A034909913A036071998A036409635A036227904A036189057A036349107
1079A036331941A036001851A035485295A034888602A034356803A034102336A034150432
1072A034237892A034078362A033871991A034378484A035889083A037392135A037510600
1065A036275705A034951942A034257281A033914168A033614194A033378817A033215363
1058A033049763A032735064A032049430A031180808A030852716A031489439A032754744
1051A033880500A034375228A034491399A034889342A035906324A037298088A038520552
1044A039121536A039051611A038726331A038636798A038905324A039376521A039995338
1037A040789670A041613523A042189203A042307225A041965888A041335824A040606977
1030A039998298A039922675A040759850A042266750A043727773A044626215A045006621
1023A045227199A045535904A046083908A046886897A047624549A047958857A047973211
1016A047906983A047747084A047472268A047332862A047466275A047627139A047568461
1009A047487363A047821597A048589956A049335008A049710752A049676937A049366381
1002A049117168A049274480A049735540A050142067A050216801A049844904A049230231
995A048806686A048768801A048932625A049107844A049245326A049243328A048990563
988A048591954A048289982A048212362A048354580A048507970A048318692A047582816
981A046348513A044837395A043190424A041295867A039039402A036484147A033572387
974A029974474A025664142A021636692A019113550A018139856A018025164A018283035
967A018876990A019960048A021447265A023003149A024572204A026552668A029138780
960A031568170A033411227A035291873A037521921A039673758A041402493A042916866
953A044389802A045545893A046227233A047011800A048839244A051503641A053997480
946A056074952A057951824A059639640A060920561A061855704A062997736A064568197
939A066134290A067510296A068886965A070120528A071145202A072303143A073379768
932A073741823A073122192A071579624A069410032A066628058A062173141A054978500
925A046531057A037843354A027204635A013069155I93940743I69137166I43416506
918I24696026I15831327I16891519I26960852I39929733I49253050I52008386
911I46815151I35862917I25811642I21334748I22531314I28568680I42531827
904I68534705I93337243A005908404A012956092A021003298A031046804A039339154
897A044017165A045844088A045444743A042756224A036571979A024894155A009344934
890I94932197I82278014I69265476I54803679I39510554I24214691I08351660
883H92042293H78607615H70713948H67151997H65697412H64844254H63244047
876H59884767H54515795H47576583H40182820H33402256H27167917H20582548
869H13244284H05693803G98663874G92587809G88037069G85904693G86749341
862G90324463G96245657H04860476H16826509H31973421H49070904H66506986
855H82617086H95424141I03006735I04475972H99676091H89085100H76618197
848H67310123H61316859H56567369H51461299H44926024H36690279H27659833
841H19616105H13581104H08775307H04497311H03775567H09221124H18775304
834H31047379H44667857H58263398H71105749H82251404H91196387H98813463
827I06011951I12859483I20541526I30817967I40481363I46371183I49782333
820I53100102I57346947I60502002I59622869I52312282I36440963I13075695
813H86438388H59078816H34282200H18926105H15744116H21987779H33645994
806H46596525H58475393H68610134H76846100H84806363H96965519I12597764
799I23826368I30037176I34258345I38432675I43703161I50201066I55992180
792I58680107I57539555I52069580I40607228I21819265H97182696H69556377
785H41095620H13992295G91834471G78698802G75735100G80323504G88834138
778G99297194H11821960H25209725H35757134H42205391H46097506H49185300
771H52461188H55683503H57888172H58426630H56790684H52692273H48089292
764H45752096H45666635H47227773H50446315H55366215H61453748H67518492
757H72798819H77759265H83086877H88569727H93750902H99123278I05347628
750I11365533I15946537I19625325I23486066I27788555I31813267I34988376
743I37478737I39589506I41251570I42420539I43661798I45662167I48063291
736I50004169I50990369I50591464I48241766I43644261I37423093I31370855
729I27760955I27349397I28427350I29232041I29930550I31894588I35901913
722I41475776I47333853I52084897I55131549I56737084I57510549I57937572
715I58003797I57485243I56484244I55381577I54526718I54036282I53825989
708I53853660I54237843I54989406I55845967I56532119I56908825I57001688
701I57113198I57786623I59469777I61998912I64665381I66938938I68664566
694I69727720I69935126I69293889I68007346I65988626I63122076I60508587
687I60441252I64211868I70771561I78219263I85629080I92869376I99593559
680A005424480A010442274A014662629A017319552A017094754A013356180A007346634
673A001981068I99759159I99951545I97704329I87076636I66814405I43518692
666I27197708I23791146I32617663I48513326I65147973I77473620I82778069
659I80916218I73595934I62771042I49446324I33626357I15096413H94536872
652H74160612H57133649H46238910H42966869H47315753H57923094H72536656
645H88873771I05298717I20700689I33914492I43537191I48383244I48175612
638I43946529I37682222I31186386I24931773I17886009I08530726H96265533
631H82180000H68631444H57542765H48516537H38977674H26851294H12854628
624G99810790G90517589G86341853G86210291G86315881G82416811G73694552
617G63782164G57539612G57379784G62589964G70965188G80401420G89449773
610G97132926H02647520H05398195H05318872H03119162H00244546G98557914
603G99806794H04948160H13587026H24062587H34424047H43567631H51535515
596H58934156H66276049H73754015H81322328H88826929H96096826I02972254
589I09293685I14913795I19724922I23564279I26001660I26383398I24358611
582I20295494I14844462I07997448H98662884H85056391H65620013H40330147
575H11801241G84943948G64895857G54722786G54484299G61895969G73831886
568G87594578H01302595H13803017H24697756H34225224H42746069H50396961
561H57279862H63670848H69876992H76060426H82216183H88049841H92756710
554H95083322H93799513H88259986H78640099H65609875H49725164H31418166
547H11975203G94275848G81800584G76492358G77583485G82300713G87454805
540G90842499G92146284G92907466G95169776G99744047H05824548H12187419
533H18350797H24499155H30759836H36932242H42757095H48127103H52980037
526H57155330H60519715H63224661H65636736H67865453H69529961H70247412
519H70309124H70589193H71748244H73762450H76266575H79064976H82167051
512H85519967H88862746H91814464H93984281H94861190H93668620H89745279
505H83295541H75553859H68188069H62764932H60461185H61589899H65319151
498H70256806H75346304H80028681H83877879H86589928H88228464H88989129
491H88696480H86937555H83708950H79486079H74531846H68584680H61550903
484H54414348H49297179H48449498H52836562H61417343H71761563H81401725
477H88611534H92171484H91079845H85103226H75579091H65288147H57361108
470H54126140H56371801H63071714H71848060H80076408H85646054H86804661
463H82011588H70926904H55910741H41945744H34088627H34446468H41423416
456H51524490H61670627H70197762H76557004H80820127H83596626H85959569
449H88875029H92482191H96080029H98913799I00867700I02403088I04085058
442I06259685I08894854I11554811I13752598I15458469I17046688I18715266
435I20271594I21538159I22634019I23747116I24880864I25933286I26880420
428I27802688I28776013I29757033I30608562I31203257I31332599I30529758
421I28308145I24739458I20574898I16716747I13736467I11765177I10458655
414I09066003I06865626I03621630H99552150H95050690H90650677H87079329
407H84953760H84301794H84600880H85450116H87002892H89447007H92050432
400H92884573H89785532H82167790H72340423H64780397H63448124H69262618
393H79727079H90587337H98021499I00217584H97853309H93468982H90101637
386H89758080H92510309H96876358I01156723I04475380I06742869I07990196
379I07984794I06383626I03142959H98967889H95300937H93181365H91937440
372H89897042H86879987H85104413H86901446H92037853H97830741I01541717
365I02149952I00117321H96517559H92871772H90844321H91095458H92797259
358H94705577H96115395H96705209H96583118H96830482H99002223I03662919
351I09859669I16077581I21374113I25684001I29328826I32377255I34621806
344I36044574I36781042I36454874I33918784I27775458I17123199I02260796
337H85038336H68018621H52842183H39799531H29187747H22366335H20845894
330H24573149H31546176H38916036H44071090H45335063H43183303H40915740
323H42262660H47391597H52393482H53173903H48673109H39889213H27109609
316H08989666G83855117G51600511G14879148F79043130F50682489F35135633
309F34250883F45811796F64774238F85518026G04135876G19413018G31952432
302G42691342G52075556G60012067G66491550G72212885G78097969G84443818
295G91382734G99726732H10120010H21425642H30747109H35036500H32555462
288H23515841H10436855G98152498G92149761G95172514H05286019H17920963
281H29474846H38679919H45751581H51420010H56383936H60946960H65049885
274H68568031H71504133H74086621H76648461H79194984H81252774H82408640
267H82867113H83208746H83598772H83491405H82290695H79855978H75708212
260H68315488H56640993H42598746H30756432H25072983H26293153H32303511
253H40141682H47493932H53164580H56993947H59561041H61764452H64246008
246H66909443H69180854H70915509H72600810H74523633H76379343H77857532
239H78896268H79132089H77825049H74627595H69786719H63421707H55511466
232H47157478H41093919H39905122H43731751H50276942H56950365H62513055
225H66867488H70183185H72633589H74491075H76046811H77464177H78749463
218H79831634H80713279H81526036H82418114H83424070H84099937H83029901
211H78487670H70832117H65686830H69826087H78482784H83515158H84205749
204H83583526H83777025H84409530H84218106H82714536H80042888H76506835
197H72762192H70028610H69292364H69787388H69092949H65860052H61872336
190H60269317H62100162H65560300H68234538H69126690H68650387H67602846
183H66337983H64175047H59021473H48207091H31169174H11806421G96864696
176G91074768G94357834H03435636H14742452H25691651H34887993H42116154
169H47583021H51141047H52807112H53644509H55213490H58035791H60972192
162H62330362H61608693H59935454H58685685H58125324H57545059H56052218
155H53124623H49051591H44787284H41085039H38423824H37897205H40992546
148H47894686H56857945H65852652H74015953H80494181H82706397H77387741
141H63617643H44463854H26047417H14301444H11418393H15325899H22070727
134H28452463H33360745H37120040H39956252H42054886H44676144H49425042
127H56081150H62298986H65906890H66931197H66384303H63172939H54143972
120H38357821H19694835H03657546G92355096G83754855G75196938G66197495
113G58028716G51766037G46927532G41199981G30970749G13185560F88339957
106F60951382F36874509F21184773F16850466F23463066F37478305F54387693
99F70783930F84993404F96744924G06367404G14185597G20733081G26729602
92G32026356G35571288G37591044G40246413G44839257G49961975G53472870
85G55543460G58328098G63072038G68977620G74383737G77939473G79663694
78G81502090G85503642G91334637G96472673G98483993G96614076G91069811
71G82009545G70872177G60867296G53563732G47139896G39155881G29472359
64G19730602G11282272G04695940G00776445G01089741G06443470G15696344
57G26808924G36943292G42908072G44133200G43853871G45902929G50522114
50G54382263G55103192G53898857G52965930G52892086G53075667G52493626
43G50138082G46001563G41757234G39733779G40859902G44292955G48789679
36G53570617G57894342G60629773G61297574G61862150G64049507G65957309
29G64977251G60814535G55566176G50861675G46459072G42462107G40287554
22G40647538G42785981G45924091G49761672G54218735G59657189G65009364
15G67548118G67087132G66349184G65937996G62994344G56796632G52162352
8G54061127G61467022G70830000G79845203G85255613G82008879G68499689
1G53540723
##END=


$$ === CHEMSPECTRA PEAK TABLE EDIT ===
##TITLE=X7962
##JCAMP-DX=5.00
##DATA TYPE=INFRAREDPEAKTABLE
##DATA CLASS=PEAKTABLE
##$CSTHRESHOLD=0.93
##MAXX=3997.453
##MAXY=0.8649282442040857
##MINX=373.96442
##MINY=0.4968898286956752
##$CSSOLVENTNAME=- - -
##$CSSOLVENTVALUE=0
##$CSSOLVENTX=0
##NPOINTS=49
##PEAKTABLE= (XY..XY)
385.29667513682534, 0.6058872333519745
405.12812162627006, 0.5963217605684689
429.2091637920248, 0.5958756797432888
458.9563335261919, 0.5644944899833856
518.4506729945265, 0.4968898286956752
566.6127573260355, 0.6536195861417896
585.0276719233775, 0.6749489894314761
621.8575011180606, 0.6372322428576896
667.186521665391, 0.7006685723480665
698.3502232916339, 0.6765664211903184
735.180052486317, 0.6646187297916376
776.2594773573101, 0.6380981789589992
810.2562427677872, 0.5109063378805176
831.5042211493351, 0.677380501478128
841.4199443940574, 0.6612136946253169
883.9159011571796, 0.7175993315310313
896.6646881861084, 0.7129756795115336
919.3291984597595, 0.716724334859776
933.4945173807914, 0.6966041318102985
949.0763681939266, 0.712854324422272
1022.7360265832681, 0.671881078675736
1039.734409288531, 0.6906276927161377
1055.316260101666, 0.6834491484653457
1080.8138341595236, 0.6940340988897529
1143.1412374120405, 0.6254857173777192
1181.3875984988272, 0.6077576272340144
1228.1331509382326, 0.6432601205022609
1243.7150017513682, 0.6100900167421248
1252.2141931039873, 0.6333137743204152
1291.8770860828772, 0.6790327416783368
1314.5415963565506, 0.7441388952221712
1403.7831055590518, 0.7470051631870984
1453.3617217826427, 0.681207476624972
1478.8592958405002, 0.62487572304472
1518.52218881939, 0.6571040736779552
1558.1850817982795, 0.6474630819139224
1596.4314428850662, 0.6330676068191496
1658.7588461376267, 0.7421601998191456
1671.5076331665555, 0.7377270445105945
1746.5838234480248, 0.8201393474120833
2338.69415434716, 0.7617295366486856
2361.358664620811, 0.7442558988534984
2852.8952311806192, 0.7292532906583409
2922.3052938936758, 0.6997231830713848
3029.9617176935185, 0.7968093142137153
3211.2777998827273, 0.7888781417341473
3345.8483296325307, 0.738561033403152
3462.0039447849927, 0.7711778269738256
3736.8111318530123, 0.8060941687086657
##END=


$$ === CHEMSPECTRA PEAK TABLE AUTO ===
##TITLE=X7962
##JCAMP-DX=5.00
##DATA TYPE=INFRAREDPEAKTABLE
##DATA CLASS=PEAKTABLE
##$CSTHRESHOLD=0.93
##MAXX=3997.453
##MAXY=0.8649282442040857
##MINX=373.96442
##MINY=0.4968898286956752
##NPOINTS=80
##PEAKTABLE= (XY..XY)
3733.9780680688036, 0.8041810383865569
3463.4204766770913, 0.7710410943703161
3343.015265848319, 0.736241280200228
3297.6862453010162, 0.7904485452039992
3273.605203135262, 0.798432587655812
3263.6894798905396, 0.8003066764911184
3248.107629077404, 0.7984463557267144
3212.694331774824, 0.7883190502759705
3185.780225824863, 0.8015959251913001
3171.614906903831, 0.8043619976554552
3063.9584831039874, 0.8042826636981089
3052.626227967162, 0.80169820700752
3031.3782495856135, 0.7964324346192329
3012.963334988272, 0.8012375815832169
2923.7218257857703, 0.6988754857169377
2851.4786992885065, 0.729238449625208
2797.6504873885847, 0.7873031483703097
2777.8190408991395, 0.7927435622776656
2756.5710625175916, 0.7967644914581985
2738.15614792025, 0.7976964703180545
2726.8238927834245, 0.7990130175295168
2719.7412333229086, 0.7990732774082945
2709.825510078186, 0.7996339783098169
2695.660191157154, 0.798722742580888
2681.494872236122, 0.7993490085633272
2672.9956808835027, 0.7981786121793969
2655.997298178264, 0.7994571892552328
2647.4981068256448, 0.80156034102724
2633.332787904613, 0.8019593347599441
2619.167468983581, 0.8037962904023849
2614.9178733072713, 0.8038023101071504
2361.3586646207973, 0.7442558988534984
2341.527218131352, 0.760599552758852
1671.5076331665364, 0.7377270445105945
1658.7588461376072, 0.7421601998191456
1596.4314428850662, 0.6330676068191496
1558.1850817982795, 0.6474630819139224
1518.52218881939, 0.6571040736779552
1478.8592958405002, 0.62487572304472
1453.3617217826427, 0.681207476624972
1403.7831055590304, 0.7470051631870984
1376.8689996090693, 0.7683327782064009
1345.705297982799, 0.7736615524880545
1314.5415963565283, 0.7441388952221712
1291.8770860828772, 0.6790327416783368
1252.2141931039873, 0.6333137743204152
1243.7150017513682, 0.6100900167421248
1228.1331509382326, 0.6432601205022609
1181.3875984988272, 0.60775762562296
1143.1412374120405, 0.6254857157666648
1082.2303660516027, 0.6931248890617321
1055.3162601016415, 0.6834491484653457
1038.3178773964032, 0.688021838001008
1022.7360265832681, 0.6718810770646816
947.6598363017979, 0.7123291480757968
932.0779854886628, 0.6955309496709728
919.329198459734, 0.716724334859776
896.6646881860825, 0.7129756795115336
883.9159011571537, 0.7175993315310313
875.4167098045345, 0.7222220886098096
841.4199443940574, 0.6612136946253169
831.5042211493351, 0.677380501478128
810.2562427677872, 0.5109063378805176
776.2594773573101, 0.6380981789589992
735.180052486317, 0.6646187297916376
698.3502232916339, 0.6765664211903184
668.6030535574664, 0.697334288246776
661.5203940969504, 0.7117505644704344
648.7716070680217, 0.7002386439543008
641.6889476075057, 0.6929703341689224
621.8575011180606, 0.6372322428576896
585.0276719233775, 0.6749489894314761
566.6127573260355, 0.6536195861417896
518.4506729945265, 0.4968898286956752
458.9563335261919, 0.5644944883723312
447.62407838936633, 0.5991945259157913
437.708355144644, 0.6064750539377393
429.2091637920248, 0.5958756797432888
405.12812162627006, 0.5963217605684689
385.29667513682534, 0.6058872333519745
##END=

##END=

