##TITLE=RB303
##JCAMP-DX=4.24
##DATA TYPE=INFRARED SPECTRUM
##DATE=12/2/2018
##SAMPLING PROCEDURE=Diamant ATR
##ORIGIN=Lara
##XUNITS=1/CM
##YUNITS=TRANSMITTANCE
##RESOLUTION=4
##FIRSTX=3997.453
##LASTX=373.96442
##DELTAX=-1.4165319
##MAXY=0.95560354
##MINY=0.45435157
##XFACTOR=1
##YFACTOR=8.8997515e-010
##NPOINTS=2559
##FIRSTY=0.92892683
##XYDATA=(X++(Y..Y))
3997+1043767150+1044139990+1044317068+1044132489+1043785500+1043462019
3989+1043175842+1042984097+1042958647+1042947061+1042741251+1042523722
3980+1042751900+1043495974+1044246411+1044518457+1044407616+1044399512
3972+1044726610+1045102532+1045153499+1044935969+1044802826+1044855936
3963+1044885873+1044829214+1044890829+1045152695+1045414427+1045455816
3955+1045211364+1044723262+1044131351+1043673253+1043547879+1043784831
3946+1044294699+1044961419+1045593179+1045856920+1045482673+1044605991
3938+1043744714+1043346490+1043377432+1043486799+1043591144+1043984880
3929+1044695200+1045244984+1045266215+1044966576+1044862700+1045113649
3921+1045397349+1045474703+1045512476+1045730541+1045964010+1045897305
3912+1045507654+1045030736+1044689306+1044574849+1044698615+1045021293
3904+1045388441+1045618830+1045765903+1045967359+1046033194+1045666716
3895+1045037836+1044733308+1045185646+1046090523+1046630463+1046525984
3887+1046065542+1045344172+1044217546+1042945185+1042208009+1042353409
3878+1042911498+1043354594+1043827091+1044626485+1045636444+1046561346
3870+1047266241+1047606265+1047421820+1046783296+1045995689+1045378328
3861+1044948627+1044448939+1043640436+1042430562+1041034569+1040351708
3853+1041405869+1043154879+1044072213+1044414715+1044852319+1045440747
3844+1045638654+1044950703+1043646129+1042654923+1042727924+1043758711
3836+1044931415+1045645217+1045896434+1045956911+1046042771+1046171695
3827+1046256148+1046214491+1046059247+1045994282+1046201900+1046337454
3819+1045971511+1045619901+1046032055+1046796824+1046786778+1045927577
3810+1045058329+1044901612+1045595054+1046517278+1046830177+1046467784
3802+1046090389+1046270749+1046816180+1047325244+1047696478+1047772292
3793+1047387932+1046808612+1046546009+1046749273+1047073558+1047150243
3785+1046897753+1046424921+1045929787+1045649236+1045679575+1045782981
3776+1045594786+1045046207+1044473652+1044406946+1045100925+1046084563
3768+1046561413+1046394716+1046111620+1046158166+1046568713+1047174621
3759+1047727085+1047908315+1047629304+1047136513+1046669776+1046322988
3751+1046229091+1046492631+1046955217+1047516721+1048198042+1048713000
3742+1048755595+1048690966+1048947139+1049526392+1050293907+1051193493
3734+1051881912+1051792168+1050970940+1049953280+1049065816+1048317254
3725+1047611288+1046991918+1046825489+1047517257+1048879295+1050096536
3717+1050529586+1050244212+1049725972+1049309063+1048949684+1048566127
3708+1048278678+1047987678+1047412377+1046639571+1046160577+1046197212
3700+1046320309+1046167275+1045942311+1046000310+1046508571+1047510895
3691+1048981161+1050541507+1051349273+1051112187+1050571310+1050334626
3683+1050382780+1050420151+1050143886+1049391641+1048366547+1047681744
3674+1047633389+1047796067+1048175405+1049309599+1050863582+1051556489
3666+1051046419+1050016436+1049159846+1048738249+1048611535+1048554072
3657+1048493595+1048481406+1048606713+1049040031+1049996813+1051415711
3649+1052468800+1052217985+1051079973+1050038537+1049561553+1049621494
3640+1049860254+1049829781+1049357753+1048627341+1047907310+1047364290
3632+1047213868+1047872216+1049452587+1050871150+1051071334+1050493152
3623+1049886641+1049584123+1049719208+1050248833+1050683625+1050512441
3615+1049903318+1049495852+1049748944+1050546731+1051372848+1051666861
3606+1051178759+1050256067+1049590083+1049652101+1050293907+1050838601
3598+1050768882+1050203292+1049642323+1049408786+1049406777+1049438054
3589+1049479577+1049455333+1049051751+1048226371+1047457785+1047157476
3581+1047397040+1048078561+1049004803+1049735817+1049711506+1048823908
3572+1047721392+1047240523+1047654419+1048559497+1049278724+1049421243
3564+1049014045+1048246128+1047439702+1046950060+1046732999+1046369668
3555+1045772935+1045433648+1045750098+1046474683+1047135643+1047612761
3547+1047990022+1048281557+1048509066+1048745683+1049000718+1049236799
3538+1049441804+1049602072+1049691615+1049704742+1049671389+1049685453
3530+1049872644+1050226866+1050557849+1050732113+1050823465+1050898207
3521+1050797546+1050287946+1049409188+1048578316+1048301783+1048754255
3513+1049631942+1050381307+1050641030+1050557380+1050515388+1050570172
3504+1050440578+1049960245+1049241286+1048526479+1048181566+1048596533
3496+1049748140+1051040861+1051833825+1051926785+1051473576+1050760912
3488+1050101291+1049651096+1049315693+1049061128+1049207063+1050046440
3479+1051219412+1051888074+1051548586+1050443257+1049253743+1048541146
3471+1048434926+1048699270+1049008152+1049188310+1049304241+1049530812
3462+1049850610+1049938881+1049553248+1048914188+1048503440+1048632163
3454+1049247180+1049913029+1050076243+1049642590+1049147121+1049125422
3445+1049546283+1050041484+1050392893+1050651544+1050948437+1051201463
3437+1051139646+1050769351+1050510699+1050630649+1050915888+1051102811
3428+1051230060+1051426159+1051697736+1051979426+1052166415+1052151346
3420+1051976680+1051819024+1051767589+1051786609+1051861419+1051956789
3411+1051912117+1051667598+1051544902+1051947479+1052754642+1053367181
3403+1053474405+1053402007+1053513116+1053658582+1053522425+1053167801
3394+1052874324+1052740846+1052823223+1053315344+1054197048+1054971260
3386+1055105676+1054609001+1053998003+1053820189+1054236629+1054901876
3377+1055263666+1055089067+1054636059+1054291481+1054177291+1054157065
3369+1054119962+1054158672+1054428575+1054878034+1055262796+1055456081
3360+1055556675+1055619295+1055472422+1054969921+1054338429+1054068191
3352+1054399576+1055046204+1055527140+1055682250+1055739780+1055886653
3343+1055971307+1055767909+1055388572+1055122018+1054888280+1054288065
3335+1053322711+1052594576+1052549838+1052914977+1053099288+1052831796
3326+1052248391+1051613751+1051093703+1050673847+1050218695+1049655516
3318+1049113166+1048838575+1048871727+1048840919+1048306605+1047332277
3309+1046421037+1045870114+1045512342+1045068576+1044397637+1043456996
3301+1042342693+1041337489+1040712829+1040485521+1040431942+1040300741
3292+1040062785+1039992731+1040365706+1041000814+1041345928+1041123643
3284+1040649271+1040362491+1040306099+1040218900+1039839831+1038908767
3275+1037204763+1034870004+1032439607+1030289092+1028271652+1026003599
3267+1023239808+1019960993+1016359968+1012659421+1008666267+1003642192
3258+996847809+988025071+977199226+964226683+948625702+929747380+907217199
3248+881360786+853231162+824422964+796974125+773063691+754358293+741478441
3238+734044061+731318512+732936121+738932046+749105236+762655625+778531531
3228+795804636+813471812+830215760+844888489+857229540+867738133+876834524
3218+884496413+890760969+896146366+901249268+906181724+910755403+915009820
3208+919150717+923182917+927041722+930882645+934857315+938805663+942472724
3199+945864055+949221765+952787964+956633508+960589291+964292316+967376776
3189+969731024+971644587+973608247+975843349+978108724+980046867+981559394
3179+982801683+983985772+985188145+986278070+987119858+987784301+988380231
3169+988830426+989088340+989397757+990040769+990980874+992008246+993110895
3159+994443733+995969654+997392504+998520804+999492320+1000511521+1001576197
3149+1002582539+1003510120+1004399527+1005323558+1006417100+1007763533
3140+1009227437+1010519420+1011458722+1012133747+1012809173+1013690945
3132+1014763724+1015875348+1016912431+1017780339+1018315189+1018475188
3123+1018571898+1018979029+1019634029+1020186894+1020580496+1021088155
3115+1021831894+1022619970+1023241282+1023695830+1024129081+1024624148
3106+1025089814+1025395815+1025521725+1025509938+1025453680+1025574701
3098+1025997303+1026402157+1026216641+1025164088+1023453453+1021590120
3089+1020179259+1019656666+1019985505+1020745318+1021582686+1022393667
3081+1023035406+1023121199+1022221612+1020003856+1016102924+1010424050
3072+1003848938+997923268+993302037+989164891+984772977+981024075+979781719
3063+981937257+986681920+992518985+998405074+1003840500+1008395292+1011691454
3053+1013803862+1015306075+1016821481+1018635790+1020686783+1022781376
3044+1024762783+1026524853+1027973822+1029040775+1029698386+1029993069
3036+1030087636+1030158761+1030196601+1030038812+1029658671+1029266341
3027+1029059259+1028958866+1028652463+1027900218+1026717937+1025189470
3019+1023304170+1021178569+1019157111+1017363899+1015314982+1012162009
3010+1007160839+999851297+990037219+977964396+964976717+954037687+948659591
3000+950340489+957093616+964773520+969450874+968293038+959108778+940493326
2990+913075562+880206098+846665025+816693031+793721697+781095138+781069889
2980+792617574+811234834+831272935+848200524+859376640+864206023+864269246
2970+862805945+863245424+867631042+876039148+887164431+899233771+910604244
2961+920156925+927609120+933455897+938473341+943170586+947624383+951733334
2951+955470449+958821998+961700447+964083761+966047019+967565841+968512309
2941+968839273+968520413+967437788+965574723+963147741+960359238+957232585
2931+953755662+949901478+945403345+939655154+931876798+921525058+909001169
2921+896248031+886337243+881867976+883459330+889730450+898568994+908273236
2911+917750505+926286262+933556759+939744295+945311123+950561702+955494760
2901+960026313+964170090+967962860+971364973+974298809+976656004+978096937
2891+977732401+974187500+966541484+955379633+942587583+930319399+920607254
2881+915080477+913783270+914982361+917506052+922482710+931386285+943211507
2871+954976118+964424991+971205175+975932156+979145271+981117838+982039258
2861+982122841+981607681+980677153+979426023+978011345+976783790+976168103
2851+976491652+977960713+980606228+984159434+988124995+992052314+995677449
2842+998863976+1001542040+1003715661+1005482486+1006999433+1008425363
2833+1009890406+1011447002+1012980625+1014282253+1015284643+1016069906
2825+1016616878+1016797639+1016678024+1016597589+1016883432+1017580893
2816+1018490525+1019414959+1020275968+1020965258+1021316199+1021376944
2808+1021457312+1021741078+1022102533+1022388577+1022607178+1022800329
2799+1022980420+1023210742+1023597379+1024176565+1024867730+1025501901
2791+1025892289+1025961004+1025855320+1025853244+1026047199+1026216641
2782+1026149534+1025965491+1025939907+1026114641+1026290714+1026357352
2774+1026446360+1026736355+1027212736+1027694610+1028036777+1028227651
2765+1028332129+1028426428+1028562585+1028729282+1028844409+1028828938
2757+1028711467+1028656682+1028848695+1029332310+1029957908+1030445274
2748+1030556449+1030332624+1030094132+1030056091+1030072433+1029923551
2740+1029656394+1029448241+1029348116+1029329631+1029425872+1029657600
2731+1029935070+1030130499+1030220578+1030327132+1030621414+1031172671
2723+1031858479+1032429159+1032687676+1032607643+1032277799+1031829613
2714+1031459451+1031367162+1031553482+1031795457+1031909847+1031927662
2706+1031972936+1032094024+1032247192+1032357966+1032378661+1032334994
2697+1032325417+1032438468+1032646889+1032826445+1032909827+1032957110
2689+1033019194+1033052212+1033070831+1033239537+1033653031+1034140195
2680+1034445393+1034507209+1034430190+1034299659+1034167453+1034128876
2672+1034270257+1034542169+1034763382+1034763047+1034508749+1034135641
2663+1033849062+1033748133+1033758045+1033788786+1033885361+1034106039
2655+1034356184+1034483634+1034460060+1034342120+1034180044+1034075365
2646+1034174016+1034490466+1034874357+1035218132+1035563044+1035964952
2638+1036400614+1036851277+1037341523+1037827749+1038152905+1038195232
2629+1038019293+1037857218+1037946560+1038311029+1038681258+1038784665
2621+1038722313+1038798261+1039009562+1039038762+1038766046+1038487906
2612+1038570216+1039021349+1039446161+1039458886+1039137213+1038897582
2604+1038941785+1039096225+1039173178+1039187979+1039213429+1039244169
2595+1039214902+1039080955+1038921224+1038934083+1039218652+1039606027
2587+1039842844+1039943171+1040192579+1040696286+1041093103+1040969538
2578+1040450360+1040096406+1040297594+1041008315+1041932749+1042679971
2570+1042891205+1042527807+1041956122+1041545643+1041304873+1041076762
2561+1040907989+1040991438+1041338092+1041713411+1041886470+1041851577
2553+1041817488+1042030865+1042621302+1043511646+1044386854+1044851382
2544+1044801018+1044553149+1044471777+1044598155+1044781662+1044961017
2536+1045121753+1045135818+1044820976+1044160015+1043424179+1043038881
2527+1043218169+1043709352+1044015018+1043930364+1043746924+1043851804
2519+1044264293+1044683747+1044873148+1044859084+1044864174+1045112578
2510+1045561835+1045832475+1045638051+1045254963+1045264674+1045823902
2502+1046482251+1046763539+1046659529+1046505758+1046624435+1047149171
2493+1047981785+1048816407+1049283211+1049135535+1048426086+1047623946
2485+1047355985+1047777717+1048367417+1048530029+1048197573+1047721593
2476+1047429388+1047388534+1047465755+1047558312+1047727487+1048032952
2468+1048391595+1048712799+1048992480+1049234723+1049500607+1049949931
2459+1050577874+1051064636+1051145004+1050970606+1050926470+1051215594
2451+1051705772+1052047538+1051961812+1051547581+1051231735+1051291140
2442+1051570821+1051794244+1051894704+1051863428+1051617033+1051262275
2434+1051144803+1051389256+1051692913+1051749372+1051587430+1051403722
2425+1051336012+1051440424+1051690569+1051996035+1052286432+1052512534
2417+1052610985+1052634559+1052819004+1053262301+1053653626+1053631659
2408+1053318157+1053154005+1053282795+1053453041+1053471660+1053387876
2400+1053213477+1052789201+1052057115+1051276071+1050795537+1050667417
2391+1050622880+1050459800+1050303417+1050355656+1050521281+1050504873
2383+1050248633+1050057758+1050230617+1050668623+1050941606+1050754081
2374+1050326523+1050142078+1050279976+1050320026+1050007528+1049543537
2366+1049107540+1048703021+1048491787+1048579254+1048527417+1047726683
2357+1046162854+1044417863+1043062858+1042298624+1042042317+1042155636
2349+1042530017+1043024750+1043470859+1043818116+1044172941+1044606125
2340+1045126307+1045742396+1046288898+1046481246+1046371544+1046353528
2332+1046563087+1046670446+1046356541+1045592509+1044510621+1043521960
2323+1043416209+1044661311+1046592020+1047994108+1048392532+1048167971
2315+1047727754+1047159686+1046530003+1046047727+1045870717+1045928381
2306+1045954165+1045662094+1044983252+1044226721+1043920251+1044247014
2298+1044695267+1044631977+1044164302+1043906454+1043986354+1043997002
2289+1043897078+1044138517+1044834437+1045572484+1046170690+1046961512
2281+1048169913+1049525789+1050675856+1051606853+1052463911+1053248571
2272+1053854747+1054129405+1053848251+1053040284+1052316369+1052323669
2264+1052895287+1053293175+1053223858+1053118643+1053427658+1053963043
2255+1054081452+1053509366+1052755379+1052450985+1052569528+1052633354
2247+1052406917+1052074461+1051977751+1052372559+1053284067+1054456838
2238+1055510463+1056269004+1056921927+1057675914+1058334865+1058559895
2230+1058380340+1058054179+1057728622+1057584294+1057854933+1058469615
2221+1059000781+1058943854+1058075879+1056952400+1056619743+1057189687
2213+1057421214+1056375023+1054615163+1053353920+1053337512+1054532116
2204+1056060449+1056847721+1056821400+1056746859+1056800705+1056459208
2196+1055818943+1055665841+1056041093+1056054153+1055470011+1055238618
2187+1055944920+1056880739+1057233420+1057149838+1057069670+1056889713
2179+1056409380+1056062860+1056677407+1058517032+1060799887+1062309735
2170+1062263724+1060600239+1058017612+1055772664+1054786682+1055007225
2162+1056017184+1057735051+1059990915+1062125960+1063758503+1065215911
2153+1066628848+1067027608+1065244977+1061967032+1059619347+1059480779
2145+1060359336+1060759234+1060619394+1060342727+1059775730+1058794838
2136+1057938248+1057988076+1059056838+1060254054+1060543111+1059812029
2128+1058724985+1057809057+1057206028+1056994526+1057139256+1057325107
2119+1057302939+1057181650+1057053999+1056659726+1055805146+1054885669
2111+1054559374+1055008900+1055815192+1056374487+1056248309+1055394465
2102+1054262146+1053423974+1053044436+1052908882+1052932993+1053344678
2094+1054265495+1055285098+1055700534+1055216852+1054219015+1053281790
2085+1052667577+1052312886+1052009564+1051652194+1051515233+1052065152
2077+1053275026+1054467219+1055057254+1055103399+1055009971+1055101658
2068+1055589023+1056489346+1057456174+1058086460+1058418046+1058600749
2060+1058241772+1056870693+1055017405+1053935383+1054154989+1055113646
2051+1056259962+1057552682+1058682256+1058876010+1058069181+1057309837
2043+1057468631+1058369356+1059468724+1060600373+1061556552+1061517239
2034+1059738024+1056834326+1054535063+1053808000+1054034035+1054401853
2026+1054949628+1055684996+1056178389+1056768759+1058472696+1061008375
2017+1062600868+1062583321+1062595711+1064048766+1065791614+1065573549
2009+1063223921+1060990828+1060732847+1062190187+1063840478+1063946765
2000+1061455221+1057426237+1054785409+1055324009+1057848705+1060109190
1992+1061442363+1062502752+1063330074+1063349162+1062725840+1062230639
1983+1061960000+1061310760+1060159822+1059224137+1059226883+1060239052
1975+1061789084+1063311322+1064525214+1065284357+1065334989+1064891090
1966+1064929332+1065771321+1066258351+1065540531+1064662845+1065190729
1958+1067008587+1068706228+1069477427+1069554513+1069177453+1068223819
1949+1066789450+1065231248+1063721935+1062477905+1062126228+1062926827
1941+1063848314+1063524967+1061870456+1060075034+1059181073+1058915323
1932+1058267221+1057110055+1056495240+1057186338+1058689355+1059961916
1924+1060426175+1060127340+1059343685+1058213509+1056771103+1055298961
1915+1054278488+1053878657+1053878054+1054029548+1054274804+1054708926
1907+1055501623+1056704799+1058052706+1059158972+1059917981+1060470244
1898+1060854202+1060985537+1060921845+1060930552+1061255440+1061870858
1890+1062532421+1063139736+1063881466+1064752120+1065252344+1064944133
1881+1064126924+1063580622+1063736000+1064351552+1064917477+1065175526
1873+1065240959+1065356019+1065557408+1065537852+1065062073+1064480677
1864+1064314382+1064550865+1064684611+1064438082+1064140854+1064198719
1856+1064516976+1064690571+1064522468+1064115672+1063556310+1062832864
1847+1062096358+1061710859+1061904144+1062466720+1062989113+1063190435
1839+1062878406+1061961540+1060551014+1058891614+1057195112+1055477847
1830+1053524100+1051259864+1049137142+1047873020+1047973413+1049377845
1822+1051548452+1053944893+1056190913+1058027859+1059382127+1060369315
1813+1061120890+1061655137+1061958995+1062125826+1062254549+1062266336
1805+1061982034+1061372710+1060691189+1060309106+1060325849+1060458591
1796+1060388201+1060024067+1059481583+1058942715+1058455752+1057923380
1788+1057305484+1056616997+1055830529+1055019013+1054528767+1054680194
1779+1055316642+1055971843+1056441795+1056878863+1057488120+1058301847
1771+1059164330+1059929233+1060505539+1060800289+1060837057+1060778991
1762+1060743428+1060713826+1060673642+1060647924+1060566351+1060304619
1754+1059852548+1059274903+1058587019+1057762309+1056803585+1055740249
1745+1054615498+1053512446+1052529880+1051707648+1051018291+1050459331
1737+1050143417+1050257741+1050749660+1051111785+1051135896+1051120760
1728+1051239035+1051446318+1051743947+1052163401+1052563367+1052772859
1720+1052882696+1053194457+1053795141+1054327579+1054609202+1054830148
1711+1055091411+1055264269+1055217053+1055002872+1054736184+1054358856
1703+1053679746+1052582856+1051276272+1050282655+1049871572+1049993062
1694+1050435957+1051006972+1051792972+1052920736+1054165705+1055169636
1686+1055963404+1056933179+1058181228+1059305108+1060034113+1060338842
1677+1060349491+1060332346+1060477008+1060727288+1061005160+1061336679
1669+1061674693+1061914659+1062094415+1062295269+1062493309+1062636699
1660+1062744593+1062814044+1062796162+1062734815+1062829850+1063145362
1652+1063199275+1062831390+1062430421+1062388696+1062791005+1063197333
1643+1063284465+1063113013+1062831256+1062582517+1062508043+1062697243
1635+1063030904+1063207714+1063092118+1062790202+1062554857+1062563497
1626+1062699587+1062774731+1062792948+1062784040+1062632881+1062228295
1618+1061584614+1060811473+1059961648+1059023686+1058158390+1057698551
1609+1057861899+1058557149+1059555923+1060710076+1061929862+1063074370
1601+1063963375+1064518316+1064814137+1064985053+1065163404+1065387898
1592+1065423193+1064549793+1061080572+1052320923+1037032306+1019240962
1584+1007597439+1008240651+1018851913+1032173187+1043429001+1051642148
1575+1056675130+1058734964+1059149797+1059323526+1059984754+1060887823
1567+1061475648+1061767786+1062028647+1062352129+1062821277+1063560597
1558+1064092432+1063838402+1063303285+1062949063+1062831926+1062896087
1550+1063082005+1063275290+1063385394+1063447479+1063521886+1063602321
1541+1063800093+1064353762+1065043253+1065517358+1065886314+1066404353
1533+1067083530+1067667270+1068068307+1068430566+1068826379+1069146043
1524+1069291241+1069310529+1069280994+1069246637+1069299144+1069514128
1516+1069778941+1069876253+1069723487+1069248713+1067994167+1064933886
1507+1059530808+1054180171+1051004092+1048782585+1046958498+1046824618
1499+1050013221+1056139075+1062211820+1065912501+1067529238+1068158788
1490+1068494526+1068738242+1068707702+1068120546+1066520619+1062787925
1482+1054919758+1040716110+1019635837+995147623+975647251+970848676+983310145
1472+1002831211+1017134247+1024680071+1029068904+1032396007+1034999597
1463+1036626113+1037103164+1036290509+1032948805+1023062463+1003376843
1455+977144910+946553479+910721782+872705146+842924093+833992590+848520992
1445+876396585+906803371+934728257+958478826+978182864+995216070+1009671202
1435+1019818339+1025822704+1029713321+1032897370+1035805957+1038519919
1426+1041180839+1043832516+1046182679+1047956803+1049365388+1050752540
1418+1051933884+1052513070+1052560889+1052329161+1051924976+1051341102
1409+1050521482+1049433165+1048180428+1047116488+1046732664+1047266308
1401+1048590104+1050380838+1052191329+1053687850+1054872274+1055880692
1392+1056760923+1057539690+1058274120+1058960664+1059531612+1059988571
1384+1060375878+1060618188+1060569833+1060237177+1059881682+1059879606
1375+1060478281+1061590240+1062835342+1063932031+1064892630+1065809429
1367+1066681355+1067474856+1068224087+1068993008+1069765680+1070475531
1358+1071113319+1071657678+1071963412+1071857460+1071308881+1070436419
1350+1069469524+1068741055+1068523927+1068799054+1069273493+1069649080
1341+1069864667+1070081862+1070412308+1070760838+1071056458+1071401438
1333+1071885522+1072468994+1073051930+1073513779+1073741823+1073709006
1324+1073415194+1072759725+1071621647+1070081192+1068492985+1067309566
1316+1066758442+1066654499+1066498585+1065726784+1063798285+1059802921
1307+1052201509+1040329875+1027239526+1019588085+1022315777+1033519151
1299+1046198886+1054670483+1057884402+1057644302+1055976933+1054372251
1290+1053850595+1054780185+1056804590+1059250324+1061643283+1063810072
1282+1065643737+1067027407+1067978496+1068652717+1069168345+1069522232
1273+1069665957+1069591014+1069326871+1068891343+1068293271+1067569623
1265+1066781547+1066009746+1065357894+1064879905+1064519321+1064202202
1256+1063921382+1063659315+1063339049+1062915844+1062413945+1061814199
1248+1060980179+1059748539+1058046477+1055853032+1053029300+1049200097
1239+1043835663+1036464573+1026703270+1013861727+996383884+971669769+936871271
1230+891355224+840144028+794611974+767090201+762504600+775117898+793568395
1220+808446866+815706580+815417791+809244854+798706660+783978945+763251220
1210+733996242+696371467+655832815+621556776+601287483+597289440+606448921
1200+622400373+637238392+644594882+644521279+644289484+651749850+668495070
1190+690581753+713574250+734868236+753128461+767929310+779631569+788753812
1180+795533930+799831143+800946116+797938542+790999497+782727414+777312214
1170+777571535+782732504+789499628+794982069+798183865+799456561+799603835
1160+799405862+799292409+799187194+798710611+797721414+796877282+797530808
1150+800768301+806354618+812309154+815396225+812468283+801709679+783005018
1140+758531672+733884932+716693334+711518636+716235839+724600212+731669587
1130+736036184+738428541+739918765+741167886+742321837+743288062+744125497
1120+745190776+747073130+750446177+755719326+762385990+768469718+771185690
1111+769264358+764856839+762325246+764797836+772247821+782602173+793780567
1101+804580694+814428728+822946201+829919403+835468014+839873121+843202301
1091+845332657+846234922+846010026+844781801+842747618+840302822+838060821
1081+836589483+835796451+834319755+829218794+816372630+793075873+762738404
1071+736435480+726428853+736648187+760633096+788410373+813495655+834018576
1061+850367850+863401539+873945560+882765553+890576658+897909440+904936153
1051+911547698+917645491+923305210+928614324+933394750+937244380+939887484
1041+941284683+941386616+940057463+937294275+933294558+928239005+922099354
1031+914610123+905182682+892916842+877678255+862177601+852039639+851651126
1021+859630201+869693086+875918462+876160035+870990226+860960627+845037170
1011+820658190+785055207+737906014+684583349+636902387+608773433+609416444
1001+639012383+687225382+733769537+754669184+735149993+679858109+610536105
992+552690727+521245452+514907828+522599219+534974192+549624987+567469475
982+588024209+609056931+628353503+644303749+655866502+663493565+669999560
972+679165805+692787119+709580226+727031078+743490991+758534485+772362077
962+785325110+797646203+809162745+819159727+826713655+831682075+835340965
952+839648693+845699470+852885446+859559477+864251967+865823297+863132306
942+856167811+847171076+838714146+831047770+822997704+814365170+806037097
932+799700545+798703244+806567191+823021078+843275636+861990745+876674726
922+887502982+895693960+902462156+908552649+914201786+919448481+924401832
912+929227465+934027782+938836404+943696595+948654166+953681188+958647934
902+963377326+967716531+971394241+973649837+973044331+967350589+953330649
892+928225209+894183510+860932432+840558660+837852199+846875322+856947181
882+860032242+852252079+831633386+798478615+759021114+725870764+711178947
873+718366798+741353268+771121998+801490877+829556273+853623292+872099372
863+883581556+887655145+886304225+884342240+887041401+896487997+910493470
853+925120457+937795102+948035667+956256047+962848236+968170946+972602842
843+976440685+979980898+983483472+986866230+989781113+992155520+994322243
833+996539531+998715697+1000675338+1002441560+1004163512+1005903682+1007619674
823+1009325553+1011188685+1013426668+1016041710+1018628222+1020633740
815+1021980508+1023224137+1024874495+1026728519+1028138576+1028908502
806+1029654184+1031105296+1033291910+1035685941+1037868804+1039746336
798+1041422412+1043130300+1044980774+1046581438+1047069674+1045570073
789+1041285250+1032731946+1017596631+995427906+970567454+948830775+930137098
779+909618999+888825572+879689532+892139415+921903189+955019986+980547292
769+994938733+997271349+984098287+948842897+887155524+805371650+721780097
759+655585817+615656555+601773107+612046355+643916576+690511631+741476566
749+788236242+827477152+860402739+889303762+914546565+934793824+949436348
739+959633246+967249593+973772332+980022354+986148544+991847710+996825105
730+1001096065+1004834987+1007970748+1010098225+1010754832+1009106416
721+1002324289+984006936+946070534+885615337+812007707+746139253+709072567
711+709222186+740419927+789322416+842369353+889050268+923351957+943827662
701+951649684+947700331+929914344+891866967+826519231+736816692+643119526
691+574690813+550040390+566280497+607032259+656511188+705652906+750425214
681+789132212+821483570+848150964+870019916+887705308+901388908+910984050
671+916810266+920067248+922769423+926435881+930431446+934050754+937643206
662+941464573+945338984+949171334+953096711+957229706+961609832+966053582
652+970023430+973084046+975404272+977433030+979190344+980212626+980083769
642+978702175+976187994+972900941+969410824+966134687+963055787+959848566
632+956213384+952183261+948111548+944242094+940397487+936169591+931097295
622+924499412+915636289+904475644+892078402+879647540+867105971+853197542
612+837085354+819176404+800125558+779636190+756777305+731227831+703883939
602+676667095+652207747+632918743+619210029+608866325+598769686+586848558
592+572560859+556721554+541160690+527852008+518221571+513107684+512782495
582+516849621+524265148+533790973+544786328+557190635+570499686+583551258
572+595663461+607237867+619105684+631740012+645044609+658632034+672326282
562+686398662+701109030+715730726+727368155+729757631+713890632+673596901
552+614212743+554665136+516803878+510521641+529456422+559719115+590242501
543+616016604+636162532+651734647+664304680+674965904+684418326+693521683
533+702704068+711163811+717915532+723382435+728832595+734461975+739034382
523+741316366+740633639+735428401+721612194+694337352+653633342+606774813
513+564031330+533617579+519504546+521608348+536798714+559816695+585228941
503+609595732+631593005+650672047+666159842+677723533+686496845+694778639
493+703878782+713101820+721329768+728390168+734466931+739701236+744752837
483+750406395+756408214+761811292+766318266+770482469+774980603+780165615
473+785808457+791011284+795171805+798786492+802490053+805968784+808365025
463+809220811+808136780+802993291+789453081+766074817+741069368+726430125
453+726790844+738516611+753931673+766317864+772913670+774632140+774601198
443+775896665+779399774+783854040+787884967+790940025+792528767+792285520
433+791320299+791971415+795435546+800675141+806275455+812114396+818354239
424+824426648+830145639+836063608+841241186+843017789+841858011+840892857
414+841522541+843335243+845795041+848759350+851069128+850020258+844117425
404+835925375+830604808+832126912+841293693+854363950+863621346+865110968
394+862277994+860222112+861297637+864647177+868318189+872077740+878002004
384+887383033+897219547+902539644+902123807+899662736+899627240+902301353
374+904635041
##END=
