##TITLE=X8204
##JCAMP-DX=4.24
##DATA TYPE=INFRARED SPECTRUM
##DATE=31/10/2018
##SAMPLING PROCEDURE=Diamant-ATR
##ORIGIN=ComPlat
##XUNITS=1/CM
##YUNITS=TRANSMITTANCE
##RESOLUTION=4
##FIRSTX=3997.453
##LASTX=373.96442
##DELTAX=-1.4165319
##MAXY=0.87737155
##MINY=0.60242063
##XFACTOR=1
##YFACTOR=8.1711593e-010
##NPOINTS=2559
##FIRSTY=0.83125335
##XYDATA=(X++(Y..Y))
3997+1017301607+1017889691+1018404756+1018156816+1017223191+1016220195
3989+1015629339+1015615188+1016156879+1016986192+1017668667+1018012311
3980+1018192486+1018410446+1018663274+1018819449+1018727684+1018333781
3972+1017778230+1017297157+1017033023+1017028135+1017309485+1017818277
3963+1018300809+1018461143+1018281114+1018052504+1018000640+1018013479
3955+1017840234+1017571796+1017783920+1018919093+1020488435+1021376396
3946+1021262528+1021017797+1021431834+1022190828+1022342044+1021599754
3938+1020596904+1019967898+1019819455+1020114299+1020890946+1021700856
3929+1021767528+1021207236+1020932379+1021259538+1021442484+1020876284
3921+1020007507+1019554882+1019516659+1019290821+1018672392+1018174177
3912+1018252957+1018870073+1019760588+1020795023+1022055078+1023609028
3904+1025174358+1026208064+1026480733+1026003963+1024729684+1023076820
3895+1021988843+1022070907+1022957190+1023458980+1023004094+1022511495
3887+1022858131+1023555851+1023516096+1022897667+1022384279+1021716831
3878+1020852723+1020857756+1022190464+1023782929+1024521864+1024750620
3870+1025097255+1025331190+1025501006+1026050575+1026419386+1025285599
3861+1022785842+1020682906+1020247132+1021557519+1024149770+1027029937
3853+1027889304+1025832032+1023304774+1021994022+1022065582+1023071933
3844+1024231104+1024874335+1025120233+1025620126+1026455494+1026950208
3836+1026769523+1026184940+1025201640+1023718081+1022395731+1022296307
3827+1023471162+1024809924+1025775718+1027196252+1029167667+1029583528
3819+1027655952+1025642155+1024799420+1024244745+1023158811+1021861554
3810+1020971113+1021030782+1022234887+1023927215+1025295520+1026253363
3802+1026486641+1025507863+1024453149+1024682489+1025566949+1025560821
3793+1024353798+1022892634+1021938365+1021742581+1022379246+1023537469
3785+1024321192+1024199081+1023845516+1024031235+1024279102+1023530320
3776+1021895182+1020570936+1020562766+1022012623+1023958217+1024916789
3768+1024594371+1024071354+1024028973+1024378526+1025109364+1026218130
3759+1027078883+1026989817+1026470010+1026651716+1027929351+1029837960
3751+1031173951+1030852555+1029618323+1028835621+1028489059+1027261538
3742+1024897896+1022863747+1021966012+1022246923+1023562854+1024802630
3734+1023962958+1021283610+1019278056+1019168273+1020367200+1021846746
3725+1022747254+1022606981+1021593845+1020256980+1019187823+1018884444
3717+1019526507+1021020351+1023349270+1026211346+1027942408+1026829338
3708+1024073835+1021864399+1020921072+1021029761+1021564886+1021506603
3700+1020493614+1019532707+1019542701+1020502440+1022323443+1025438565
3691+1029852331+1033622574+1033634683+1029994063+1025862377+1023009638
3683+1021625576+1021652056+1023021674+1025577599+1029017400+1032045791
3674+1032524166+1030857077+1029099464+1027548285+1025749020+1024382101
3666+1024018980+1024111693+1023918972+1023215708+1022304915+1021859220
3657+1022616682+1024485683+1026315001+1027696072+1029655962+1032877074
3649+1035113791+1032899614+1028115215+1024806569+1023983747+1024366199
3640+1024553449+1024384654+1024423388+1024641129+1024429807+1023742518
3632+1023481009+1024313678+1025143721+1023884615+1021240864+1019589021
3623+1019951412+1022383550+1026179105+1029378114+1030214066+1029554933
3615+1029079258+1028876981+1028450617+1028234407+1028815051+1029388181
3606+1028478117+1026211784+1024235773+1023692769+1024121103+1024219287
3598+1023615885+1022973092+1022543081+1021894525+1021093806+1021047267
3589+1022421335+1024556440+1025663893+1025157581+1024161806+1023365610
3581+1022804808+1022740762+1023338766+1023891618+1023563073+1022694807
3572+1022439790+1023534186+1026123958+1029711619+1032209991+1031334065
3564+1028148259+1025413545+1024223664+1024001035+1024031672+1024248830
3555+1024685990+1024952386+1024625227+1024000087+1023983383+1024999217
3547+1026223820+1026118925+1024210607+1021930998+1021025019+1021824425
3538+1023232339+1024019199+1023951287+1023552933+1023284057+1023429948
3530+1024112568+1024928825+1025199524+1024884620+1024627853+1024861277
3521+1025288371+1025217615+1024313970+1023102424+1022480202+1022573134
3513+1022596622+1021991178+1021113137+1020705009+1021143993+1022259397
3504+1023493629+1024209513+1024179386+1023671396+1022941872+1022041802
3496+1021126778+1020555398+1020551824+1020922312+1021243709+1021294916
3488+1021258444+1021493838+1022110589+1022744774+1022793210+1022042093
3479+1020941497+1020070240+1019699168+1019949589+1020778756+1021702534
3471+1022083891+1021723907+1020855130+1019828427+1019058126+1018809237
3462+1018826379+1018635774+1018262221+1018157691+1018529420+1019154487
3454+1019758035+1020317743+1021009555+1021847767+1022371368+1021983518
3445+1020761979+1019519358+1018970592+1019157623+1019527382+1019423800
3437+1018702373+1017915732+1017672241+1017900778+1018048565+1017837243
3428+1017487617+1017357556+1017612280+1018075920+1018327070+1018163891
3420+1017942868+1018156670+1018773932+1019318978+1019490983+1019425624
3411+1019358441+1019300450+1019176662+1019054260+1019053603+1019165501
3403+1019288560+1019335536+1019217074+1018803329+1018018804+1017018288
3394+1016195029+1015861742+1015940086+1016130691+1016309917+1016501909
3386+1016599291+1016476597+1016406351+1016969852+1018263389+1019446632
3377+1019540950+1018603313+1017593533+1017196128+1017284319+1017412410
3369+1017367622+1017298470+1017453187+1017749709+1017894359+1018084308
3360+1018901367+1020169810+1020772483+1020101315+1018897866+1018148208
3352+1017954174+1017938418+1017980580+1018089414+1018127200+1018025587
3343+1017925871+1017949287+1018065051+1018115894+1017834033+1017103998
3335+1016324361+1016185181+1016970144+1018262732+1019332327+1019744467
3326+1019658683+1019554445+1019667510+1019768612+1019493244+1018838269
3318+1018271486+1018256459+1018762625+1019445173+1020061705+1020361291
3309+1019975849+1018982190+1018184973+1018298183+1019133332+1019874309
3301+1019942367+1019444006+1018890790+1018597550+1018482954+1018422263
3292+1018469094+1018629646+1018748839+1018796618+1019006919+1019545764
3284+1020236263+1020815958+1021313590+1021882562+1022345837+1022304915
3275+1021733098+1021087752+1020784519+1020856151+1021131227+1021424686
3267+1021548838+1021454082+1021431615+1021885918+1022744555+1023351459
3258+1023155309+1022306447+1021358816+1020596977+1019933176+1019338819
3250+1019111011+1019633517+1020881828+1022229489+1022992496+1023287340
3241+1023887970+1024978136+1025670312+1025245553+1024247809+1023682192
3233+1023706483+1023777313+1023575765+1023226504+1022964193+1023001468
3224+1023443297+1024063768+1024429296+1024451034+1024551115+1025041014
3216+1025633694+1025907822+1025934447+1026023877+1026131326+1026008340
3207+1025756752+1025757336+1026076763+1026317919+1026210252+1026110609
3199+1026598393+1027696728+1028830953+1029470682+1029521014+1029246448
3190+1028992672+1028784122+1028306477+1027573743+1027187498+1027473006
3182+1027888209+1027793818+1027314715+1027029937+1027193042+1027603140
3173+1027994126+1028290064+1028589796+1029033302+1029596804+1030007704
3165+1030029368+1029810825+1029709796+1029829134+1029985601+1029987133
3156+1029713297+1029208663+1028829056+1028921259+1029357617+1029755751
3148+1029949785+1029934029+1029733065+1029533487+1029480675+1029354115
3139+1028995882+1028861808+1029498109+1030650205+1031484551+1031620083
3131+1031483968+1031631244+1032104147+1032551812+1032718054+1032640075
3122+1032509722+1032511035+1032696681+1032886703+1032819083+1032475073
3114+1032081680+1031756928+1031416858+1031110780+1031161258+1031749634
3105+1032516215+1032838413+1032495571+1031840378+1031293508+1030984512
3097+1030982178+1031468576+1032387685+1033245155+1033619875+1033702522
3088+1034057181+1034962065+1036151436+1037066971+1037203962+1036393176
3080+1034970965+1033575524+1032599226+1031970950+1031505487+1031135655
3071+1030679383+1029792661+1028393282+1026868801+1025807595+1025677388
3063+1026541934+1027890106+1029049715+1029792880+1030128282+1029761076
3054+1028505107+1026939120+1025824737+1025044662+1023721072+1021258006
3046+1017887721+1014308230+1011172245+1009015913+1008295871+1009013068
3037+1010431414+1011718677+1012801329+1014095959+1015629485+1016945707
3029+1017699523+1017940460+1017936521+1017897715+1017865473+1017863212
3020+1017899976+1017588135+1016194226+1013546536+1010530254+1008292954
3012+1007295648+1007374939+1008342192+1010219946+1012984713+1016251415
3003+1019365444+1021855937+1023625149+1024709333+1025194929+1025403114
2995+1025736182+1026254165+1026715470+1027013232+1027293342+1027739255
2986+1028429390+1029281024+1030104794+1030807401+1031407448+1031833886
2978+1032068988+1032416717+1033082269+1033605359+1033322258+1032195256
2969+1030556178+1028291377+1024948082+1020554304+1015808930+1011416830
2961+1007615293+1004366535+1001453908+998136946+993377275+987064237+980799853
2951+977030048+977373620+981656521+988127850+994396465+998426903+999170506
2941+996627492+991352901+983852316+974398260+963127505+950088267+935619961
2931+921094977+908813858+900603663+896578622+895377508+895497138+896357599
2921+898108793+900698200+903686763+907026556+911362270+917295045+924677167
2911+932635848+940095000+946484339+952080837+957446901+962605071+967023724
2901+970189981+971882382+972053073+970762236+968263062+965013064+961503381
2891+958063288+954916142+952429588+951171357+951583424+953638654+956934024
2881+961089928+965891542+971004049+975795014+979646736+982444912+984669521
2871+986928048+989361134+991585669+993177332+993991109+994028748+993254363
2861+991491424+988313569+983193111+975902681+966664615+956109743+945475435
2851+936609462+931168265+929669315+931474342+935527394+940888935+946768752
2842+952488892+957663038+962313510+966671034+970903166+975043314+978987385
2832+982493494+985357393+987643276+989632782+991539933+993330882+994817066
2822+995892570+996625304+997122425+997470811+997864861+998549378+999546684
2812+1000625981+1001581051+1002411167+1003261562+1004249823+1005295054
2803+1006124440+1006498065+1006404477+1006078339+1005905678+1006198480
2795+1006944635+1007820780+1008465542+1008735366+1008794233+1008977909
2786+1009483273+1010187923+1010799057+1011113961+1011138471+1011013954
2778+1010847201+1010641423+1010393190+1010122783+1009824510+1009549872
2769+1009451104+1009607352+1009989001+1010624864+1011499331+1012319964
2761+1012760188+1012892729+1013083553+1013526258+1014067292+1014417574
2752+1014459956+1014346380+1014270590+1014236597+1014183347+1014202751
2744+1014425817+1014772015+1015019591+1015118577+1015278400+1015676462
2735+1016194883+1016579742+1016772827+1016862185+1016791793+1016442313
2727+1015963647+1015681422+1015685945+1015828698+1016062123+1016461206
2718+1016976636+1017456105+1017817402+1018025806+1018064030+1018057173
2710+1018252957+1018767075+1019459908+1020074471+1020402578+1020367273
2701+1020056235+1019663571+1019352970+1019205329+1019267260+1019488357
2693+1019628703+1019505863+1019348156+1019511334+1019843599+1019849654
2684+1019500392+1019295635+1019476612+1019762630+1019883646+1019842505
2676+1019631110+1019169513+1018601343+1018286075+1018397972+1018762333
2667+1019121953+1019370112+1019519942+1019637019+1019798665+1019994961
2659+1020109484+1020089206+1020091102+1020414687+1021238894+1022329570
2650+1023111542+1023240144+1022978417+1022823263+1022970977+1023326876
2642+1023717133+1023906134+1023690143+1023128174+1022467728+1021854551
2633+1021363485+1021215114+1021596325+1022304404+1022898688+1023183758
2625+1023240072+1023103372+1022806340+1022632511+1022856526+1023275596
2616+1023459782+1023448841+1023693572+1024256854+1024637336+1024565412
2608+1024451690+1024778704+1025482478+1026161525+1026512099+1026367741
2599+1025688767+1024758060+1024152032+1024249487+1024838519+1025413108
2591+1025769955+1026054952+1026293701+1026235783+1025737713+1025090398
2582+1024877836+1025452352+1026528585+1027504007+1028150812+1028589066
2574+1028759248+1028623059+1028627509+1029109749+1029593156+1029577765
2565+1029515105+1030036225+1030753933+1030771512+1029977577+1029020975
2557+1028387227+1028150010+1028264606+1028547852+1028679810+1028629040
2548+1028729340+1029050882+1029155631+1028791125+1028353454+1028361259
2540+1028864653+1029545888+1030072625+1030274829+1030209689+1030056358
2531+1029960873+1030083494+1030572737+1031271479+1031797705+1032074386
2523+1032269952+1032239242+1031750290+1031172711+1031142803+1031620229
2514+1031938416+1031701271+1031209402+1031124786+1031845411+1033009251
2506+1033708576+1033447359+1032626435+1031821120+1031047756+1030172925
2497+1029571492+1029793756+1030811195+1031972044+1032515120+1032037038
2489+1030874365+1030089475+1030611836+1032333633+1034322045+1035676417
2480+1035913197+1035015899+1033572169+1032495644+1032211085+1032314521
2472+1032255582+1032150905+1032620526+1033780427+1034781234+1034766208
2463+1034027784+1033585226+1033797715+1034149456+1034259385+1034249537
2455+1034118528+1033649272+1033050319+1032901876+1033304606+1033742058
2446+1033875402+1033858624+1033826164+1033661745+1033321529+1032934117
2438+1032572236+1032257478+1032125083+1032318460+1032761821+1033194750
2429+1033421026+1033450934+1033431020+1033448381+1033413805+1033209121
2421+1033000716+1033199200+1033859208+1034353995+1034043978+1033108821
2412+1032289282+1032023616+1032231801+1032688803+1033232171+1033794724
2404+1034393750+1034942224+1035161060+1034905095+1034380620+1033857603
2395+1033418546+1033107873+1033037554+1033250918+1033618999+1033774810
2387+1033075120+1030990129+1027713287+1023963104+1019985332+1015240031
2378+1009341175+1002757438+996175597+989677570+982993971+976160542+969534058
2368+963356188+957529183+951965146+947226921+944309479+943411379+943695135
2359+944837456+947816828+953469202+961295706+969973918+977934203+983513121
2349+985391094+983069323+977429131+971070940+966794384+965304115+965534330
2339+966484222+967985579+970119808+972408535+974099768+975191028+976406002
2329+978018163+979509016+980537032+981466134+982863909+985054744+988210351
2319+992244291+996382542+999495695+1001222891+1002385491+1004043461+1006467501
2309+1009271659+1012164007+1015106177+1017877509+1020040697+1021549422
2300+1022995413+1024899720+1027005354+1028563171+1029150161+1029049715
2292+1028998070+1029581412+1030740875+1031963290+1032959065+1033800487
2283+1034416144+1034555907+1034319565+1034086359+1033855779+1033259672
2275+1032263605+1031335889+1030909233+1031021495+1031439034+1031947096
2266+1032592807+1033592958+1034788675+1035423006+1034921435+1033745340
2258+1032925291+1032802014+1032831629+1032610022+1032287604+1031958987
2249+1031713015+1032330569+1034594349+1037675406+1039551847+1039405009
2241+1038371522+1037639736+1037057269+1036073895+1035020859+1034699390
2232+1035277043+1036311113+1037517188+1038857118+1040089818+1040753108
2224+1040619764+1040109075+1040035474+1040510857+1040462859+1039069899
2215+1037188935+1036425564+1037342047+1039240299+1041136070+1042454554
2207+1043146220+1043356885+1043020900+1041957870+1040185887+1038018030
2198+1036105189+1035102777+1034819312+1034204822+1032623079+1030621610
2190+1029278617+1029126235+1029707972+1030169058+1030451356+1031498703
2181+1033971324+1037437678+1040988502+1043799443+1044921778+1043602419
2173+1040485253+1037730845+1037095419+1038359778+1040240814+1042041465
2164+1043673905+1045469304+1048318323+1051762355+1052618074+1049239693
2156+1044751961+1042439162+1042416330+1043503067+1044744156+1045422108
2147+1045521241+1045481413+1045030247+1043629116+1041597886+1039505308
2139+1037554390+1036519955+1037694591+1040991785+1044542973+1046751169
2130+1047489593+1047237932+1046287530+1044857294+1043283429+1042083846
2122+1041883758+1042772230+1043842700+1044138201+1043863125+1043756333
2113+1043657346+1042790831+1041222875+1040057430+1040175018+1041243081
2105+1041999959+1041567832+1040426387+1039733700+1039892209+1040449656
2096+1041179472+1042285977+1043529182+1044121569+1043702353+1042788570
2088+1042176706+1042302390+1042983479+1043370015+1042615617+1041164373
2079+1040655872+1041866324+1043616570+1044460545+1044537211+1044896174
2071+1045900774+1047181837+1048515347+1049947188+1051240214+1051718807
2062+1050831137+1048669335+1045821848+1043081007+1041509257+1042019509
2054+1043969624+1044796750+1042514733+1038496404+1036556063+1038789279
2045+1043380374+1047213422+1049394701+1051115113+1052730191+1052651702
2037+1049907360+1046369301+1044777784+1045507235+1047069356+1048482668
2028+1049142676+1048236259+1046432034+1046167681+1048464651+1051242475
2020+1052031085+1050623608+1048339623+1046618846+1046712581+1048718208
2011+1050700565+1050653005+1049262670+1048736152+1049303812+1049233055
2003+1047931932+1046783484+1047117135+1048758328+1050541691+1051685179
1994+1052370717+1052912262+1052876446+1051866958+1050554894+1049503025
1986+1047772474+1044309695+1040187783+1038036849+1039532882+1044136012
1977+1049368806+1052093380+1051158807+1048588438+1046800188+1045934402
1969+1045343328+1045942718+1048788892+1052494432+1054626692+1054727284
1960+1054222868+1054171150+1054174213+1053186390+1050750460+1047721923
1952+1045995311+1047057101+1050507334+1054187343+1056106093+1056070058
1943+1055146791+1054152986+1053349350+1053036707+1053435644+1054173046
1935+1054527268+1054077415+1052900591+1051476629+1050504999+1050404262
1926+1050970973+1051762063+1052530832+1053105786+1053260429+1053004173
1918+1052832241+1053297048+1054092661+1054229579+1053422076+1052632299
1909+1052687081+1052903655+1052169389+1050505291+1048365591+1045456393
1901+1041265985+1036065726+1030704841+1025975296+1022602969+1021284266
1892+1022268880+1025023362+1028340761+1031248428+1034109045+1037718444
1884+1041504443+1043879975+1044323190+1043913894+1043841897+1044439683
1875+1045526566+1046991304+1049026839+1051782852+1054365621+1054731441
1867+1052341758+1049495074+1048215762+1048366539+1048714852+1048492078
1858+1047866792+1047396369+1047436999+1047954691+1048687863+1049447441
1850+1050206873+1051023931+1052033857+1053209295+1053909350+1053466791
1841+1052439140+1051839312+1051838291+1051832747+1051267641+1050409295
1833+1050117150+1050828511+1051971051+1052749303+1053340231+1054093098
1824+1054414276+1053658345+1052295730+1051294631+1051164934+1051766440
1816+1052578757+1053261524+1053857048+1054309818+1054203027+1053370650
1807+1052340518+1051815897+1052143202+1053209441+1054410264+1054917889
1799+1054523912+1053936193+1053967195+1054866025+1056058168+1056133885
1790+1054363141+1051991476+1050396092+1049632429+1049000651+1048246034
1782+1047711565+1047378570+1046859201+1046370614+1046668960+1048040620
1773+1049718869+1050247868+1049236556+1047835426+1046750585+1045906683
1765+1045464344+1045713232+1046201454+1046017195+1045171469+1044258195
1756+1043332303+1042442007+1042276422+1043411667+1045278260+1046308684
1748+1045912956+1045072847+1044611542+1044552237+1044615481+1044532250
1740+1044160376+1043901129+1044619128+1046650140+1048632497+1048648399
1731+1047346474+1046050020+1044977070+1044191815+1043947522+1044249369
1723+1044920975+1046172349+1048630017+1052379106+1055430985+1055314784
1714+1052893515+1050385369+1048910345+1048675097+1049556931+1051252031
1706+1053088133+1054538647+1056000395+1058009669+1059794710+1060003771
1697+1058777490+1056664561+1054275753+1052738507+1052666875+1053706562
1689+1055094344+1056760411+1059240619+1061607178+1061322328+1058800249
1680+1056155477+1054304493+1053486851+1053511288+1053740846+1053955524
1672+1054591678+1055487007+1055444918+1054230162+1053133651+1052947714
1663+1053136714+1052521714+1051116353+1050197900+1050787005+1053383269
1655+1057859402+1061068916+1059546551+1057132139+1056885001+1058040306
1646+1057891936+1055615828+1053247153+1052192731+1052851572+1055236732
1638+1058786900+1061534598+1061098459+1058659246+1056844225+1056479645
1629+1057194580+1058216469+1059233178+1060465003+1061504690+1061456765
1621+1060697552+1060501403+1061262950+1061824701+1061110860+1059938777
1612+1059431370+1059834684+1060581497+1060768528+1060012233+1058671574
1604+1057102013+1054918692+1051085205+1044832128+1036563503+1027928548
1595+1020850170+1015857512+1011323971+1004977013+996355771+987760790+982729253
1585+983519322+989838852+999353525+1009284862+1018170092+1026224404+1033632567
1575+1038929844+1041596427+1043534288+1046291031+1049621998+1052096590
1567+1053373349+1054186176+1054975735+1056176485+1058941981+1064385732
1558+1069204708+1068864783+1066154360+1063736228+1062021944+1060297740
1550+1057440187+1053063113+1047488353+1040587595+1032204593+1023885490
1541+1019035075+1020043615+1024082661+1028017104+1032401472+1037897524
1533+1042951675+1045851026+1047663129+1050135022+1053626468+1057348057
1524+1060643427+1063169736+1064114157+1063491279+1062994303+1063540444
1516+1064401051+1064968126+1065802108+1067532805+1069749535+1070251470
1507+1064527902+1052590793+1041840866+1032848261+1021831501+1007752138
1499+995386330+992732148+1000518387+1010750038+1019179871+1027440326+1036846749
1489+1044754150+1047858695+1046495715+1041613277+1032337061+1017895307
1480+1000655596+985429536+975537882+971526701+972918276+979201990+988159800
1470+996404572+1003238803+1009892641+1016867656+1023026269+1027141981
1462+1029893326+1032321889+1033175566+1027905570+1015590678+1004320434
1453+997374232+992118971+986771289+982382544+981711011+985929940+993182803
1443+1000756407+1006408124+1008575178+1006903349+1001928489+994932101+988320280
1434+983983544+982714080+985297505+991699026+1000179848+1008966456+1017048195
1424+1023275231+1026808184+1027492701+1024316596+1015958030+1004082049
1415+991592526+980093453+971306115+967454027+969418659+975824775+984453603
1405+993416447+1001249589+1007552706+1012980701+1017574859+1019419788
1397+1014958025+1000661140+977007800+951305503+932164258+924227461+928375632
1387+940901409+954708175+965649802+973913831+980504061+985925636+990695665
1377+995321920+999768583+1003373897+1005742281+1007509450+1009474665+1011622170
1367+1013643553+1015851020+1018638691+1021304253+1022598081+1022559493
1358+1022255458+1022372389+1023036919+1024149187+1025501298+1026850856
1350+1027989384+1028747357+1029061824+1029120691+1029414587+1030503585
1341+1032516506+1034755339+1036091038+1036186377+1035848641+1036029910
1333+1037001466+1038275453+1039122711+1039188435+1038470946+1036972507
1324+1034833682+1032421896+1029694404+1026100251+1021990229+1019397394
1316+1020135818+1023746894+1028206688+1031965916+1034733018+1036762789
1307+1038240658+1039347966+1040309529+1041181296+1041847650+1042280215
1299+1042617003+1042902291+1042838464+1041907538+1039850485+1037082581
1290+1034563274+1033144053+1033046891+1033971324+1035502735+1037280773
1282+1038950415+1040174069+1040694095+1040365186+1039185152+1037305064
1273+1035023558+1032812955+1031251564+1030726141+1031183725+1032301172
1265+1033845786+1035718798+1037675917+1039272832+1040278235+1040957792
1256+1041697967+1042482273+1042905355+1042560105+1041296841+1039214695
1248+1036454086+1032935357+1028390583+1022757393+1016457558+1010269330
1239+1005064182+1001572444+1000091803+1000335367+1001671358+1003520809
1231+1005542119+1007582468+1009588314+1011597077+1013716644+1015945119
1222+1017993419+1019465598+1020253186+1020635200+1021008533+1021585384
1214+1022160556+1022037279+1020401411+1016938340+1011987115+1006295132
1205+1001054387+997938900+998298082+1001992243+1007346199+1012359281+1015769759
1196+1017152288+1016584702+1014454995+1011343009+1007783651+1003866277
1187+998970709+992427237+985001494+979152460+976901592+977951929+980885491
1177+985467249+992306148+1000763701+1008819472+1014969550+1019151569+1021952735
1167+1023837128+1025012785+1025270427+1023941731+1020674664+1016474409
1159+1013381389+1012567612+1013194211+1013807972+1014342951+1015801927
1150+1018425983+1021367788+1024013874+1026525667+1029049350+1031278335
1142+1032975769+1034328683+1035548690+1036487276+1036906346+1036936180
1133+1036972580+1037125035+1036985856+1036038444+1034262230+1032363322
1125+1031397236+1031998523+1033849944+1035941646+1037378665+1037919408
1116+1037859520+1037630399+1037532434+1037636964+1037833624+1038044217
1108+1038393478+1039071358+1040066621+1041130599+1041954223+1042255924
1099+1041734950+1040112577+1037347810+1033813398+1030069415+1026271161
1091+1021994387+1017126101+1012904400+1011425364+1013797030+1019122537
1082+1025413472+1031077444+1035470420+1038683946+1041209526+1043489062
1074+1045521387+1047026975+1048002543+1048857022+1049926690+1051100086
1065+1052080615+1052866599+1053714367+1054704014+1055659814+1056489128
1057+1057255781+1057877420+1058085386+1057839707+1057633418+1058196774
1048+1059807184+1061958482+1063711354+1063954699+1060855697+1051302946
1040+1031716517+1000325155+959656920+917410299+884030598+867456511+868809279
1030+882756538+901872763+920722300+936895918+950028087+960692450+969524284
1020+976665906+982096380+986409992+990705294+995576790+1000631597+1005160908
1010+1008984547+1012426755+1015673106+1018515633+1020757529+1022585608
1001+1024415437+1026507285+1028765667+1030864955+1032596746+1034072426
993+1035501787+1036859296+1037869367+1038296388+1038267356+1038323013
984+1039031675+1040504438+1042368260+1044168181+1045722861+1047133183
976+1048511700+1049802465+1050938950+1051970103+1052864629+1053428203
967+1053545937+1053224832+1052334318+1050540305+1047544229+1043456091
959+1039091053+1035576920+1033239028+1031303720+1029378844+1028809653
950+1031543783+1037730990+1045299342+1051269756+1051702102+1041422234
942+1018088904+987899605+963602232+954634647+960960231+976460638+994907373
932+1012094271+1025794830+1035715151+1042644065+1047341879+1050558176
924+1053257293+1055961880+1058244115+1059255718+1058473965+1055714231
915+1050589689+1042163357+1029240394+1011045101+987803536+961166155+934411114
905+911667181+895735085+886146518+879992938+875214009+872773921+875365516
895+884387008+898333026+913675215+927125717+937293177+944556034+950064122
885+955224335+961251647+968260655+975028360+979985275+982230162+981960557
875+980726033+980912845+984040588+989592443+995836110+1001415320+1005872561
866+1009166399+1011251828+1012145479+1012260951+1012469501+1013512398
857+1015368852+1017517160+1019658829+1021620908+1022527470+1020491863
849+1012863697+996306534+967953410+929150456+888736143+860106558+852542729
839+865099945+888869487+913948978+933980957+946440134+951545419+951466055
829+949356700+948179657+949840983+954821240+962345387+970916515+978812827
819+984555799+987376588+987044323+982879811+972894569+954039560+924382761
809+887062490+852157579+831662836+830657506+844592948+865286612+886957303
799+906277337+920515209+928159131+929852626+927380734+922851350+919290970
789+920271353+927586220+939742748+953308066+965487280+975373755+983315732
779+989698724+994529298+997940870+1000541000+1002949065+1005284914+1007368447
769+1009154217+1010748652+1012266860+1013898643+1015861742+1017973650
761+1019514325+1020069292+1020391417+1021690279+1024104909+1026709926
752+1028980855+1031340776+1034249902+1037562779+1040825324+1043759615
744+1046471278+1049263254+1052173474+1054895276+1057274455+1059558295
735+1061993569+1064522358+1067065372+1069757851+1072435084+1073741823
727+1070246583+1055422378+1020990589+964656508+899816949+852455778+840961446
717+860641027+890345678+908090680+900674420+868596060+827042271+797741299
707+794301278+814467549+845836517+876594715+901212974+919387696+932537883
697+941567471+946471647+947338600+945991011+946157107+950822241+959382574
687+968483940+975667141+981107901+986087210+991213430+996226877+1000491834
677+1003108742+1002496513+996283775+982568919+960688875+930812584+899121490
667+882544632+886897780+900782670+916634016+932698289+947920921+960767729
657+969955244+975069501+976631476+974997213+969119584+956759612+935992346
647+906924506+872880639+840642092+818737904+813357032+824675639+847082055
637+873131644+897205367+916041045+928086551+933407900+932840459+926397944
628+913228280+893852443+872334718+855394957+848634474+853449146+867249055
618+885800393+905174114+922768776+937576496+949451529+958361779+964631196
608+969327770+973823160+978954122+984494671+989390166+992880446+995403108
598+997994265+1000972616+1003707184+1005522278+1006508351+1007441392+1008929400
588+1010794972+1012416251+1013234039+1012022129+1005394843+989163234+964148372
578+939843850+928728322+935580279+953972013+974056366+990112104+1000626272
568+1006384781+1009653600+1012448274+1014858309+1015917035+1015690103
560+1015453687+1015956790+1016776839+1017734463+1019617032+1022643161
551+1025267582+1025597002+1023553736+1020749578+1018488424+1016776985
543+1015200203+1013878291+1013237468+1013547995+1015063139+1017953372
534+1021820705+1025841660+1029486073+1032699890+1035271572+1036216430
526+1034369897+1029958758+1024303028+1017249232+1005176153+980849675+937587657
516+877837773+815822870+768159560+742690104+737252335+747684877+772479299
506+808860474+850051069+887687192+915339021+932677500+944838769+955688339
496+965171282+972697252+979088341+984838316+989818792+994619166+999494382
486+1002757876+1002271623+998254315+992447516+983750704+967337315+941607153
476+915368199+903261346+912833136+936656731+960324368+977133047+988422549
466+996368537+1001003253+1000440189+993807724+985450326+983683375+992239258
456+1004475807+1012397869+1015593888+1016977949+1017767289+1017838629
448+1017731473+1018858548+1021979433+1025774405+1027897036+1027902580
439+1027408376+1027453675+1027804614+1028277153+1028807902+1028420198
431+1026121916+1022826473+1020671016+1020497261+1021313736+1022070469
422+1022698818+1023152975+1023597940+1026168163+1031782313+1036912692
414+1037261807+1031221657+1020062581+1005223349+988362150+974469600+969854506
404+976155144+989256749+1003069351+1012008853+1013860055+1014388542+1019577058
394+1026357164+1029868889+1029529767+1025722906+1016591194+1001423928+985474981
384+977487925+980335776+989541236+1000332230+1009797447+1014861519+1013128779
374+1009217752
##END=
