##TITLE=LSH-R322A,X17797
##JCAMP-DX=4.24
##DATA TYPE=INFRARED SPECTRUM
##DATE=2/3/2021
##SAMPLING PROCEDURE=Diamant-ATR
##ORIGIN=Angelika Moesle
##XUNITS=1/CM
##YUNITS=TRANSMITTANCE
##RESOLUTION=4
##FIRSTX=3997.453
##LASTX=373.96442
##DELTAX=-1.4165319
##MAXY=0.98131508
##MINY=0.8682881
##XFACTOR=1
##YFACTOR=9.1392088e-010
##NPOINTS=2559
##FIRSTY=0.96641004
##XYDATA=(X++(Y..Y))
3997+1057432933+1057207798+1057486086+1057906289+1058277122+1058620172
3989+1058857503+1058794762+1058411733+1057959573+1057689503+1057596044
3980+1057521043+1057403323+1057319648+1057393280+1057714612+1058206164
3972+1058632042+1058888873+1059101877+1059267467+1059111138+1058549345
3963+1057965377+1057783483+1058002030+1058328906+1058546410+1058570345
3955+1058380168+1058033139+1057615153+1057208385+1057027664+1057364257
3946+1058156990+1058895395+1059160182+1059017810+1058795675+1058708739
3938+1058871003+1059338229+1059891739+1059992959+1059238249+1057892006
3929+1056726028+1056248628+1056349847+1056580069+1056673723+1056838726
3921+1057356431+1058031966+1058335689+1058064314+1057547522+1057111731
3912+1056774225+1056519937+1056497372+1056847530+1057495282+1058198729
3904+1058770958+1059173943+1059290032+1058825611+1057817201+1056901662
3895+1056670788+1057083035+1057609284+1057831027+1057915485+1058164033
3887+1058398885+1058237208+1057759482+1057446629+1057424976+1057439128
3878+1057400649+1057524565+1057886919+1058207599+1058156077+1057776243
3870+1057393932+1057179102+1057083491+1057201081+1057795613+1058810089
3861+1059675735+1060011089+1060068873+1060275942+1060617101+1060409966
3853+1059120725+1057929377+1057956508+1058628259+1058978483+1058669673
3844+1058234404+1058407625+1059145312+1059704823+1059529515+1058747022
3836+1058027987+1057923181+1058355841+1058742653+1058665238+1058441212
3827+1058685260+1059423144+1059985915+1059823716+1059077420+1058392298
3819+1058145511+1058106967+1058058249+1058181968+1058711022+1059457122
3810+1059977045+1059936740+1059364056+1058703195+1058453995+1058753349
3802+1059333142+1059625060+1059280510+1058514714+1057721460+1057284756
3793+1057380693+1057789809+1058194751+1058514714+1058804676+1058985070
3785+1058943591+1058785045+1058681869+1058634716+1058639086+1058842372
3776+1059226053+1059424057+1059137812+1058518888+1058014617+1057915616
3768+1058153076+1058513018+1058822415+1058970200+1058907199+1058599563
3759+1058132663+1057948877+1058491300+1059591668+1060642014+1061017543
3751+1060420923+1059380686+1058735870+1058535518+1058354276+1057993160
3742+1057632045+1057358062+1057164102+1057200689+1057597740+1058223056
3734+1058777088+1058993092+1058718522+1058105206+1057505717+1057134884
3725+1057022903+1057188754+1057562000+1057825875+1057752830+1057590305
3717+1057760526+1058321210+1058979070+1059471405+1059678148+1059386426
3708+1058519279+1057634654+1057470172+1058063336+1058652912+1058541388
3700+1057905572+1057341040+1057150471+1057379323+1057838462+1058125619
3691+1058035357+1057837484+1057932116+1058338949+1058771936+1058938504
3683+1058714739+1058330928+1058186208+1058275753+1058083227+1057347822
3674+1056866509+1057420867+1058402929+1058638499+1057800309+1056941054
3666+1056903553+1057516412+1058367320+1059201726+1059805064+1059963284
3657+1059662887+1059257488+1059154965+1059242618+1059061833+1058541975
3649+1058430908+1059178313+1059898848+1059939414+1059532515+1059065224
3640+1058674630+1058361450+1058215817+1058378602+1058792741+1059187639
3632+1059453796+1059803825+1060327008+1060569817+1060265442+1059850130
3623+1059751911+1059973328+1060142831+1059985328+1059778194+1059810542
3615+1059807346+1059516080+1059234010+1059312402+1059594734+1059736584
3606+1059678540+1059612147+1059724519+1059940327+1059817390+1059107877
3598+1058393929+1058426538+1059025245+1059365425+1059195139+1058885807
3589+1058548432+1058073379+1057841658+1058334645+1059226183+1059887239
3581+1060113613+1060072525+1059963284+1059833499+1059579081+1059134551
3572+1058767501+1058910982+1059571516+1060137287+1060008350+1059453666
3564+1059168791+1059230162+1059240858+1059018984+1058813741+1058870481
3555+1059079050+1059238901+1059353360+1059494819+1059605169+1059579733
3547+1059381208+1059059354+1058775653+1058708739+1058884568+1059163052
3538+1059366534+1059424709+1059415187+1059389882+1059276076+1059123334
3530+1059183074+1059466970+1059548559+1059130116+1058463191+1057990747
3521+1057930877+1058251100+1058741740+1059123921+1059295641+1059420404
3513+1059621799+1059684279+1059260749+1058457843+1057906420+1058033139
3504+1058613324+1059175052+1059516145+1059718714+1059921218+1060140679
3496+1060167223+1059791237+1059244575+1059052376+1059374295+1059828542
3488+1059952132+1059588603+1058892003+1058211186+1057970725+1058397972
3479+1059229705+1059836369+1059766259+1059181248+1058672934+1058604128
3471+1058783414+1058852416+1058752109+1058647173+1058615933+1058676586
3462+1058883721+1059128747+1059125942+1058850589+1058635368+1058656238
3454+1058730000+1058744805+1058826198+1058948678+1058837285+1058450147
3445+1058165990+1058247448+1058480996+1058545562+1058426473+1058334515
3437+1058471539+1058920439+1059527167+1059962697+1060101808+1060136831
3428+1060193180+1060124374+1059818694+1059466253+1059403317+1059732671
3420+1060139505+1060202832+1059860695+1059383621+1059048463+1059038680
3411+1059412317+1059940914+1060245615+1060230224+1060098091+1059915609
3403+1059511254+1058864481+1058294079+1058095162+1058184903+1058338428
3394+1058599628+1059091703+1059571516+1059643778+1059317946+1058960939
3386+1058846024+1059017027+1059416426+1059927153+1060402336+1060722168
3377+1060781321+1060497359+1059900218+1059154378+1058503431+1058180403
3369+1058231665+1058440299+1058566302+1058566367+1058447799+1058215034
3360+1058139054+1058609150+1059470427+1059995306+1059777020+1059186204
3352+1058750805+1058572236+1058517714+1058550388+1058705869+1058999027
3343+1059473101+1060164483+1060905171+1061278287+1060962629+1060130048
3335+1059364056+1059118312+1059337838+1059644235+1059778259+1059761563
3326+1059704171+1059630800+1059515297+1059334381+1059077485+1058802849
3318+1058666151+1058799067+1059163313+1059495993+1059476427+1059092942
3309+1058720674+1058617237+1058623172+1058627868+1058850916+1059323620
3301+1059612408+1059435405+1059107159+1059034767+1059128682+1059024332
3292+1058682521+1058455495+1058558867+1058793914+1058896373+1058876873
3284+1058874329+1058922852+1058947374+1058852742+1058625846+1058393081
3275+1058282992+1058277709+1058306079+1058366080+1058486931+1058688717
3267+1058922460+1058959831+1058595063+1058078401+1057988399+1058535844
3258+1059312142+1059798998+1059817586+1059443427+1058825676+1058211512
3250+1057892006+1057945747+1058149946+1058254100+1058233948+1058188034
3241+1058140359+1058087597+1058095032+1058189468+1058288666+1058382907
3233+1058655651+1059228923+1059912348+1060412314+1060691450+1060897867
3224+1061067565+1061150393+1061190698+1061209481+1061058891+1060629818
3216+1060072069+1059635039+1059398752+1059228401+1058954091+1058637520
3207+1058614889+1059100116+1059837934+1060381401+1060587165+1060618275
3199+1060623035+1060617361+1060577643+1060519729+1060490055+1060472250
3190+1060345465+1060051590+1059737106+1059603016+1059712062+1060029546
3182+1060471859+1060785169+1060630210+1060028764+1059513537+1059541254
3173+1059935892+1060167614+1059974632+1059510210+1059108920+1059064115
3165+1059416883+1059895326+1060221485+1060398749+1060575817+1060785495
3156+1060921280+1060899758+1060838453+1060996412+1061388506+1061606075
3148+1061270265+1060521686+1059825021+1059429209+1059210400+1058969613
3139+1058729935+1058667521+1058816545+1058974896+1058952461+1058820328
3131+1058829719+1059081202+1059375404+1059507341+1059557690+1059675083
3122+1059765867+1059682518+1059475971+1059212748+1058851763+1058475974
3114+1058336667+1058548758+1058955070+1059348794+1059696866+1060098547
3105+1060534729+1060770690+1060592513+1060032807+1059263488+1058401559
3097+1057462020+1056388196+1055160977+1053944194+1053040851+1052702236
3088+1053014698+1053819170+1054709795+1055298458+1055473831+1055290306
3080+1054803579+1054199329+1053823083+1053881388+1054263243+1054715926
3071+1055061780+1055254501+1055357872+1055497310+1055804946+1056346130
3063+1057004446+1057511978+1057742525+1057879158+1058107815+1058308492
3054+1058295644+1058185229+1058218426+1058350102+1058273340+1057816875
3046+1057150667+1056626309+1056515568+1056858487+1057462020+1058041161
3037+1058423929+1058631325+1058736457+1058717609+1058527366+1058222600
3029+1057900224+1057590957+1057306474+1057106905+1057041556+1057062165
3020+1057006012+1056697528+1056139778+1055564354+1055184978+1054960887
3012+1054687229+1054266309+1053821844+1053574796+1053649862+1054027087
3003+1054626967+1055322589+1055917970+1056298390+1056555351+1056767899
2995+1056809443+1056630939+1056561025+1056958793+1057664654+1058156077
2986+1058216599+1058091054+1058013183+1057984226+1058010769+1058131685
2978+1058186142+1057936942+1057472325+1057160254+1057163123+1057264147
2969+1057206428+1056982989+1056700202+1056334521+1055763989+1054944452
2961+1053949998+1052901805+1051903699+1051007531+1050265408+1049815856
2952+1049812530+1050230907+1050801244+1051135163+1050996248+1050580870
2944+1050418802+1050833853+1051640542+1052442275+1052976089+1053124461
2935+1052908196+1052518646+1052164574+1051954439+1051997418+1052391600
2927+1052997807+1053446185+1053496990+1053265659+1053056177+1053086765
2918+1053379727+1053773060+1054032695+1054092175+1054149502+1054411420
2910+1054840232+1055266631+1055582616+1055724727+1055664074+1055512310
2901+1055460787+1055542963+1055589985+1055470179+1055316132+1055431830
2893+1055938514+1056590113+1057032230+1057161949+1057115448+1056996816
2884+1056786551+1056496198+1056244128+1056105082+1056020167+1055956579
2876+1056006145+1056192736+1056346978+1056323238+1056207801+1056209562
2867+1056410501+1056672810+1056792356+1056760724+1056785377+1056968641
2859+1057137623+1057138992+1057126275+1057348931+1057739069+1057924550
2850+1057701568+1057325974+1057207341+1057434433+1057730851+1057773374
2842+1057461303+1056989968+1056727528+1056888944+1057311365+1057643980
2833+1057713503+1057649719+1057732090+1058119424+1058628455+1058847915
2825+1058605237+1058195077+1058001769+1058067510+1058219860+1058426603
2816+1058781719+1059252727+1059642800+1059776759+1059641952+1059412513
2808+1059321924+1059424318+1059542624+1059548494+1059539428+1059594277
2799+1059567211+1059354599+1059169508+1059281489+1059594929+1059736062
2791+1059501602+1059041484+1058637194+1058453669+1058500953+1058738870
2782+1059141660+1059634517+1060035416+1060172636+1060059547+1059851108
2774+1059650170+1059457775+1059288728+1059225009+1059319055+1059502449
2765+1059648865+1059709323+1059725562+1059721519+1059693605+1059688714
2757+1059750280+1059813216+1059793324+1059727388+1059708084+1059739649
2748+1059734367+1059615212+1059415643+1059284032+1059316642+1059416165
2740+1059422491+1059322316+1059209096+1059153334+1059198400+1059326685
2731+1059385317+1059216401+1058899177+1058709130+1058811654+1059105203
2723+1059373121+1059503558+1059518167+1059461427+1059368164+1059317555
2714+1059394447+1059592386+1059844195+1060113483+1060372726+1060569100
2706+1060700450+1060818365+1060887562+1060804930+1060633862+1060641492
2697+1060958455+1061336201+1061377680+1060966542+1060390009+1060045786
2689+1060066656+1060259442+1060378466+1060375661+1060363270+1060418314
2680+1060491033+1060489468+1060438858+1060512229+1060819343+1061214633
2672+1061450333+1061488291+1061471725+1061427442+1061217894+1060790713
2663+1060283051+1059863239+1059619386+1059560624+1059614169+1059699801
2655+1059851825+1060113026+1060324660+1060285594+1060073112+1059927675
2646+1059891348+1059843347+1059778455+1059802194+1059959827+1060233159
2638+1060553512+1060731037+1060568447+1060153266+1059836043+1059790390
2629+1059804738+1059656952+1059461296+1059454318+1059636343+1059835390
2621+1059968958+1060087917+1060253116+1060456337+1060626296+1060685971
2612+1060591274+1060331900+1059979589+1059711149+1059625647+1059579538
2604+1059395230+1059181900+1059224162+1059569038+1059955523+1060170092
2595+1060273659+1060410097+1060571578+1060633536+1060540925+1060421967
2587+1060525403+1060968042+1061552074+1061951343+1062050736+1062009583
2578+1062064171+1062336980+1062739901+1063018971+1062952448+1062474787
2570+1061648207+1060686167+1059968306+1059825347+1060231398+1060761103
2561+1060913976+1060565578+1060117461+1060081004+1060522925+1061037174
2553+1061200742+1060905823+1060353487+1059923044+1059972154+1060554425
2544+1061335092+1061892842+1062099715+1062177782+1062428613+1062899360
2536+1063279389+1063210714+1062692422+1062039192+1061552140+1061447464
2527+1061865972+1062609659+1063124821+1063097038+1062812489+1062691052
2519+1062771271+1062844642+1062789076+1062635160+1062517636+1062596224
2510+1062882338+1063191735+1063338216+1063217301+1062728292+1061940060
2502+1061338223+1061472443+1062298501+1063254411+1063969467+1064521217
2493+1065071596+1065604498+1065993461+1066130225+1066014918+1065738978
2485+1065343884+1064794939+1064157036+1063674549+1063595699+1063913118
2476+1064279386+1064279712+1063865444+1063413935+1063308216+1063578938
2468+1063975272+1064260799+1064356214+1064245081+1063906988+1063433044
2459+1063027189+1062774728+1062638160+1062701552+1063090516+1063641287
2451+1063981728+1063914031+1063546329+1063127886+1062794163+1062450983
2442+1062053801+1061888602+1062193695+1062673769+1062823316+1062509158
2434+1061925386+1061365484+1061206612+1061633011+1062292567+1062683487
2425+1062826055+1063125799+1063664049+1064066317+1064047860+1063737289
2417+1063412370+1063252715+1063393000+1063839030+1064255190+1064240907
2408+1063878748+1063622635+1063656157+1063767746+1063834660+1064012838
2400+1064362279+1064616958+1064510195+1064165449+1063951728+1064053599
2391+1064363844+1064686024+1064849201+1064731155+1064327517+1063806029
2383+1063448110+1063487437+1063888792+1064287734+1064286430+1063883183
2374+1063546264+1063754768+1064435324+1065062140+1065420646+1065835176
2366+1066409165+1066688953+1066376164+1065704673+1064994378+1064372649
2357+1063821160+1063255454+1062765206+1062616964+1062812033+1063020015
2349+1062994058+1062768401+1062577050+1062639138+1062882664+1063087907
2340+1063316890+1063752746+1064239211+1064424889+1064241885+1063933858
2332+1063684592+1063359934+1062693726+1061832710+1061404354+1061762274
2323+1062464418+1062877447+1063008602+1063164735+1063147452+1062507592
2315+1061377876+1060524751+1060548882+1061319505+1062270784+1062952840
2306+1063148691+1062804989+1062103367+1061448703+1061228590+1061552596
2298+1062135520+1062435787+1062110541+1061403441+1060937324+1061079240
2289+1061574510+1061867798+1061803231+1061829123+1062320676+1062984666
2281+1063300259+1063222062+1063045841+1062935622+1062917883+1062957079
2272+1062893165+1062706966+1062763249+1063383282+1064329409+1064970638
2264+1064796374+1063759463+1062357785+1061305287+1060941498+1061053739
2255+1061254091+1061336723+1061343245+1061434094+1061627598+1061737817
2247+1061780927+1062233152+1063474262+1065065727+1065998875+1065766305
2238+1064915333+1064357322+1064322430+1064280299+1063795334+1063085364
2230+1062553571+1062202369+1061969474+1062264001+1063358108+1064462716
2221+1064416410+1063312194+1062486396+1062822794+1063865444+1064700633
2213+1065134467+1065718891+1066717714+1067468315+1067175288+1066081963
2204+1065257209+1065430886+1066411578+1067388227+1067630122+1067208810
2196+1067028155+1067761668+1068871102+1069085671+1067842539+1065883699
2187+1064251277+1063162844+1062291132+1061614423+1061350092+1061554553
2179+1062282066+1063594460+1065145359+1066326859+1066824673+1066486188
2170+1064885984+1061842754+1058434951+1056737702+1057884898+1060723929
2162+1063154300+1064623675+1066448166+1069488722+1072561627+1073741823
2153+1072427212+1069869729+1067862366+1067273050+1067925106+1069030040
2145+1069495048+1068852319+1067987455+1067968150+1068448681+1068260069
2136+1067183244+1066213900+1066206857+1066837782+1067082221+1066503601
2128+1065685434+1065290731+1065210773+1064969203+1064514304+1064234907
2119+1064461346+1065144315+1065889177+1066283945+1066253032+1066013223
2111+1065706891+1065305275+1064894137+1064710612+1064761547+1064775374
2102+1064708459+1064891267+1065490430+1066267901+1067021372+1067757886
2094+1068254460+1068005847+1066899413+1065580889+1064811113+1064610436
2085+1064408715+1063951989+1063590025+1063656809+1064081839+1064670633
2077+1065352036+1066110464+1066829499+1067118156+1066460166+1064898832
2068+1063314542+1062637377+1062989623+1063804269+1064576783+1065277296
2060+1065961765+1066233140+1065584606+1064217233+1062888665+1062094628
2051+1062081063+1063202301+1065177642+1066501254+1066008462+1064456129
2043+1063325564+1062892839+1062520897+1062064888+1061875428+1061875102
2034+1061728165+1061859189+1063234454+1065892373+1068394419+1069053649
2026+1067565034+1065235426+1063804008+1064243777+1066194270+1068101783
2017+1068462377+1067548012+1067173396+1068305918+1069994232+1071015098
2009+1071348105+1071305517+1070528828+1069057040+1068097479+1068426442
2000+1069112215+1068769687+1067333639+1065938156+1065677086+1066879195
1992+1068886494+1070368195+1070458197+1069495048+1068440985+1067746407
1983+1066995219+1065695412+1064147253+1063169561+1063124625+1063757702
1975+1064845092+1066300772+1067856040+1069168303+1070064472+1070689984
1966+1071448933+1072294231+1072359776+1071131514+1069588311+1069309697
1958+1070646091+1072372298+1072837241+1071281647+1068399441+1065638737
1949+1063961706+1063460436+1063735919+1064158210+1064232429+1064215015
1941+1064822201+1066105703+1067435901+1068335983+1068595292+1068015825
1932+1066770411+1065661694+1065354123+1065595758+1065663781+1065358884
1924+1065129054+1065215664+1065183512+1064723133+1064420454+1065040813
1915+1066350338+1067541751+1068284004+1068695338+1068847819+1068753839
1907+1068501769+1068104522+1067502620+1066836542+1066453579+1066542602
1898+1066939196+1067304551+1067375509+1067094808+1066632343+1066280358
1890+1066269271+1066601038+1067066829+1067449336+1067641536+1067606644
1881+1067306442+1066757628+1066175552+1065860285+1065888981+1066096572
1873+1066294837+1066320272+1066107333+1065970831+1066320989+1066906196
1864+1067111243+1066823694+1066502688+1066580103+1067048829+1067559882
1856+1067742755+1067511620+1067121548+1066843325+1066676561+1066523754
1847+1066491014+1066776802+1067308008+1067751103+1067990455+1068153893
1839+1068215525+1067968085+1067311008+1066418817+1065620672+1065180707
1830+1065130358+1065275274+1065461212+1065664042+1065800023+1065781110
1822+1065739044+1065918525+1066367816+1066822912+1066945588+1066706692
1813+1066398599+1066281206+1066364229+1066524537+1066668735+1066762584
1805+1066871956+1067141570+1067574882+1067904627+1067866996+1067547947
1796+1067285638+1067337226+1067675058+1068015825+1068132632+1068059783
1788+1067887084+1067683732+1067585643+1067696971+1067920867+1068030695
1779+1067890605+1067576513+1067274159+1067119591+1067170070+1067365270
1771+1067453510+1067248202+1066928761+1066844043+1067103482+1067512272
1762+1067802104+1067860801+1067832496+1067898953+1068018043+1068006695
1754+1067840909+1067668536+1067567252+1067474380+1067353922+1067224984
1745+1067065068+1066871239+1066696844+1066527537+1066278989+1065982896
1737+1065757370+1065621781+1065527083+1065517822+1065646955+1065839611
1728+1065985570+1066015440+1065906656+1065718891+1065614933+1065723065
1720+1066031810+1066458731+1066897522+1067211745+1067359596+1067442749
1711+1067559034+1067693710+1067761538+1067719928+1067610492+1067523555
1703+1067562686+1067814626+1068179328+1068332266+1068169676+1067879518
1694+1067667493+1067611861+1067690319+1067883692+1068219764+1068714512
1686+1069231370+1069480244+1069477113+1069550223+1069681117+1069714705
1677+1069662008+1069581593+1069421417+1069141433+1068848667+1068742230
1669+1068967365+1069401003+1069822250+1070144821+1070287454+1070150300
1660+1069833076+1069546636+1069358285+1069224913+1069101911+1068922103
1652+1068679685+1068513769+1068497725+1068638728+1068880754+1069070867
1643+1069143259+1069160673+1069147824+1069014844+1068664816+1068226481
1635+1068094935+1068374854+1068759187+1069024757+1069174825+1069334154
1626+1069499809+1069389590+1068612184+1067005719+1064484694+1060356291
1618+1053893062+1047202155+1044971483+1048067084+1053522621+1058488691
1609+1061534531+1062722814+1062795793+1062228718+1061197155+1060019437
1601+1059230357+1059175769+1059707431+1060323095+1060475772+1059711019
1592+1057586522+1053808343+1048889752+1044304754+1040962822+1037223187
1584+1029195103+1014324609+995051859+977507141+967454607+968526670+979012452
1574+991696036+1002806351+1013068107+1022805506+1030644847+1036209625
1565+1040684991+1044803219+1048454157+1051593063+1054458638+1056629896
1557+1057447150+1057348801+1056588156+1054910799+1052101377+1048390112
1548+1044537519+1041327263+1039102005+1037961462+1037901656+1038621539
1540+1039584035+1040458030+1041181696+1041479353+1040555793+1037236883
1531+1030788524+1020701554+1005929605+986807836+967705307+954410364+950069218
1521+954867742+965265022+976936674+988454606+998969736+1007239912+1013249545
1511+1017726020+1021062604+1023674348+1026413790+1029632524+1032668189
1503+1035330543+1037826590+1040246265+1042621396+1044878677+1046553622
1494+1046922628+1045203401+1040218482+1031109986+1020100825+1012317506
1486+1010500647+1013728707+1019897017+1026909713+1033015087+1037417147
1477+1040385637+1042494611+1044057510+1045231119+1046205680+1047098393
1469+1047954452+1048842468+1049776529+1050608588+1051152968+1051432625
1460+1051603368+1051744501+1051750762+1051324493+1050223081+1048383786
1452+1045887479+1042940772+1039660406+1036113623+1032826736+1030683196
1443+1030206970+1031185444+1032409728+1031562604+1025919694+1015436195
1435+1005377921+1000425676+1000545809+1003875088+1007944012+1010425580
1426+1011036678+1011589275+1014063213+1018855998+1025010612+1031086964
1418+1035226520+1036481586+1035656897+1033870755+1031939567+1030568281
1409+1030175860+1030777306+1032378749+1035143105+1038827304+1042625179
1401+1045868957+1048315698+1050027556+1051342950+1052594038+1053783169
1392+1054750231+1055496918+1056172061+1056916858+1057760852+1058606933
1384+1059347947+1059922262+1060273855+1060371487+1060213397+1059730910
1375+1058783806+1057414019+1056073060+1055279480+1055125955+1055350046
1367+1055737575+1056301129+1057012468+1057480673+1057015468+1055010453
1358+1051176968+1045667627+1039115766+1032033417+1023803481+1012829342
1350+998611751+983851933+973516806+970973216+975426472+983487818+992384353
1340+1000983687+1008828311+1015635307+1021548352+1026910821+1031788390
1332+1035869836+1038463319+1038341882+1034093868+1025636515+1015698569
1323+1008871094+1008306954+1013473506+1021133170+1028113518+1033194177
1315+1036845832+1039869628+1042556373+1044789393+1046474185+1047716991
1306+1048759119+1049784877+1050689720+1050925094+1049306825+1044107533
1298+1034479571+1022604633+1013394200+1010734586+1014402350+1021168062
1289+1028031864+1033764058+1038324208+1042035407+1045235423+1048031606
1281+1050214146+1051506844+1051819959+1051209056+1049741833+1047539205
1272+1044915135+1042401023+1040598315+1039968303+1040585271+1041903405
1264+1042867336+1042571895+1040928973+1038632300+1036505913+1034863448
1255+1033205591+1030227774+1024282577+1014404045+1001442695+988301016+978619706
1245+974743699+976683952+982700434+990601863+998707231+1006194784+1012950192
1235+1019095350+1024597126+1029277083+1033058849+1036043122+1038365100
1227+1040102915+1041279393+1041760902+1041181630+1039197289+1035874662
1218+1031815978+1028029712+1025692864+1025712038+1028199215+1032352140
1210+1036850071+1040075066+1039685255+1032740191+1018048983+999232176+984014067
1200+978772252+983813128+994362368+1005177047+1013483485+1018706060+1021203411
1190+1021731616+1021416219+1021458220+1022563023+1024723976+1027545594
1181+1030565281+1033346137+1035606679+1037360146+1038790129+1039986956
1173+1040877581+1041357590+1041428483+1041253110+1041116020+1041277697
1164+1041797229+1042492785+1043099123+1043445499+1043524152+1043474782
1156+1043480456+1043603458+1043717069+1043527087+1042604896+1040696926
1147+1038333338+1036877920+1037414799+1039630275+1042135583+1043541631
1139+1042579265+1037919917+1029636894+1020956950+1016663544+1018855737
1130+1025296987+1032202724+1037446561+1040900995+1043147841+1044670565
1122+1045721563+1046422923+1046896476+1047211742+1047203134+1046339313
1113+1043734678+1038649127+1031464906+1023996919+1018470556+1016320429
1105+1017882414+1022460695+1028392979+1033732818+1037420082+1039672080
1096+1041210587+1042449937+1043504195+1044487170+1045418100+1046057243
1088+1046218072+1046152723+1046314791+1046817757+1047373485+1047727230
1079+1047972518+1048393895+1048980406+1049035124+1047483378+1044002661
1071+1039892911+1037324798+1037413691+1039322378+1041413287+1042835118
1062+1043732004+1044448039+1045050072+1045476732+1045807390+1046233268
1054+1046777256+1047240373+1047557597+1047974344+1048678835+1049479459
1045+1049990251+1049983794+1049521916+1048762902+1047558379+1045463949
1037+1042568569+1040097110+1039549339+1041186587+1043830484+1046154614
1028+1047735383+1048815338+1049554460+1049758399+1048946688+1046476990
1020+1042127170+1036995835+1033364528+1032996500+1035645027+1039550904
1011+1043121297+1045741650+1047392789+1048265740+1048792185+1049511546
1003+1050691612+1052152052+1053436597+1054067327+1053407510+1050245451
994+1043545740+1034683183+1027948710+1027050259+1031468558+1037530236
986+1042312912+1045268554+1047025348+1048159825+1048948383+1049465045
977+1049764855+1050009686+1050357431+1050817744+1051273622+1051591889
969+1051694348+1051455256+1050481021+1048108107+1043687786+1036742983
960+1026880038+1014065626+999680880+987278323+981194471+983398338+991852887
950+1002386800+1011828497+1019162199+1024592104+1028493416+1031219358
942+1033235526+1034960428+1036519609+1037889526+1039203811+1040642729
933+1042122343+1043409954+1044486779+1045504711+1046405967+1046869410
925+1046747712+1046339705+1046083395+1046184028+1046670493+1047486443
916+1048336176+1048788728+1048752728+1048591964+1048614986+1048573050
908+1047717774+1045324707+1041250958+1036186081+1031554190+1029008121
899+1029449912+1032277269+1035876423+1038966676+1041241240+1042893097
891+1044101272+1045052550+1045969524+1046888389+1047614076+1048014714
882+1048208805+1048401395+1048670422+1048897122+1048792772+1048127933
874+1047092979+1046284725+1046179658+1046722277+1047499291+1048218131
866+1048928231+1049757159+1050549631+1050962595+1050884593+1050566066
857+1050346149+1050355344+1050450172+1050449324+1050433542+1050633306
849+1051022726+1051290905+1051227122+1050947203+1050770526+1050914529
840+1051257187+1051497518+1051576954+1051669825+1051762892+1051602129
832+1051100989+1050537239+1050281321+1050449651+1050881789+1051409081
823+1051977201+1052514472+1052930436+1053260442+1053563839+1053738429
815+1053641319+1053337269+1053146570+1053427206+1054141219+1054671120
806+1054428572+1053610796+1052987502+1053044894+1053622275+1054205394
798+1054383376+1054152241+1053823018+1053596970+1053379401+1053063090
789+1052758650+1052550342+1052097790+1050516434+1046563013+1039136701
781+1028115083+1014764248+1000892576+987673483+975759283+966185322+960295626
771+958635095+960279777+963383857+966507176+969642756+973907466+980172300
761+988136078+996598584+1004385228+1011064918+1016845243+1021839227+1025860737
751+1029004860+1031789956+1034500245+1036877398+1038601713+1039706972
742+1040287940+1039874128+1037548237+1033256070+1028878728+1027206653
734+1029488065+1034313655+1039100244+1042349109+1044226100+1045372513
725+1045832043+1044894786+1041335546+1034446766+1025909520+1019787906
717+1019203613+1023527541+1029475347+1034262849+1037091641+1037890373
708+1036108927+1032060743+1028507895+1028640549+1032357097+1036499065
700+1038798477+1039789865+1040938365+1042625309+1044314341+1045615778
691+1046690320+1047857472+1049001406+1049553090+1049178018+1048303763
683+1047760166+1047932734+1048397743+1048488071+1048117172+1047783123
674+1047830341+1048083715+1048246436+1048303111+1048519310+1049031015
666+1049460089+1049486698+1049224715+1049136278+1049770529+1051215513
657+1052812064+1053640079+1053488838+1053155570+1053522686+1054569575
649+1055514006+1055628986+1054691990+1052588625+1048376547+1040282527
640+1027789838+1013634596+1002216840+995708937+992673011+990562797+989043791
630+990542384+997300205+1008088993+1018661255+1025703560+1029467195+1032150941
620+1035048016+1038011354+1040531140+1042291064+1043037621+1042721246
612+1041849599+1041282523+1041589051+1042753529+1044259557+1045295489
603+1045352686+1044845612+1044643434+1044845938+1044635934+1043555914
595+1042319369+1042024972+1042926098+1044288123+1045320925+1045861848
586+1046211876+1046706168+1047412420+1048068258+1048389851+1048345503
578+1047924125+1046972912+1045661757+1044735849+1044850699+1045909327
569+1047195047+1047915256+1047686273+1046838170+1046266529+1046574100
561+1047333506+1047739818+1047857211+1048319089+1048997037+1049151213
552+1048745097+1048472679+1048690640+1049162105+1049419001+1048905274
544+1047522770+1046220224+1046103874+1047025804+1047937756+1048345764
535+1048415221+1048058671+1047027761+1045703758+1044959548+1045346556
527+1046721299+1048267762+1048905861+1048203913+1046839279+1046097157
518+1046899150+1048904361+1050622871+1050884137+1049969250+1048978188
510+1048505158+1048398330+1048480897+1048857143+1049620983+1050639437
501+1051483170+1051617455+1050938464+1049897314+1048981841+1048276175
493+1047602858+1046979956+1046840714+1047620011+1048953014+1049203780
484+1045867783+1037197752+1024381122+1012009740+1005486118+1006793556
476+1012087872+1013867948+1006558378+992257177+980060776+977129656+983185008
466+993336805+1003382753+1011938912+1019132068+1025238225+1029937356+1032120223
456+1031740781+1030953592+1031550016+1033037066+1033953518+1034061389
448+1034254893+1034799664+1034788772+1033589206+1032245116+1032631863
439+1035285608+1038762085+1041016301+1041483005+1041313111+1041182413
431+1040458682+1038973850+1038163052+1039912802+1044549715+1049419588
422+1050405106+1045964763+1039223507+1034995124+1033730013+1033537358
414+1034224566+1036206233+1039533361+1044029531+1048604486+1051102945
405+1050321626+1047573901+1045485732+1045782216+1048319937+1051231622
397+1052193074+1050385736+1046606318+1042482415+1039752756+1039234138
388+1040712774+1043474260+1046142549+1047027761+1046150310+1045261184
380+1045272989+1045068594+1042402327+1036805071+1031889218
##END=
