##TITLE=NiW- 13552
##JCAMP-DX=4.24
##DATA TYPE=INFRARED SPECTRUM
##DATE=10/10/2019
##SAMPLING PROCEDURE=Diamant-ATR
##ORIGIN=Fabienne
##XUNITS=1/CM
##YUNITS=TRANSMITTANCE
##RESOLUTION=4
##FIRSTX=3997.453
##LASTX=373.96442
##DELTAX=-1.4165319
##MAXY=1.0006163
##MINY=0.52567685
##XFACTOR=1
##YFACTOR=9.3189656e-010
##NPOINTS=2559
##FIRSTY=0.99913484
##XYDATA=(X++(Y..Y))
3997+1072152083+1072586183+1072989135+1073080471+1073001159+1072901701
3989+1072602237+1071959881+1071261815+1070972842+1071266357+1071889972
3980+1072329829+1072194361+1071620378+1071172718+1071227149+1071604964
3972+1071892147+1071904236+1071804713+1071858824+1072075970+1072197623
3963+1072094518+1071914853+1071764482+1071609185+1071545928+1071730007
3955+1071994164+1071928285+1071397092+1070771238+1070568483+1070855986
3946+1071177835+1071205402+1071063666+1070909712+1070668837+1070382166
3938+1070290126+1070460261+1070732350+1070982628+1071128330+1071014096
3929+1070570913+1069929261+1069327584+1069070270+1069361547+1070027312
3921+1070641078+1070879907+1070667302+1070244778+1070074579+1070334963
3912+1070627135+1070386579+1069556946+1068757823+1068736332+1069699578
3904+1071065329+1071964167+1072126499+1071810853+1071230091+1070552748
3895+1070015480+1069831913+1070099460+1070576158+1070665447+1070181137
3887+1069726953+1069986441+1070734460+1071251646+1071472566+1071605859
3878+1071461181+1070921033+1070242156+1069580995+1068937040+1068648258
3870+1069076474+1069589246+1069313448+1068682221+1068856834+1070027504
3861+1071044286+1071034052+1070078481+1068581611+1067166611+1067182538
3853+1069629733+1072339167+1073080471+1072294523+1070858288+1069356494
3844+1068252726+1067926463+1068537862+1070032749+1072003566+1073371875
3836+1073183575+1071805225+1070361123+1069580740+1069429984+1069632931
3827+1070114363+1070513733+1070073620+1068806944+1068042424+1068715865
3819+1069619564+1069689856+1069519593+1069624105+1069532769+1068879284
3810+1067891605+1067106936+1067090818+1067598345+1067554660+1066928614
3802+1067110326+1068660027+1070029487+1070312065+1070327799+1070782431
3793+1071367990+1071585264+1071321107+1070633531+1069715249+1069037522
3785+1069021468+1069457743+1069779657+1069902269+1070194633+1070711435
3776+1071081766+1071104792+1070848438+1070464163+1070238766+1070512709
3768+1071266613+1072027871+1072227556+1071610848+1070523455+1069700666
3759+1069685891+1070261344+1070534520+1069807544+1068085725+1066327640
3751+1066315680+1068372780+1070302791+1071005334+1071520280+1072650208
3742+1073080471+1071804393+1069673290+1068051954+1067780185+1068593380
3734+1069343766+1069448469+1069270275+1069151244+1069173694+1069517994
3725+1070390672+1071514204+1072279045+1072480392+1072349273+1072052112
3717+1071569914+1070928645+1070378456+1070354918+1070974824+1071524118
3708+1071339208+1070561703+1069588543+1068800420+1068597474+1069012386
3700+1069519977+1069778506+1069939750+1070067352+1069964951+1069600567
3691+1069332253+1069621930+1070425659+1071081383+1071118160+1070501068
3683+1069349458+1067946739+1066592245+1065348788+1064581197+1065428355
3674+1067765346+1069186359+1068696485+1067392712+1066423645+1065922322
3666+1065753786+1066017560+1066619684+1067162454+1067283212+1067010036
3657+1066748885+1066659212+1066239503+1065220675+1064135008+1063656711
3649+1063857163+1064197497+1064241566+1063930206+1063606502+1063792435
3640+1064554589+1065355120+1065749373+1065760118+1065448119+1064705344
3632+1063780666+1063674811+1065302416+1067403457+1067739059+1066492211
3623+1064960227+1063931997+1063766723+1064474575+1065348468+1065575080
3615+1065209801+1064682127+1064156882+1063801134+1064005296+1064760350
3606+1065316232+1065090515+1064300538+1063497065+1063055097+1062956726
3598+1062853686+1062477277+1061999364+1061754075+1061615473+1061181244
3589+1060515990+1060175464+1060368625+1060603041+1060569333+1060410199
3581+1060249722+1060099735+1059955760+1059772065+1059542382+1059385807
3572+1059266392+1058875273+1058157700+1057763575+1058385271+1059418107
3564+1059649133+1058986117+1058114782+1057407250+1056712319+1055893111
3555+1055084074+1054467814+1054144813+1054116734+1054230712+1054326845
3547+1054441718+1054596758+1054479071+1053784651+1052726423+1051812874
3538+1051296968+1051025136+1050699512+1050137746+1049358387+1048590860
3530+1048181640+1048278924+1048581841+1048603716+1048222959+1047789370
3521+1047638487+1047659146+1047508455+1047132687+1046793759+1046567147
3513+1046133239+1045224870+1044085093+1043281620+1043088459+1043243691
3504+1043341551+1043274265+1043218555+1043287504+1043382038+1043324602
3496+1042976848+1042332637+1041638601+1041276648+1041370990+1041595043
3488+1041481066+1040904077+1040167124+1039626593+1039365633+1039284212
3479+1039365889+1039613353+1039778371+1039495857+1038784552+1038098894
3471+1037729266+1037433832+1036857995+1036075117+1035447089+1035061278
3462+1034634661+1034027675+1033544389+1033526800+1033841294+1034001579
3454+1033725526+1033137536+1032491982+1031944671+1031607343+1031550034
3445+1031671943+1031748056+1031632288+1031262532+1030542591+1029513977
3437+1028626012+1028411233+1028765191+1028998135+1028763528+1028461826
3428+1028571902+1029060113+1029550755+1029703620+1029413303+1028891769
3420+1028455621+1028173299+1027934663+1027758259+1027730308+1027810195
3411+1027902682+1027934599+1027818062+1027562988+1027332410+1027181335
3403+1026945000+1026496829+1025875068+1025228043+1024875428+1025098842
3394+1025604259+1025677686+1025100761+1024338863+1023692605+1022948168
3386+1021966437+1020990526+1020265917+1019759413+1019277598+1018652191
3377+1017865668+1017035460+1016209217+1015291767+1014258995+1013241894
3369+1012340881+1011582629+1011042034+1010795721+1010795402+1010929911
3360+1011160361+1011500823+1011899873+1012203622+1012342736+1012544212
3352+1013141284+1014110798+1015063619+1015730216+1016208514+1016723524
3343+1017380719+1018116650+1018733549+1019078681+1019261800+1019515851
3335+1019858360+1020185071+1020639766+1021473493+1022508695+1023150603
3326+1023064384+1022539460+1022052272+1021770526+1021655716+1021746476
3318+1022032252+1022248183+1022145015+1021825979+1021505921+1021102393
3309+1020427929+1019609553+1018942381+1018514996+1018275656+1018220841
3301+1018275400+1018236512+1018008428+1017712866+1017558849+1017710564
3292+1018181122+1018765338+1019201037+1019394582+1019423428+1019398420
3284+1019367015+1019310921+1019287640+1019533760+1020189676+1020979333
3275+1021424115+1021346211+1020983107+1020656140+1020496239+1020513444
3267+1020808494+1021466073+1022237118+1022714584+1022912158+1023220896
3258+1023741535+1024175379+1024405829+1024680156+1025135364+1025533774
3250+1025588716+1025340421+1025088992+1025026247+1025057204+1024998040
3241+1024853170+1024811531+1024991708+1025297568+1025602852+1025949006
3233+1026368524+1026635687+1026467151+1025914915+1025349440+1025108628
3224+1025269681+1025666365+1026039638+1026203122+1026134172+1025953739
3216+1025817887+1025782773+1025821405+1025959368+1026251156+1026625198
3207+1026931633+1027124858+1027294097+1027577059+1028073265+1028714854
3199+1029230568+1029366804+1029117741+1028663365+1028149058+1027657777
3190+1027330747+1027318466+1027587293+1028011415+1028616354+1029428462
3182+1030176289+1030535747+1030562291+1030535811+1030567920+1030621327
3173+1030689892+1030750335+1030743875+1030706011+1030737735+1030833356
3165+1030914650+1030994089+1031094315+1031070522+1030815959+1030538690
3156+1030461233+1030416461+1030179231+1029966178+1030127743+1030595806
3148+1031029523+1031231894+1031132947+1030663221+1029931768+1029349471
3139+1029328300+1029873628+1030587492+1031041164+1031023895+1030492958
3131+1029572693+1028684664+1028392620+1028898740+1029784019+1030406483
3122+1030521740+1030376550+1030272038+1030324805+1030665140+1031449488
3114+1032505605+1033330185+1033643656+1033633358+1033487272+1033041211
3105+1032091972+1030791654+1029546277+1028682362+1028271863+1028164089
3097+1028148035+1028098338+1027951164+1027673511+1027344178+1027106245
3088+1026993035+1026955490+1026965148+1026919480+1026686024+1026402359
3080+1026425385+1026866585+1027459371+1027886948+1028020050+1027885093
3071+1027535804+1027009857+1026444509+1026117542+1026150802+1026256273
3063+1025984249+1025125194+1023763857+1022126594+1020498350+1019162533
3054+1018278342+1017778298+1017494377+1017433103+1017766785+1018505146
3046+1019432766+1020351816+1021108981+1021531313+1021587406+1021383948
3037+1020868426+1019890021+1018623665+1017539917+1016888926+1016482265
3029+1015972115+1015168323+1014128899+1013122288+1012479676+1012322652
3020+1012431257+1012467779+1012254343+1011729930+1010854501+1009746384
3012+1008709519+1007966041+1007510066+1007199218+1006764926+1005834299
3003+1004167551+1001788089+998756038+994902733+989850422+983293120+975309688
2993+966313249+956555550+945868633+934151502+921946544+910163470+899221990
2983+888790147+878416828+868098004+858112222+848691404+840099580+832794258
2973+827362662+824490960+824912716+828962827+836099933+845126114+854911059
2963+864795080+874454215+883636140+892027320+899229921+904902585+909070192
2953+912199656+914732175+916582554+917322898+916772453+915121375+912563527
2944+909117075+904761424+899532454+893638743+887655934+882314266+877823594
2934+873696921+869557712+865852540+863460094+862831426+863766338+865771630
2924+868382053+871317268+874587125+878410944+882936155+888056839+893471806
2914+898831638+903891048+908606478+913027817+917061363+920523869+923491832
2904+926336607+929273613+932099007+934492732+936366649+937832050+939052738
2894+940215605+941444863+942665359+943652463+944256570+944564988+944841042
2884+945218538+945432997+945028767+943849014+942071677+939819881+937143067
2874+934369544+932029738+930350133+929147866+928269240+927918096+928485810
2864+930098320+932396808+934882188+937456537+940407103+943899287+947779327
2854+951835963+955916712+959788054+963198624+966135950+968845448+971586990
2844+974410402+977079669+979233158+980791685+982165239+983834930+985796473
2834+987664250+989224632+990615583+992009284+993365376+994504322+995318604
2825+995901861+996477634+997213053+998139841+999190010+1000206664+1001014358
2815+1001580729+1002034913+1002519158+1003131965+1003939147+1004885444
2806+1005763239+1006392036+1006770618+1007048143+1007429412+1008065116
2798+1008910867+1009724638+1010293375+1010661852+1011094609+1011823632
2789+1012859026+1014025987+1015115939+1015981773+1016575711+1016960306
2781+1017242244+1017476404+1017680630+1017914214+1018259793+1018735596
2772+1019285529+1019854522+1020410532+1020911727+1021355357+1021827131
2764+1022352375+1022734156+1022754623+1022503642+1022267307+1022162796
2755+1022104720+1022027199+1021931962+1021851883+1021935608+1022419598
2747+1023323808+1024262878+1024731581+1024576476+1024065623+1023514219
2738+1023036817+1022686825+1022592355+1022828689+1023273088+1023667149
2730+1023820654+1023775306+1023724521+1023751832+1023788354+1023871759
2721+1024202051+1024829696+1025516697+1026040278+1026436130+1026806142
2713+1027064607+1027108036+1027131957+1027463337+1028099745+1028703085
2704+1029033825+1029150489+1029227754+1029371921+1029572501+1029759586
2696+1029937076+1030173475+1030421962+1030529479+1030467054+1030355571
2687+1030246582+1030042931+1029681810+1029296959+1029108723+1029133859
2679+1029130534+1028923813+1028651277+1028567744+1028758155+1029109427
2670+1029424560+1029540201+1029433131+1029199675+1028933215+1028695985
2662+1028567233+1028608359+1028800945+1029051926+1029241249+1029298366
2653+1029269328+1029245599+1029221358+1029118765+1028959439+1028885884
2645+1028984064+1029193471+1029436265+1029712895+1030000973+1030168038
2636+1030084314+1029784211+1029475345+1029406907+1029669210+1030082907
2628+1030363821+1030392604+1030241913+1030011718+1029817854+1029870302
2619+1030307856+1030938891+1031388662+1031583422+1031837793+1032329074
2611+1032793108+1032969575+1033025029+1033254456+1033645383+1033994096
2602+1034192246+1034226657+1034115877+1033949963+1033857924+1033941201
2594+1034291065+1034923507+1035628673+1036074286+1036128525+1035934212
2585+1035671590+1035444210+1035416324+1035819851+1036691058+1037716922
2577+1038473192+1038785063+1038786343+1038708758+1038741634+1039023316
2568+1039546322+1040067857+1040302016+1040198336+1039936738+1039776132
2560+1039975945+1040634036+1041522256+1042277823+1042721517+1042818545
2551+1042584769+1042256140+1042218659+1042522344+1042773133+1042694910
2543+1042493114+1042492346+1042667662+1042758422+1042698619+1042662482
2534+1042720366+1042749980+1042710772+1042717296+1042807160+1042903421
2526+1043001089+1043173719+1043393999+1043488724+1043298506+1042846880
2517+1042309163+1041857154+1041635914+1041787565+1042271427+1042797247
2509+1043191500+1043599504+1044073004+1044309786+1044134023+1043885152
2500+1043939966+1044112916+1044000537+1043811469+1044246146+1045394302
2492+1046392087+1046526468+1046116609+1045883664+1045939950+1045855458
2483+1045433318+1045026976+1045070981+1045513269+1045918779+1046042798
2475+1046009027+1046002311+1046070429+1046107271+1045906754+1045502587
2466+1045392319+1046002375+1047066040+1047911918+1048156951+1047863756
2458+1047320987+1046871599+1046747836+1046988391+1047523294+1048234663
2449+1048957162+1049543809+1049900517+1049967547+1049738377+1049206289
2441+1048291524+1047042310+1045878547+1045338912+1045564373+1046204746
2432+1046769263+1047013784+1047091624+1047337488+1047818344+1048215347
2424+1048271505+1048164435+1048246048+1048549541+1048762466+1048605635
2415+1048068942+1047335314+1046642557+1046220865+1046245106+1046737346
2407+1047425818+1047807279+1047603181+1047125971+1046932426+1047180401
2398+1047608361+1047970250+1048116080+1047854226+1047187437+1046556082
2390+1046434493+1046756726+1047067575+1047127122+1047051649+1046972593
2381+1046879659+1046766576+1046676712+1046646586+1046777002+1047221080
2373+1047922983+1048561694+1048980124+1049408340+1050028886+1050614125
2364+1050817647+1050525539+1049718421+1048475347+1047391279+1047361218
2356+1048497094+1049885934+1050718573+1050939045+1050714415+1050112482
2347+1049386529+1049039543+1049344316+1050053830+1050921072+1051817991
2339+1052257208+1051821061+1050947807+1050486140+1050724073+1051385873
2330+1052159157+1052752199+1052848460+1052439112+1051944377+1051772323
2322+1051945145+1052292451+1052721370+1053080509+1053085626+1052587693
2313+1051733243+1050816432+1050135892+1049941132+1050321569+1051139049
2305+1052118925+1052926939+1053194487+1052704293+1051696978+1050871694
2296+1050836644+1051490385+1052147900+1052396450+1052518615+1052879353
2288+1053271239+1053205744+1052636367+1052108308+1052198620+1052898477
2279+1053656922+1054114048+1054486298+1055030603+1055552329+1055762760
2271+1055724959+1055717348+1055990779+1056701381+1057776814+1058923500
2262+1059904143+1060541127+1060491749+1059546220+1058219550+1057605592
2254+1058438806+1060383976+1062224249+1062794266+1061883148+1060242815
2245+1058801463+1058102118+1058262915+1058873802+1058957847+1057680874
2237+1055287021+1053037911+1052227850+1053295736+1055608615+1057938059
2228+1059273044+1059323829+1058615082+1058329882+1059417211+1061348373
2220+1062525440+1062252584+1061299315+1060462327+1059886554+1059634038
2211+1059541423+1058873866+1057419275+1056374223+1056866272+1058049606
2203+1058034000+1056744491+1056379787+1058196780+1060212689+1059743794
2194+1057357809+1056167374+1057425031+1058859475+1057915609+1055103006
2186+1053043859+1053187195+1054706323+1056059665+1056343010+1055479862
2177+1054253802+1053668690+1053701950+1053794053+1054542840+1056918272
2169+1059918918+1061444442+1061765396+1063477621+1067153180+1069719086
2160+1068758079+1066315168+1065850750+1067326321+1068339329+1067615743
2152+1065566893+1063077803+1060666426+1058556814+1057178335+1057022399
2143+1057948549+1059262555+1060405274+1061035222+1060981431+1060650627
2135+1060671670+1060808866+1060204950+1058693561+1056975196+1055779198
2126+1055419355+1055721761+1056038430+1055765318+1055009176+1054404301
2118+1054360872+1054819725+1055484339+1055941466+1055904304+1055684536
2109+1055988668+1056920126+1057741252+1057955520+1057946438+1058165887
2101+1058360711+1058027796+1057164072+1056295168+1056053844+1056749799
2092+1058054467+1059165974+1059549674+1059411263+1059166422+1058788479
2084+1058145611+1057563250+1057472490+1057916121+1058780036+1059924483
2075+1060890927+1061155212+1060722263+1060026436+1059633846+1060271853
2067+1062281750+1064757536+1066087021+1065538559+1063787446+1062156003
2058+1061710134+1062583836+1063877439+1064507962+1064166285+1063195043
2050+1061913593+1060640841+1060055474+1060705314+1062209666+1063664258
2041+1064784400+1066063227+1067956589+1070354023+1072488068+1073080471
2033+1071433422+1068703328+1067211256+1067770591+1069031254+1069840419
2024+1070674274+1072005805+1073113602+1073499540+1073677607+1073741823
2016+1072950183+1071243395+1069404592+1067686739+1065872753+1064416115
2007+1064245660+1065463917+1067052250+1067997076+1068235776+1068333252
1999+1068568883+1068772406+1068876086+1068975608+1068972922+1068904228
1990+1069387579+1070770854+1072202228+1072470031+1071396389+1069798206
1982+1068615574+1068597090+1069973266+1071738578+1072169672+1070733373
1973+1068558458+1067179340+1067547816+1069435997+1071340679+1071927005
1965+1071615006+1071696300+1072362385+1072598208+1071801451+1070793944
1956+1070683228+1071171695+1071029319+1070152995+1069736739+1070112700
1948+1070007485+1068553980+1066767497+1066182706+1066736285+1066999291
1939+1066333717+1065397973+1064747686+1064220011+1063663554+1063338379
1931+1063398566+1063587313+1063577527+1063389100+1063458753+1064161424
1922+1065225856+1066101476+1066746518+1067279886+1067279630+1066364482
1914+1065009477+1064025699+1063654728+1063461055+1063006104+1062377051
1905+1061932973+1061781003+1061717234+1061583492+1061474248+1061554582
1897+1061808889+1062034926+1062085903+1062113790+1062460968+1063248898
1888+1064128932+1064641000+1064732783+1064720247+1064891022+1065241078
1880+1065595420+1065888039+1066181363+1066470784+1066672260+1066830882
1871+1067196545+1068017735+1069180346+1070121270+1070340911+1069809207
1863+1068889198+1068107791+1067767905+1067697676+1067577878+1067421174
1854+1067445735+1067639216+1067811654+1067949937+1068214669+1068750915
1846+1069700154+1071051193+1072311281+1072960225+1072991693+1072554523
1837+1071717471+1070688089+1069853531+1069509615+1069732198+1070320572
1829+1070856561+1071194017+1071579124+1072023010+1072077952+1071479281
1820+1070519297+1069665871+1069162501+1069004327+1069110182+1069353296
1812+1069484991+1069252878+1068662202+1067945587+1067324402+1066955605
1803+1066950105+1067280269+1067709765+1067946419+1067895570+1067698252
1795+1067587728+1067767585+1068297754+1068994925+1069618348+1070111293
1786+1070507272+1070756079+1070786460+1070707469+1070712970+1070776483
1778+1070669860+1070327479+1070075027+1070490195+1071682612+1072769238
1769+1073080471+1072936623+1072646370+1072165642+1071596137+1071301471
1761+1071374386+1071589358+1071908329+1072247192+1072201332+1071677431
1752+1071229196+1071419350+1072022818+1072354774+1072308914+1072209072
1744+1072222184+1072350744+1072571408+1072694405+1072489667+1072188093
1735+1072369549+1073021755+1073080471+1072237022+1071195360+1070437747
1727+1069919027+1069497399+1069134295+1068757567+1068322507+1068029056
1718+1068171880+1068523727+1068380711+1067685843+1066888063+1066218204
1710+1065640896+1065090067+1064595844+1064137119+1063506787+1062646645
1701+1061906941+1061589313+1061226400+1060288674+1058915313+1057386719
1693+1055792437+1054171932+1052586989+1051067030+1049645762+1048435500
1684+1047394029+1046033588+1044137860+1042065154+1040206843+1038824143
1676+1037943534+1037212337+1036256766+1035177175+1034253136+1033336134
1667+1031980873+1030188697+1028359617+1026909247+1025880760+1024782621
1659+1023152522+1020983874+1018570898+1016237040+1014080225+1011735047
1650+1008952761+1005879136+1002915394+1000536061+998494759+996203947+993616038
1640+990981117+988523752+986523769+985461447+985374845+985457738+985402348
1630+985677570+986778843+988612977+990645772+992708373+994787028+996213924
1621+996364999+995565300+994638256+994314039+994711938+995509015+996575494
1611+997925957+999458645+1000871726+1001816296+1002182598+1002174347+1002043739
1601+1001810219+1001342348+1000628420+999845606+999206320+998778872+998446596
1591+998048890+997510469+996807862+995935056+994985625+994135206+993454857
1581+992836422+992147183+991315951+990154619+988250768+985419745+981688413
1571+976761465+970324664+962828868+954893982+946674408+938710101+931810865
1561+926188474+922178210+921312823+923362440+926777167+931435672+937306486
1551+944021451+951069140+957643968+963326993+968658299+974293226+980500601
1541+988103019+997029997+1003845253+1007287036+1009412766+1012159553+1015908794
1531+1019367463+1021737970+1023407149+1024630395+1024896087+1022720404
1523+1014818522+997641077+972966044+946724425+924675806+913944628+918376201
1513+933721495+952403102+969183352+983701956+998862980+1012886209+1020952662
1503+1024747187+1027294353+1029820604+1032558821+1035192589+1036955151
1494+1037527215+1037418162+1037194620+1036941655+1036087526+1034006888
1486+1030819093+1026807293+1021721340+1015108775+1006859843+996910967+984862648
1476+970226165+952042236+929048088+903757243+882422168+867327407+857043633
1466+850784003+848614460+849344698+850862163+852028100+852539465+851924612
1456+849406420+845257297+840317749+834827821+828771329+822179360+815067455
1446+807572043+799967450+792269986+784376738+776315595+767377743+755335885
1436+738520584+719054693+699347863+678463326+655258300+631501741+610489859
1426+593478647+580034645+570266777+564827058+564093558+568399384+577034382
1417+587447293+598036031+608795415+619344114+628261306+633990384+635856433
1407+634270531+630612050+627106946+626083193+629481291+638856952+654563560
1397+675951978+702507835+731810800+758848472+780702139+797839161+810648675
1387+817646922+817642316+812101219+804331224+797960047+795606234+797561572
1377+801864712+805386254+804759184+797762920+784016768+763988600+739581179
1367+715406638+696546901+685748756+683165069+686271186+691275398+696035408
1357+700336757+704575489+709157241+714398747+720450569+727185874+734169154
1347+740942068+747345993+753454612+759480211+765883176+773128439+781048166
1337+788868242+796076472+802737774+809047294+814978486+820349640+825112337
1327+829502719+833888048+838488860+843271385+848118574+852986613+857716498
1317+861873232+865184600+868012169+871039679+874629530+878755500+883446816
1307+889021620+895857280+903967417+912783296+921453152+929430188+936691633
1298+943400010+949547134+954985062+959634421+963554693+966851861+969555410
1288+971575158+972777744+973117055+972705789+971781622+970595793+969304813
1278+967923072+966338513+964402298+962058015+959356000+956292992+952669881
1268+948095229+942042127+933942159+923369092+910181188+894520439+876755708
1258+857379938+836801580+815215204+792744381+769715119+746701590+724267800
1248+702739564+682256125+662983715+645317738+629968286+617776824+609336522
1238+604760015+603718417+605533426+609214549+613605443+617769021+621426799
1228+625129860+630086486+637768151+649336126+665105543+684473318+706288865
1218+729187648+751770018+772817527+791418798+806854597+818510965+826093940
1208+830005705+831559947+832761894+835559146+840976351+848847852+858300458
1198+868347706+878066260+886567837+893099043+897099394+898083428+895650367
1188+889761516+881047079+870996697+861835815+855678266+853207469+853148178
1179+853217895+851584150+847478776+840855658+831843868+820526555+807116644
1169+792299855+777283638+763243075+750464839+737970843+724043746+707177981
1159+686770654+663419222+638971186+616207231+598073384+586832759+583610809
1149+588375361+600101318+617045563+637224358+658897081+680694719+701484594
1139+720288301+736155706+747899572+754173081+754206789+748644329+739710635
1129+730549241+724065941+721875355+724001469+729491909+737337953+746890146
1119+757654712+769107621+780948963+793330324+806437510+819735618+831815597
1109+841130560+846851131+849039350+848257624+845220648+840722300+835759918
1099+831786687+830725005+834258380+842768143+854998238+868791976+882161784
1089+893947864+903876017+912184625+919181273+925031747+929779285+933456443
1079+936224593+938417033+940366296+942169089+943652910+944611808+945074562
1069+945307571+945550813+945854753+946200716+946652726+947325015+948286791
1060+949519567+950914291+952290531+953426599+954055459+953852576+952500386
1050+949813466+945800323+940489292+933554558+924120117+910990801+893056254
1040+869695803+841501148+811239607+783973595+765499157+759878301+767679701
1030+785784191+808519043+829713661+845244633+854855925+861635171+869034707
1020+877762703+885337939+888537311+886016688+878745330+868861629+858822441
1010+851133739+847874436+850056579+857406289+868620754+881833666+895129216
1000+907014243+916707725+924169430+929870429+934411822+938182490+941266285
990+943656748+945504122+947087594+948616955+950160580+951711880+953259854
980+954815439+956324845+957560371+958293359+958567239+958580990+958398958
970+958051652+957729675+957589217+957560115+957535938+957506836+957427205
960+957216135+956915265+956616825+956241440+955599020+954675109+953631720
950+952453822+950875723+948842352+946765552+945072707+943779936+942711603
941+941799013+940944564+939934434+938702937+937457497+936407200+935524160
931+934648092+933728211+932883612+932281807+932030250+932137895+932445098
921+932530293+931709871+929086784+923717869+915144976+904109282+892654326
911+883246876+877599156+876097298+878004474+882049981+887048117+892293908
901+897569696+902884820+908238513+913528437+918538853+922982322+926550171
891+928916777+929770586+928917928+926310063+922058667+916648370+911112198
881+906701028+904258566+903946822+905398279+907939369+910844651+913704968
871+916567588+919584480+922646081+925515673+928176305+930753724+933106898
861+934739108+935217086+934504501+932735095+929795211+925421395+919736962
851+913497672+907746336+903238075+900032562+897571615+895291932+893098020
841+891051665+888848799+885980295+882339978+878458786+875080325+872454551
832+870119158+867558496+864897225+862699283+861420775+861319909+862407367
822+864133279+865535103+866020564+865828299+865613903+865747645+866157056
812+866833120+868183839+870478425+873054309+874603818+874243400+871750537
802+866768391+858539735+846854073+832952561+819184918+807981391+801349382
792+800884516+807506419+820881088+839336018+860602144+882593582+903492702
782+921642220+936007319+946687968+954474913+959978465+963627992+966151300
772+968204051+969591484+969451347+967054744+962042281+954254952+943827843
762+931167805+916503371+899767254+881252904+862293198+845241563+832824703
752+827185875+828969799+836863942+847954707+858879110+867032165+871030405
742+870630971+866751954+861563343+858112990+859315001+866675393+879468468
732+894991701+909796657+921202555+928180654+930888425+929645415+924984992
722+918549150+913062036+910923642+912675394+916719046+920697842+923641116
713+926887819+932534771+941233665+951874020+962690777+971971202+978208190
703+980436256+978654762+974048897+968916444+965875566+966507433+970534007
693+976314381+982112727+986906061+990274801+992083094+992551478+992230076
683+991539046+990511519+988975122+986727483+983657631+979991794+976370794
673+973456302+971335114+969401201+966874823+963864134+961129372+958633374
663+956301115+954830470+955054012+957009926+960183906+964121895+968267180
653+971737745+973966964+975507838+977603123+980640994+983160210+982791477
643+978630649+972691206+968472558+967873183+969847902+972155408+973793566
633+975205496+976682410+977840160+978751791+980288444+982816166+985574402
623+987869691+989907091+991986002+993810158+994920258+995137148+994472981
613+993070582+991088763+988313386+984311884+979408666+975096955+973127737
603+974428119+978729404+984533507+989631549+992502164+993057342+991751651
594+988970709+985735774+983642536+983322030+984139062+985689595+988254030
584+991551006+994377360+996061187+997408644+999594689+1002640492+1005540081
574+1007556054+1008606543+1008428413+1006306009+1001865801+995319692+986549033
564+974917993+960805091+946842625+936859849+933465973+936632981+944218770
554+953561428+962526782+969491194+973349744+974035082+972495231+969893314
544+967189061+965178268+964144281+963548233+962465956+960142780+956051861
534+949960319+942248528+934072639+927053541+922395867+920070133+919009858
524+918259537+917780344+918388417+921399042+927415750+934727531+940617661
514+944829529+949433284+955429908+961592446+966498990+969997826+972703742
504+975309048+978337326+981820491+985402028+988907004+992291350+995228548
494+997430647+999221159+1001109339+1002862499+1003666355+1002720314+998681012
484+989555884+975163666+958852375+944630932+933962499+926540961+922173413
475+920926053+923037008+929309686+940251551+954694745+970132335+984482787
465+997217466+1008008000+1015501685+1019215812+1021274767+1024478233+1029274445
455+1034107370+1037778452+1040081928+1041452347+1042367815+1043065881
446+1044310554+1047283250+1051551915+1054832261+1056155158+1056898124
438+1057760696+1057687589+1056386120+1055215321+1054380572+1051823875
429+1046536894+1041112269+1039016920+1040753066+1044168881+1047704558
421+1051533622+1055409058+1057245366+1055751119+1051885469+1047692086
412+1045815610+1047511909+1051270233+1055227346+1058665419+1060023174
404+1057734281+1054339509+1055706602+1064233443+1073080471+1073017469
395+1067238183+1065203917+1067967462+1069190580+1064720567+1057332800
387+1051306690+1046474468+1040908043+1036663875+1037631982+1044670332
378+1055328212+1065307277+1070895321+1073080471
##END=
