##TITLE=X8810
##JCAMP-DX=5.0
##DATA TYPE=LINK
##BLOCKS=1


$$ === CHEMSPECTRA SPECTRUM ORIG ===
##TITLE=X8810
##JCAMP-DX=5.00
##DATA TYPE=INFRARED SPECTRUM
##DATA CLASS=XYDATA
##ORIGIN=ComPlat
##OWNER=
##XUNITS=1/CM
##YUNITS=TRANSMITTANCE
##XFACTOR=1
##YFACTOR=9.3507779e-010
##FIRSTX=3997.453
##LASTX=373.96442
##MAXX=3997.453
##MAXY=1.004032130881411
##MINX=373.96442
##MINY=0.3398447617650678
##NPOINTS=2559
##XYDATA= (X++(Y..Y))
2559I45571200I44582993I44315527I44925675I45887939I46351988I45981131I45296787
2551I45069416I45557878I46410887I47032954I46982406I46303543I45574260I45391254
2543I45806539I46455124I47011346I47224502I46936129I46452320I46439890I47125573
2535I47962008I48207036I47606641I46623661I46167452I46871111I48332737I49274476
2527I48739800I47063742I45603646I45381756I46047360I46589622I46661652I46664138
2519I46882840I47155213I47334331I47448941I47474438I47302268I46888640I46355813
2511I45991840I46014788I46302524I46529321I46633158I46832801I47044747I46819734
2503I46084586I45542516I45835543I46761282I47801440I48679436I49163691I48866521
2495I47571901I45721570I44450153I44537608I45267784I45325471I44475204I43584459
2487I43421532I44141063I45430711I46568714I46938105I46705634I46354283I46175038
2479I46253760I46278174I45648138I44499043I44128569I45175866I46759816I47686320
2471I47594084I46941611I46224757I45826746I45824451I45782763I45342363I44839622
2463I44828850I45133477I45202702I44818141I44030214I42859255I41795895I41879271
2455I42955125I44269441I45448113I46325662I46731259I46530468I45821137I44953658
2447I44407509I44523521I45039456I45399158I45477817I45531425I45811129I46310619
2439I46738143I46842809I46803480I46854219I46505545I45082738I43341280I42603965
2431I43253187I44771800I46157700I46792325I46734701I46490502I46735657I47780915
2423I49100458I49736868I49011600I47589367I47182623I47998915I48827256I48834650
2415I48351414I48157954I48676503I49810427I50978007I51430455I50863398I49733234
2407I48734318I48204040I48158528I48428734I48770779I49088665I49413755I49700471
2399I49801312I49601605I49080379I48405277I48101860I48685874I49947793I51059598
2391I51270205I50505353I49380162I48476988I48062404I48233426I48568140I48077192
2383I46770142I45765043I46044938I47706017I49400687I49949259I49354856I48174655
2375I47350076I47611486I48404193I48705634I48382967I47712773I46968064I46554117
2367I46870091I47845550I48874935I49365374I49307623I49295193I49805647I50616011
2359I50968191I50046850I47906233I46382139I47030596I49106322I50888130I51095040
2351I49552396I47725394I47641381I49400624I51387174I52225266I51645141I50242668
2343I49010772I48817758I49308069I49124871I48234637I47768421I48470486I50184025
2335I51923762I52343573I50463984I46860211I44593319I45449133I47717363I49449833
2327I50120792I50534994I51310236I52373724I53522882I54491712I54775942I53924718
2319I52163181I50695435I50648329I51608680I52179053I50911587I47722653I45616203
2311I46683962I49417707I51827191I53015615I53067821I52570562I52124680I52070371
2303I52321263I52384560I51694287I50012365I48204168I48382903I50665858I52824896
2295I53489098I52689188I51228454I50146162I50124553I50862888I51398966I51043790
2287I50080251I49402153I49320945I49495473I49812276I50322666I50648711I50427459
2279I50063232I50384433I51484254I52617413I53066546I52699004I51993943I51517082
2271I51346697I51089239I50526643I50091151I50210159I50823686I51615565I52246110
2263I52468063I52156551I51427013I50801949I50849374I51449833I51806730I51260198
2255I50102816I49405404I49674782I50583885I51683451I52628441I53163563I53136153
2247I52600967I52008923I52007138I52668662I53230876I53029448I52290029I51861230
2239I52244772I53040411I53469083I53162798I52484573I52121620I52266572I52479919
2231I52448877I52292515I52144121I52078020I52379652I53179052I53865437I53597780
2223I52454040I51464048I51484445I52444160I53483234I53602943I52467681I50866903
2215I50234701I51342044I53502484I55275304I55546276I54163945I52301057I51643867
2207I52694542I54349437I55130863I54619198I53595230I53004843I53186765I53875954
2199I54508986I54594210I54053925I53292196I52943267I53421722I54485656I55253695
2191I54921467I53675674I52735401I53134879I54612823I55940653I56136790I55234381
2183I54075215I53562721I53974310I54769504I55190845I55092298I54903746I54949386
2175I55227242I55600011I55747130I55342107I54628440I54236357I54231959I54172168
2167I53993560I53968573I54150559I54468573I54871875I55084458I54806602I54248405
2159I53950980I54173443I54791750I55562594I56185235I56293598I55681602I54636153
2151I53885580I53927013I54432749I54539328I53719019I52341278I51372640I51518930
2143I52638703I53856577I54094338I52712071I50184981I48125509I48003696I49682623
2135I51538117I52098290I51341024I50401898I50389086I51576554I53388512I54806092
2127I55011217I54138066I53309853I53554499I54822028I56233297I56979154I56871365
2119I56370918I56223481I56773647I57562848I57824258I57315781I56497130I56047869
2111I56347652I57244962I58211943I58817565I59038052I59050227I58939442I58754523
2103I58598226I58474309I58227943I57795638I57416176I57442884I57900367I58305199
2095I58113333I57347525I56593891I56396543I56823876I57513894I57940972I57753249
2087I57089047I56549144I56634496I57122894I57203083I56469656I55637810I55876974
2079I57440398I59291877I60103452I59406869I57887300I56780531I56841660I57701298
2071I58314314I58122193I57596122I57580059I58354982I59461879I60153682I59881181
2063I58693776I57386918I57018292I58033272I59845102I61222333I61210413I60009431
2055I58890360I58951425I60082098I61331652I61891698I61491519I60394375I59389021
2047I59335158I60325278I61489735I61834265I61233552I60547996I60765041I62012363
2039I63396351I63850137I63142718I62006053I61383029I61720484I62759112I63690206
2031I63757710I63073047I62574130I62894056I63630224I64005288I63802075I63363077
2023I63079612I63116009I63348416I63471058I63328975I63148327I63304625I63865818
2015I64447728I64582799I64218062I63723225I63373722I63054561I62647753I62419362
2007I62616583I62906040I62766762I62383857I62539263I63495344I64519120I64700979
1999I63870089I62681792I62127738I62813166I64359189I65644885I65863332I65213536
1991I64547740I64568138I65266506I65998849I66190971I65874423I65396924I64941991
1983I64590193I64488842I64684469I65026195I65369069I65679688I65929242I66047931
1975I66008156I65843189I65533781I64968317I64164390I63449831I63181155I63336496
1967I63609444I63815971I64019630I64361037I64880415I65428158I65774793I65949512
1959I66304178I66978579I67477240I67138319I65927521I64499359I63637172I63813676
1951I64894375I65997256I66079293I64958181I63410502I62215257I61549079I61173888
1943I60705505I59855428I58815270I58191354I58267081I58607468I58643929I58343317
1935I58034483I57896925I57947920I58189123I58357723I57845740I56249871I53797423
1927I51013194I48240055I45582037I42996749I40309791I37371941I34328405I31623663
1919I29634117I28326302I27319673I26309028I25446203I25341792I26675295I29678291
1911I33889917I38447667I42599821I45926822I48297615I49900369I51219657I52670447
1903I54186192I55338410I55850585I55828912I55511727I54947219I53876528I51765424
1895I47927332I41768294I33328278I24004146I16465837I13062536I14079236I17893999
1887I22667519I27407001I31838732I36022757I39979985I43368689I45742605I47164010
1879I48186957I49245983I50350458I51285695I51873660I52102051I52105302I51971888
1871I51606959I50947028I50276580I50075917I50508477I51283782I52064252I52774667
1863I53531551I54534993I55912351I57395204I58361102I58472078I58042578I57614671
1855I57474182I57585860I57631627I57191609I56197028I55039455I54044555I53069733
1847I51637683I49176248I45250573I39958631I34124682I28995667I25760201I25121751
1839I26898459I29988145I32994838I35039968I36012749I36189062I35702576I34310366
1831I31585481I27395272I22309347I17526775I14204619I12692189I12416118I12489168
1823I12299405I11597531I10375960I08877299I07547876I06805270I06893490I07906302
1815I09650820I11503510I12785381I13330193I13409425I13208762I12648971I11573308
1807I09991845I08350910I07418031I07494331I07956978I07994013I07557182I07227695
1799I07412804I08009502I08704428I09353778I10065086I11031557I12345555I13910636
1791I15486872I16914269I18324136I20002616I22064829I24366333I26587840I28281172
1783I29096445I29146866I28969086I29044877I29532829I30391256I31476735I32564254
1775I33561067I34703214I36291880I38196329I39846443I40799337I41143613I41300676
1767I41589049I42050931I42541688I42874681I42984383I43015107I43098483I43007139
1759I42289903I40871622I39249427I37954169I37025880I36102946I34782255I32744456
1751I29676315I25338031I19906811I14177209I09169433I05536402I03494778I03126981
1743I04433011I07173449I10871626I14868119I18365442I20790798I22314128I23739421
1735I25660953I27892531I29846827I31273586I32483747I33961500I35863655I37839304
1727I39311002I39989929I40117096I40206464I40635964I41462009I42467810I43370155
1719I44092427I44838794I45839941I47062149I48219275I49029576I49487123I49930901
1711I50769568I52017655I53153492I53585541I53288244I52855366I52872130I53362250
1703I53936574I54291304I54393229I54389277I54563231I55195243I56218764I57169745
1695I57630926I57590832I57354791I57317884I57770204I58640487I59468509I59851030
1687I59858679I59918343I60415920I61428860I62647626I63549207I63812401I63579931
1679I63327636I63548442I64405211I65492348I66139913I66173951I66103197I66373212
1671I66826424I67091404I67085157I66954994I66842424I66808513I66788689I66635769
1663I66298441I65857021I65395458I65024602I64946134I65254331I65739415I66067883
1655I66084201I65886470I65765805I66022689I66614798I67065971I66998977I66667641
1647I66692883I67321070I68132646I68471503I68110909I67525685I67427584I67971185
1639I68572217I68582735I67938421I67107085I66605874I66539262I66430071I65621746
1631I64080504I62661331I62292259I62986420I63915219I64371109I64371045I64354472
1623I64622830I65185616I65907506I66601858I67069158I67239670I67288242I67477240
1615I67855746I68222842I68404828I68455504I68548250I68782569I69165027I69689759
1607I70326488I70963089I71456332I71736291I71818392I71810169I71958945I72475009
1599I73171273I73571069I73567117I73627864I74084200I74562719I74486482I73928795
1591I73582607I73879266I74435233I74515294I73842614I72810424I72125633I72331778
1583I73307301I74107339I73756752I72410756I71345610I71582479I72773899I73626972
1575I73331332I72434596I72184022I73069348I74372191I75197726I75409480I75345355
1567I75244067I75319348I75841530I76723223I77465638I77795125I77886278I77818391
1559I77403361I76691670I76059850I75685615I75407632I75082351I74702698
1552I74300034I74043851I74224243I74915791I75867665I76812272I77661711
1545I78397433I78991517I79378182I79367601I78825020I78166810I78233741
1538I79249039I80352940I80674077I80398516I80291555I80679559I81341211
1531I81928475I82211048I82240879I82286328I82390994I82243429I81620405
1524I80678220I79860206I79649727I79977621I79838725I78323172I76117984
1517I74973032I75537030I76692053I77136150I76718634I76122127I75979215
1510I76454483I77217104I77745916I77901767I78169551I79086175I80410308
1503I81142014I80695813I79910372I80257198I81985270I83797610I84571068
1496I84628500I84975389I85946896I87065777I87839871I88263507I88575593
1489I88813354I88829672I88604405I88218441I87623974I86795315I85975007
1482I85385767I84903232I84457095I84507643I85489923I86794232I87143671
1475I86361289I85890547I86921462I88820493I90148961I90446003I90238838
1468I90004583I89816286I89504456I88776829I87576422I86368237I85785945
1461I86169423I87424458I88859058I89436314I88873974I88131432I88181470
1454I88794614I89063482I88560103I87599497I86899089I87108676I88118428
1447I88851855I88321577I86866134I85858676I86213597I87515356I88504392
1440I88228640I86974879I86076167I86438163I87540789I88426179I89023706
1433I89668785I90141184I90179685I90176370I90502734I90884873I90955246
1426I90690904I90199254I89790088I90056980I91117535I92099560I92062844
1419I91119065I90202951I90103703I90950975I92220990I93174075I93680003
1412I94401574I95739603I97134363I97847137I97652147I96490495I94500312
1405I92440266I91107528I90527849I90362436I90425733I90363456I89737372
1398I88897941I88877735I90064629I91684529I92568198I92259108I91711110
1391I92182234I93231125I93367918I92330309I91466209I91974241I93376969
1384I94155908I93778996I93274470I93374802I93394307I92770518I92216273
1377I92510064I93205118I93396602I93088213I92968568I93329098I93679366
1370I93304493I92125758I90861416I90297099I90750440I92108930I93846054
1363I95202058I95850197I96168338I96674648I97608674I98940138A000212256
1356A000685420A000241960I99770007A000156736A001277784A002240685A002324125
1349A001720989A001474431A002329288A003783202A004903548A005559527A005949124
1342A005837829A005296970A004988263A004875629A004124737A002802707A002080627
1335A002523194A003489984A004062587A003811057A003168337A003105295A003800285
1328A004451929A004922862A006014206A007619127A008411962A007910177A007315710
1321A007824570A009099494A009948678A010086936A010355740A011117150A011812714
1314A012601724A014487560A016793845A016857269A013853955A010792890A011112688
1307A014820044A018852170A020030713A017438223A013190646A010924136A012276189
1300A015069725A015773639A013453840A010944152A011876839A016380918A020404885
1293A020331772A017425410A015758978A016793144A018711361A020197593A021732205
1286A023516626A024765606A025091842A024797732A024045183A023220603A023388694
1279A024911896A026544290A026962954A026387100A026165465A027270641A028929680
1272A028785366A025683122A022182294A022347325A026545437A030685735A031454794
1265A030007956A029764139A032169735A034872438A033553340A026935417A019680063
1258A017843628A022123013A027204093A027610327A023296904A018952947A018242723
1251A020181466A021717353A021896980A021852169A022287852A023025040A024047350
1244A025284665A026139203A026295692A026140159A025897490A025308760A024415912
1237A023910366A024520578A026256108A028152334A028963400A028541102A028132765
1230A028684333A029443639A029192428A028143155A027425919A027339611A027262227
1223A026748586A025712062A024009742A021749543A019635635A018410941A018189689
1216A018592672A019375563A020803533A023327118A026734563A029829922A031414891
1209A031499605A031139967A031280330A032222578A033873649A035804233A037262799
1202A037788424A037693383A037563093A037533452A037272297A036444212A035160237
1195A034091076A033946252A034771596A036024082A037160683A037807101A037839355
1188A037832980A038715948A040278990A040953645A040004959A038941025A039354207
1181A040410746A040412404A039641751A039906221A041779053A043397041A042456450
1174A039331642A037563348A039823992A044156220A046521276A045892069A044437837
1167A043731756A043220537A042049451A040259803A038161129A036260569A035730992
1160A037186818A038969836A038512608A035827244A034440388A037419161A042704155
1153A045192936A043876771A042952307A045206896A048387607A049089991A047306398
1146A045855353A046940131A050120077A052671071A052159279A049406156A047868356
1139A049489787A052296517A053060158A051380977A049557673A049091584A048860898
1132A046837760A042980098A039882700A039867593A041935479A043362301A043768854
1125A044939558A047128492A049007762A050316405A051446696A051832723A051120013
1118A050313027A050103376A049848851A049113894A048445931A048245715A048437262
1111A048982265A049580302A049785554A050062836A051065385A052040143A052152586
1104A052198034A053168203A054492081A055351081A056236917A057760566A059255657
1097A059575328A058594196A057531920A057801106A059340882A060673365A060690065
1090A059861598A059446121A059974168A060978311A061484239A060705682A058942679
1083A057642067A057953324A059334571A060145318A059767896A059448926A060556906
1076A062784214A064721936A065751003A066440511A067219323A067871605A068326092
1069A068792754A069059519A068713968A067932033A067272548A066810603A065997816
1062A064450328A062834507A062568380A064128999A066212566A067172981A067121668
1055A067698542A069430885A071298300A072206507A071544985A069313216A066484812
1048A064782938A065217347A066924830A068114210A068013433A067272229A066714223
1041A066539759A066780962A067697204A069073670A069963777A069891744A069384544
1034A069458165A070670173A072422343A073479839A073204342A072283636A072007886
1027A072597637A073356303A073741823A073475247A072639197A071773567A071270253
1020A070830681A069921831A068423236A066498326A064360195A062236661A060149334
1013A057924258A055588651A053441915A051858157A051245396A051870587A053427382
1006A055151374A056545816A057760438A059308436A061307098A063102227A064172854
999A064568762A064472701A064134162A063841582A063642768A063304739A062432352
992A060598786A057644745A053830747A049848468A046702880A044597067A042408005
985A039503875A036539954A034054360A031504131A028048752A023703202A019219712
978A015204478A011957856A009216781A005979402A001085089I94324508I87927582
971I84894563I85102238I86091401I85745532I83029635I77907185I71731319
964I66423441I62305581I58149730I53014086I47529895I41892848I34564828
957I24240887I10400884H91916376H67926514H40784499H13673972G84994348
950G48967390G04979889F63420104F31193120F07434709E91687707E84347958
943E84352037E88904178E94151564E97081829E96701347E92099104E83415971
936E74596365E67674515E62088017E60119570E63584319E71619186E83037019
929E96157492F09637602F25761389F48568117F73632622F93268392G08484415
922G21763161G33582703G43839267G52152499G58215986G63126363G69231665
915G77852840G87561660G96925886H05733764H13344102H18888403H22945835
908H26741856H30712662H34888719H39623420H45369467H51094033H55984395
901H60831921H66300750H71765754H75986432H79141199H81915166H84447993
894H86286277H86220048H82847853H77622204H73645343H69838357H61975342
887H45294761H18463301G86180796G53910148G24199609F98789554F76822830
880F51774963F14496538E65116318E19587003D86500221D61106803D39786274
873D23268874D13167110D09555369D11433174D17856044D27711824D39353459
866D51724059D65149446D80325056D97077604E14073203E29587161E42888376
859E54839038E67064495E80639519E95360131F10043071F23679288F36208162
852F48235315F60700064F74119299F86438140F95109161G00980463G05706113
845G09176090G09796691G06810588G01436226F96502838F94826398F98247165
838G09710128G28580600G44213629G54617822G63683158G72849717G82305988
831G91915242H00900516H08787881H16308915H24263593H32520476H41645284
824H52749566H63066176H70559737H77172497H85219284H94621755I02669052
817I08179696I12473359I17111299I22344151I27296343I31896419I37337137
810I44009434I50890871I57235783I62129842I63941353I61603771I55411969
803I46400305I34465452I17238530H95001600H71017985H43465210H09746130
796G70451451G29446676F94736647F77241176F79870000F96580604G23647531
789G60943102H03854621H42754348H73647829H98203665I18048894I32819545
782I40327448I38128315I24484831H96934223H49366216G76935897F97816581
775F44737674F24079530F24575387F38544215F59736525F76654039F80754242
768F70875610F44294597E96515727E43986987E14080980E06306567E11218888
761E24270072E42973983E63986984E82486089E95675213F05827111F17639832
754F33776559F54275090F78707392G04383127G25044968G38647975G48383695
747G56580915G62672704G64570332G60426593G49480074G34205344G20616361
740G13917356G15904735G24339015G34193743G42892620G50876364G59203620
733G68473570G78000086G85420534G87509710G82613612G73368840G62969810
726G48206681G22889690F90440944F67446429F68960006F94625225G30902311
719G66281449G97969423H26210495H49645984H66573187H77236495H82215268
712H80841798H72478847H58213805H39962469H18632283G94953934G70608641
705G45184116G14931507F78293827F40145184F07019742E81535872E64426492
698E57254450E60806910E73945422E94386138F19086670F44870961F69617961
691F92784327G14560395G34749072G52825179G68633947G82465983G94876613
684H06578486H17882411H28296420H37438757H45913896H54679703H64215717
677H74332939H84380617H93619971I01406240I07082934I09850081I08644956
670I01985217H87998605H64983947H32724390G94149880G56364061G29368144
663G20849405G30736515G52163526G77150902H00627314H20821600H37711577
656H51867363H64285388H76058971H87558077H98205959I07316489I14923066
649I21569801I27570693I32865822I37455189I41529258I45237888I48729410
642I52372895I56640360I61803095I67851985I74542703I81454610I88269690
635I95045378A001877542A008261019A013309909A016766372A019309462A021657307
628A023746929A025023191A025360710A025509423A026438986A028091396A028990490
621A027325460A022077947A012492851I96141247I67473161I19593386H51067197
614G73599653G10538532F82952610F95004878G32615084G75099908H07327530
607H23277872H22333264H04505692G69429014G19497162F62801160F11439744
600E76195613E62522808E70193765E94796133F29325769F65651491F95265077
593G08831431F96927621F55415707E92862617E30820747D92594241D89245950
586E15487532E56857905E99599422F36693310F68806258G00734097G35664485
579G70885541G96875147H00825682G75865270G31202285F90899001F77385490
572F95404100G32967392G74987656H13234528H45909625H72991404H94029711
565I08681863I17341857I20788312I19674404I14386477I04673577H88663062
558H62305531H21002757G63472615F94596859F23665520E59302066E06527022
551D68218033D47035827D44267597D57641288D81639659E10039707E38274723
544E64505915E89322778F14214412F39849352F65496468F89626628G10788277
537G28162828G41503533G50363616G53185964G47093983G28736707F96128985
530F50740223E98211100E46586234E03059627D71659708D53243023D46902126
523D51133321D64082293D83182335E04863745E24824986E38820044E43853764
516E39723155E29694854E18563991E09325881E02504553D98727941E00155593
509E08476633E22730456E39985967E57522872E73965884E89079025F03169028
502F16508203F28965239F40209691F50252334F59499783F68288665F76674755
495F84595458F91958728F98779546G05438647G12538532G20386121G28806314
488G37376366G45651862G53286805G59965348G64760223G64925763G55332764
481G30733073F91084175F45248319F07399076E87946759E87684520F00100824
474F17752211F36012471F52801862F67385618F80012338F91392627G01691708
467G10443810G17522213G23482500G28889371G33960762G38861259G43749262
460G48531388G52994097G57159574G61208974G65161421G68910656G72461905
453G75912312G79368456G82974142G86682390G89862336G91323006G89785015
446G84733193G77648671G72201578G71813065G76594553G83596974G90095444
439G95428628G99478857H01136302G99875338G98079634G99636748H05839195
432H14210050H21559106H26697683H30172440H32952654H35690988H38458007
425H41083772H43758427H46852894H50364367H54091547H58082431H62552599
418H67636611H73288829H79155669H84732606H89883421H94834147H99303805
411I01689450H98702135H85059352H54462148H04072176G40366804F79213638
404F37132244F21128868F26778026F44714599F67416661F90827227G12767305
397G32014434G48463374G62737276G75265448G86107492G95433855H03601115
390H10833330H17246383H23151406H29027552H35115134H41189267H46846010
383H51802218H55659178H57546098H56101427H49287812H34124823H07851051
376G70798850G28310521F89075825F60810721F46876570F46129247F54956184
369F69277956F85718099G02166657G17618656G31441576G43115338G52745181
362G61175126G69180607G76863039G83952278G90304648G96035270H01429137
355H06653065H11446027H15371575H18395542H20844292H23004542H25234462
348H27997529H31190606H33958135H35703482H36728214H37514675H38035136
341H38158160H38238477H38890950H40340083H42242683H44185505H46201122
334H48645984H51633936H54726427H57232355H58861753H59814455H59652293
327H56553747H49376734H40682446H35629285H36624950H39778379H36572809
320H18267419G80303757G25252579F61653149E98434072E40032818D86830856
313D39124558C99835521C73621444C63440096C67888655C81873737C99514192
306D16821909D33138774D50493278D70787067D93486037E16350453E37846944
299E58168780E78124667E97807288F16708101F34465429F50841638F65585963
292F78915385F91477086G03457006G14374521G23905626G32396637G40518258
285G48609728G56435836G63604180G69913460G75083207G78298658G77477648
278G68776349G49504106G24279925G05982056G06056954G24035853G49176275
271G70513027G81576768G77898288G57970639G29286044G07219881G03055106
264G15181634G33797325G50958593G64381271G75074729G84477456G93179010
257H00837729H06944753H11615010H15579377H19544828H23653509H27523919
250H30781632H33533352H36357995H39769455H43515694H46547501H48091548
243H48601300H49268243H50821086H53051708H55254537H56819300H57642732
236H58311523H59614940H61635720H63692068H65266902H66533284H68000137
229H69977445H72314836H74685055H77148275H79901334H82414720H83503514
222H81866020H76037617H65580964H53872016H47544505H50672820H60888397
215H72789275H83275696H91842179H98059287I01514220I03161721I05454620
208I10006634I15003191I18630740I21046025I23271548I26482855I31134499
201I34346444I25878890H91666631H31094036G69042731G38006848G45815618
194G69721721G81671809G69875916G39148166G03767434F81063396F82562184
187G07127964G44097044G82233767H15198704H41293678H59835554H66974067
180H55577332H23345503G82659506G56129423G57578493G81325685H11418427
173H36096712H52610989H63584725H72013587H78790931H83436902H86124625
166H88168034H90904775H94800937H98987257I01583572I01697290I00999241
159I02197609I06262052I11777605I16211885I17654134I16457614I15213415
152I16122645I18820567I21429822I22956147I23773779I24565275I26049339
145I28782192I31995412I33826046I33702194I33075218I33387367I34793091
138I36700727I38470806I39804883I41021418I42702575I44954997I47283528
131I49116521I50255162I50786906I50875636I50968765I51574195I51855684
124I49188232I41501084I29628507I16118247I02078027H86590586H69947677
117H56482865H51811333H56980124H67572486H78631000H88338100H97184287
110I06176063I15770210I24220936I27778367I24186961I13850399H97392217
103H73466672H39739942G96264043G47288208G00697190F66695728F53714088
96F62207330F83407608G06716567G29504108G56241101G86751933H12125655
89H27070069H37477704H51756705H70673837H87891389H97805972I01129977
82I03593707I09926062I19658341I28406363I33209078I35642466I37990184
75I38293154I31710544I15852502H90715012H53103849G98204316G30685011
68F67424055F27396651F20158381F40076851F72341571G03197126G26032666
61G44198140G65903134G90961711H10130117H19474328H23829631H29001226
54H35884512H42696979H49251734H56675305H65494911H75188816H84367167
47H90696718H92891962H94068913H98039272I01636925H99232030H93395213
40H92610282H98973042I04373475H98034873H74946274H38144328G94646055
33G55253786G33850487G32489511G42724785G59340731G80977202H08031953
26H38627882H64501413H79059098H87629724H98341987I09508355I16342048
19I21051826I27038821I29362381I24481899I20429822I23364294I31765172
12I42351351I47246111I34295832I02567318H74102508H66410834H66750520
5H55345435H19219292G47852589F57789240F18285676
##END=


$$ === CHEMSPECTRA PEAK TABLE EDIT ===
##TITLE=X8810
##JCAMP-DX=5.00
##DATA TYPE=INFRAREDPEAKTABLE
##DATA CLASS=PEAKTABLE
##$CSTHRESHOLD=0.93
##MAXX=3997.453
##MAXY=1.004032130881411
##MINX=373.96442
##MINY=0.3398447617650678
##$CSSOLVENTNAME=- - -
##$CSSOLVENTVALUE=0
##$CSSOLVENTX=0
##NPOINTS=48
##PEAKTABLE= (XY..XY)
393.7958664894445, 0.8606734838058533
416.46037676309606, 0.6849346731440606
429.2091637920248, 0.8346600498238367
466.03899298670785, 0.5798963283554579
509.9514816419073, 0.6112735246989055
536.8655875918685, 0.796509858758594
623.2740330101637, 0.7070398298128151
640.2724157154025, 0.6368472551815748
650.1881389601249, 0.6900938124327058
681.3518405863952, 0.7925200426620439
747.9288395152462, 0.6574112147666957
762.0941584362781, 0.6601481407041362
811.6727746598904, 0.3398447617650678
831.5042211493351, 0.7813783850770801
898.0812200781857, 0.6041811083391241
943.4102406254883, 0.5808038091946417
988.739261172791, 0.7462665404047288
1000.0715163096165, 0.7217052551133263
1046.8170687490224, 0.5495307421788107
1096.3956849726346, 0.46634942088153036
1114.8105995699761, 0.4178882523263815
1150.2238968725565, 0.4154247627713706
1184.2206622830336, 0.633408126967267
1204.0521087724783, 0.4574830216924505
1221.0504914777166, 0.5260025841292343
1239.4654060750586, 0.6386138172335318
1311.708532572322, 0.6740502685502149
1361.2871487959342, 0.5210762595736654
1396.700446098514, 0.6241143317727118
1420.7814882642688, 0.6675682634911232
1453.3617217826427, 0.4734360257328469
1468.9435725957778, 0.5835629076966387
1495.8576785457385, 0.633273182151081
1562.4346774745895, 0.6497167326755003
1606.3471661297885, 0.38296612932715446
1694.1721434401875, 0.5237553696513503
1709.7539942533226, 0.5464107971576527
1804.6616310242557, 0.9850501377715678
2096.4672007975137, 0.9520865641909072
2507.26144950744, 0.9144142231234549
2684.327936020339, 0.9029314482256212
2842.9795079358873, 0.8444939814828519
2922.305293893667, 0.8483284680673939
2947.8028679515246, 0.8479334678319532
2978.966569577795, 0.8650608024060102
3049.7931641829555, 0.8537844982946754
3083.789929593432, 0.8652665578579996
3396.8434777482457, 0.8897621595451214
##END=


$$ === CHEMSPECTRA PEAK TABLE AUTO ===
##TITLE=X8810
##JCAMP-DX=5.00
##DATA TYPE=INFRAREDPEAKTABLE
##DATA CLASS=PEAKTABLE
##$CSTHRESHOLD=0.93
##MAXX=3997.453
##MAXY=1.004032130881411
##MINX=373.96442
##MINY=0.3398447617650678
##NPOINTS=182
##PEAKTABLE= (XY..XY)
3994.6199362157936, 0.8830084760498452
3986.1207448631744, 0.8837134209098706
3976.205021618452, 0.8840143644756486
3966.2892983737293, 0.8849949207090431
3957.79010702111, 0.884740169986091
3947.8743837763877, 0.8840054831067992
3929.459469179046, 0.8845759591052336
3916.7106821501175, 0.8841558062123196
3903.9618951211883, 0.8831343618324018
3895.462703768569, 0.8821725211809742
3885.5469805238467, 0.8847472634862059
3878.4643210633308, 0.8828336557763824
3861.465938358092, 0.8834884729862414
3852.966747005473, 0.880652424127672
3838.801428084441, 0.883094486375125
3824.636109163409, 0.8853349056427091
3817.553449702893, 0.8814080324374373
3809.054258350274, 0.8850422468661505
3799.138535105551, 0.8856894338412431
3792.055875645035, 0.8866014441972416
3779.3070886161063, 0.886601980931893
3765.1417696950743, 0.8865489919436893
3753.809514558249, 0.8865120975144071
3746.7268550977324, 0.8843638862676949
3736.81113185301, 0.8858460154224119
3726.8954086082877, 0.8851017318397614
3718.3962172556685, 0.8876648511280634
3709.8970259030493, 0.8849409190315928
3699.981302658327, 0.8861184082580279
3690.065579413604, 0.8872184122633947
3684.3994518451914, 0.8862372005404695
3674.483728600469, 0.8832682331792849
3654.6522821110243, 0.8889301385485129
3647.5696226505083, 0.8842247092894313
3636.2373675136823, 0.89025985843916
3629.1547080531664, 0.8866446578822287
3617.822452916341, 0.8884403672439778
3609.3232615637216, 0.8876889312513114
3600.8240702111025, 0.8883830273388172
3585.2422193979673, 0.8884091337756362
3573.9099642611413, 0.8890737851986126
3565.410772908522, 0.8877679069863771
3552.6619858795934, 0.890200730665265
3545.5793264190775, 0.8900642953350816
3537.0801350664583, 0.8903077802408197
3528.5809437138387, 0.8902670108491757
3520.0817523612195, 0.8896928992682939
3510.166029116497, 0.8885433641923907
3500.250305871775, 0.8898610440214139
3491.7511145191556, 0.8911336624517369
3481.8353912744333, 0.8910760841017399
3473.336199921814, 0.8908817132218437
3463.4204766770913, 0.8916553217790665
3456.3378172165753, 0.8929092844724013
3440.75596640344, 0.8920348249702936
3430.840243158718, 0.8920183741467341
3419.507988021892, 0.8919572200592681
3411.0087966692727, 0.8896074256776655
3399.676541532447, 0.8864572009675118
3391.177350179828, 0.8886877261769999
3382.678158827209, 0.8914188705284648
3372.7624355824864, 0.8941433393595869
3364.2632442298673, 0.8939791284787294
3345.8483296325253, 0.8952586019643309
3335.932606387803, 0.8943051657920799
3327.4334150351838, 0.8944478595979117
3320.350755574668, 0.8935956914152399
3310.435032329945, 0.8946642244425064
3301.935840977326, 0.8954118453177895
3292.0201177326035, 0.8948865494729346
3283.5209263799843, 0.8966370786811043
3272.1886712431588, 0.8970529994119407
3265.106011782643, 0.8981870972886088
3255.1902885379204, 0.8989679181008259
3246.691097185301, 0.9000816901915726
3238.1919058326816, 0.9005543551830174
3231.1092463721657, 0.9006186090533572
3216.9439274511337, 0.8999369700721699
3211.277799882721, 0.8999037701352359
3201.362076637998, 0.899664278946739
3192.862885285379, 0.9019271690686945
3180.1140982564502, 0.9018720948570191
3161.6991836591087, 0.9006493057870474
3139.034673385457, 0.9010757171556097
3120.6197587881156, 0.8959834536954275
3112.1205674354965, 0.8957081396767956
3083.789929593432, 0.8652665578579996
3049.7931641829555, 0.8537844982946754
3018.6294625566848, 0.8883948888005834
3000.2145479593432, 0.8953128420866177
2978.966569577795, 0.8650608024060102
2957.718591196247, 0.8531800471798191
2947.8028679515246, 0.8479334678319532
2929.387953354183, 0.8485064470336314
2922.305293893667, 0.8483284680673939
2895.391187943706, 0.8686583599151999
2842.9795079358873, 0.8444939814828519
2789.1512960359655, 0.890993889828921
2780.6521046833464, 0.8924282159368577
2769.3198495465203, 0.8951666912981963
2750.904934949179, 0.9007862769168044
2742.4057435965597, 0.9033816423626946
2722.574297107115, 0.9022996984497638
2714.075105754496, 0.9030661545969708
2706.99244629398, 0.9039094414107933
2697.076723049257, 0.9046200472317593
2680.0783403440187, 0.8998181188798275
2672.9956808835027, 0.9017464484543768
2641.831979257232, 0.9087181051280464
2634.749319796716, 0.9103609881810314
2626.250128444097, 0.9103754725359985
2617.7509370914777, 0.909013088507991
2609.2517457388585, 0.9082837063250018
2600.7525543862394, 0.9090676867650713
2592.25336303362, 0.9119290668809719
2569.5888527599686, 0.9108067715561692
2554.007001946833, 0.9146620589461498
2545.507810594214, 0.9166488608050634
2528.5094278889756, 0.9160487016972633
2521.4267684284596, 0.9116756280721592
2512.9275770758404, 0.9126164874481347
2498.7622581548085, 0.9162924250478378
2469.015088420641, 0.92054396474242
2460.515897068022, 0.921884353870651
2443.517514362783, 0.9217865428636615
2435.018323010164, 0.9239797556640952
2426.5191316575447, 0.9228274190951332
2418.0199403049255, 0.921854552006406
2409.5207489523063, 0.9220579230100309
2398.188493815481, 0.9258919317698222
2389.6893024628616, 0.9255307280509454
2379.7735792181393, 0.9258239824720563
2358.525600836591, 0.9260659179538964
2351.442941376075, 0.9246776070240056
2344.360281915559, 0.9273270330572468
2337.2776224550425, 0.927098031571398
2330.1949629945266, 0.9287888962710212
2324.528835426114, 0.9277993997588766
2317.446175965598, 0.9285028541049046
2308.9469846129787, 0.9260048227763311
1748.0003553401093, 0.9209530313530557
1709.7539942533226, 0.5464107971576527
1694.1721434401875, 0.5237553696513503
1606.3471661297885, 0.38296612932715446
1562.4346774745895, 0.6497167326755003
1495.8576785457385, 0.633273182151081
1468.9435725957778, 0.5835629076966387
1453.3617217826427, 0.4734360257328469
1420.7814882642688, 0.6675682634911232
1396.700446098514, 0.6241143317727118
1361.2871487959342, 0.5210762595736654
1311.708532572322, 0.6740502685502149
1239.4654060750586, 0.6386138172335318
1221.0504914777166, 0.5260025841292343
1204.0521087724783, 0.4574830216924505
1184.2206622830336, 0.633408126967267
1150.2238968725565, 0.4154247627713706
1114.8105995699761, 0.4178882523263815
1096.3956849726346, 0.46634942088153036
1046.8170687490224, 0.5495307421788107
1000.0715163096165, 0.7217052551133263
988.739261172791, 0.7462665404047288
943.4102406254883, 0.5808038091946417
898.0812200781857, 0.6041811083391241
831.5042211493351, 0.7813783850770801
811.6727746598904, 0.3398447617650678
762.0941584362781, 0.6601481407041362
747.9288395152462, 0.6574112147666957
681.3518405863952, 0.7925200426620439
650.1881389601249, 0.6900938124327058
640.2724157154025, 0.6368472551815748
623.2740330101637, 0.7070398298128151
599.1929908444095, 0.8425043790659573
589.2772675996871, 0.8557957374765528
572.2788848944483, 0.8724979127512081
536.8655875918685, 0.796509858758594
509.9514816419073, 0.6112735246989055
466.03899298670785, 0.5798963283554579
429.2091637920248, 0.8346600498238367
416.46037676309606, 0.6849346731440606
393.7958664894445, 0.8606734838058533
382.46361135261895, 0.8101615278887768
##END=

##END=

