##TITLE=JPK071
##JCAMP-DX=4.24
##DATA TYPE=INFRARED SPECTRUM
##DATE=11/3/2019
##SAMPLING PROCEDURE=Diamant-ATR
##ORIGIN=Angelika Moesle
##XUNITS=1/CM
##YUNITS=TRANSMITTANCE
##RESOLUTION=4
##FIRSTX=3997.453
##LASTX=373.96442
##DELTAX=-1.4165319
##MAXY=0.86681539
##MINY=0.51380336
##XFACTOR=1
##YFACTOR=8.0728474e-010
##NPOINTS=2559
##FIRSTY=0.85782015
##XYDATA=(X++(Y..Y))
3997+1062599243+1062631287+1063075469+1063246836+1062963685+1062750823
3989+1062952315+1063242259+1063235835+1063054131+1063037518+1063273416
3980+1063615413+1063925957+1064101164+1063992628+1063535747+1062970551
3972+1062721585+1062975498+1063500159+1063927507+1064126193+1064270316
3963+1064546084+1064861058+1064958223+1064797118+1064578718+1064428320
3955+1064298963+1064174702+1064158458+1064244917+1064110688+1063430312
3946+1062506951+1062118513+1062601236+1063453570+1063972250+1063942791
3938+1063536928+1063085362+1063010126+1063470478+1064053689+1064257174
3929+1064231923+1064455269+1064895759+1065093338+1064944711+1064880328
3921+1065100131+1065261604+1065066167+1064712505+1064589941+1064805904
3912+1065176548+1065453719+1065552730+1065598211+1065675884+1065665621
3904+1065466714+1065187180+1064836914+1064255549+1063652551+1063624790
3895+1064450470+1065758208+1066769063+1066884391+1066381658+1065973728
3887+1065769431+1065350426+1064640296+1064074953+1063808192+1063633576
3878+1063587947+1063894725+1064413848+1064698033+1064545050+1064195449
3870+1063998313+1064202980+1064833739+1065570302+1065935630+1065817275
3861+1065700397+1066090828+1067095628+1068482369+1069583152+1069145098
3853+1066747577+1064737091+1064638302+1065526371+1066352937+1066719594
3844+1066723803+1066741449+1067135351+1067845186+1068250088+1067774084
3836+1066770465+1066100205+1066034346+1066182456+1066160084+1066061886
3827+1066143102+1066350205+1066450471+1066369993+1066202981+1066228602
3819+1066774674+1067701506+1068426920+1068591421+1068474247+1068348435
3810+1068101536+1067623611+1067051107+1066657648+1066631068+1066978824
3802+1067504666+1067810484+1067618738+1066926033+1065888820+1065064395
3793+1065136309+1066015370+1066807530+1066825841+1066368737+1066198920
3785+1066592527+1067274157+1067910750+1068239309+1068064397+1067544314
3776+1067127155+1067053100+1067258726+1067512049+1067423966+1066723064
3768+1065840902+1065748832+1066951874+1068895688+1070455495+1070852497
3759+1070059895+1068903146+1068430390+1068821412+1069366894+1069250606
3751+1068503337+1068219078+1068839870+1069618666+1069821634+1069412597
3742+1069068680+1069110765+1069259909+1069240638+1068964280+1068404105
3734+1067553986+1066729562+1066529842+1067204828+1068351683+1069247948
3725+1069510205+1069476167+1069658905+1070113055+1070613351+1070947152
3717+1070981632+1070857001+1070990418+1071558050+1072031175+1071835738
3708+1071308862+1070971000+1070787228+1070494479+1070069050+1069843120
3700+1070093415+1070636682+1071138824+1071507696+1071792471+1071915921
3691+1071692279+1071084482+1070379889+1069936150+1069866377+1070156543
3683+1070739754+1071497876+1072369702+1073281693+1073741823+1072891852
3674+1071086476+1070148274+1070605672+1071217309+1070659644+1069229268
3666+1068071781+1067590755+1067584332+1067851092+1068314102+1068748612
3657+1068805242+1068531985+1068468414+1068816391+1069123686+1068761976
3649+1067640888+1066665179+1066498094+1066735838+1066866227+1067006585
3640+1067591051+1068461917+1068775414+1068047932+1066749940+1065716049
3632+1065332042+1065455343+1065789145+1066247503+1066970923+1067860912
3623+1068511016+1068544463+1068034569+1067573995+1067658682+1068154179
3615+1068612316+1068617632+1068004961+1067095702+1066320303+1065698256
3606+1065143988+1064923152+1065265591+1065937624+1066524083+1066908756
3598+1067207560+1067406467+1067353824+1066989603+1066434302+1065800736
3589+1065010644+1064035526+1063352861+1063503924+1064192496+1064739454
3581+1064950101+1065096291+1065273861+1065170642+1064542540+1063622649
3572+1063023268+1063268691+1064274598+1065182676+1065022605+1063933857
3564+1062909639+1062497943+1062688507+1063165324+1063373682+1063029544
3555+1062523785+1062348209+1062367849+1062153067+1061774154+1061649227
3547+1061827609+1061880991+1061460066+1060695963+1059975496+1059536113
3538+1059333957+1059258794+1059379512+1059772159+1060177874+1060207924
3530+1059906757+1059723281+1059799329+1059697144+1059046154+1058048516
3521+1057198250+1056824726+1056966265+1057383202+1057636821+1057429718
3513+1056902768+1056417977+1056117992+1055916500+1055800951+1055809442
3504+1055798145+1055609944+1055379362+1055284043+1055126408+1054587941
3496+1053798144+1053273852+1053239667+1053321844+1053060917+1052500742
3488+1052102336+1052165686+1052527543+1052797626+1052752219+1052492916
3479+1052214637+1051861196+1051209247+1050329078+1049676980+1049568076
3471+1049793859+1049994464+1050146857+1050395602+1050607282+1050546222
3462+1050376183+1050450460+1050649441+1050502143+1049911697+1049247269
3454+1048807665+1048614221+1048602629+1048644050+1048530937+1048223273
3445+1047973273+1047981025+1048069109+1047883860+1047374483+1046905050
3437+1046837418+1047119093+1047347682+1047176536+1046628691+1046067852
3428+1045857500+1046020008+1046273700+1046404090+1046461089+1046508564
3420+1046379134+1045940785+1045518383+1045638436+1046262698+1046669299
3411+1046288023+1045299688+1044244829+1043442555+1042985156+1042884226
3403+1042995714+1043121527+1043303157+1043714410+1044231761+1044457617
3394+1044206436+1043633636+1042940266+1042295847+1041928968+1041896112
3386+1041867022+1041488625+1040832689+1040217877+1039802416+1039567257
3377+1039433544+1039162871+1038434946+1037325598+1036482198+1036442845
3369+1036937825+1037260846+1037163608+1036952887+1036914346+1037109414
3360+1037520740+1037992979+1038262471+1038245194+1038022586+1037601662
3352+1037046729+1036645666+1036587928+1036705176+1036759517+1036721345
3343+1036668923+1036666930+1036763430+1036972084+1037288165+1037683765
3335+1038003390+1038071021+1038025097+1038200082+1038572646+1038768231
3326+1038730576+1038881122+1039461970+1040174537+1040600999+1040650689
3318+1040523253+1040449493+1040453997+1040281522+1039694398+1038867758
3309+1038302415+1038336674+1038886660+1039577815+1039998075+1039943143
3301+1039555960+1039138358+1038789126+1038394190+1038004349+1037990100
3292+1038623665+1039618423+1040355429+1040544812+1040384446+1040112000
3284+1039789422+1039555960+1039675570+1040197056+1040808914+1041102845
3275+1040872854+1040251767+1039644634+1039387767+1039450674+1039576264
3267+1039613772+1039597381+1039654823+1039928007+1040414274+1040847012
3258+1040940855+1040787650+1040839555+1041455253+1042478732+1043287504
3250+1043353659+1042788169+1042210643+1042075823+1042297767+1042535584
3241+1042609344+1042506863+1042169813+1041527905+1040762842+1040341032
3233+1040624921+1041500956+1042446615+1042954589+1042911397+1042610451
3224+1042410584+1042427049+1042608606+1042960274+1043467510+1043881199
3216+1043868574+1043377581+1042667303+1041995935+1041493868+1041301827
3207+1041542745+1042075306+1042464335+1042349745+1041810982+1041270817
3199+1041053820+1041144783+1041369827+1041632822+1041887031+1042044222
3190+1042041564+1041893676+1041619754+1041261735+1040971865+1040885258
3182+1040893232+1040730208+1040296879+1039760479+1039368718+1039288683
3173+1039557658+1040007378+1040261513+1039968689+1039085198+1037894338
3165+1036764316+1035925125+1035424091+1035134220+1034747628+1033929332
3156+1032628386+1031175195+1029966984+1029094715+1028327881+1027428884
3148+1026432058+1025540076+1024756777+1023824998+1022617525+1021362061
3139+1020343380+1019601797+1019029292+1018544575+1018064214+1017492448
3131+1016878522+1016447778+1016343894+1016416251+1016366783+1015987426
3122+1015202872+1014069675+1012849872+1011925034+1011547523+1011665140
3114+1011895131+1011752633+1011110872+1010321518+1009718520+1009274633
3105+1008902808+1008697846+1008681381+1008684482+1008639296+1008689282
3097+1008880289+1008950283+1008574101+1007718519+1006615225+1005471471
3088+1004390622+1003472798+1002767467+1002168161+1001504619+1000723313
3080+999977226+999540501+999508088+999569074+999254027+998360716+997010523
3070+995430929+993799209+992157226+990494570+989006382+988019893+987480466
3060+986865728+985876950+984916081+984583757+984945467+985586341+986210087
3050+986863218+987639651+988424722+988971902+989138840+989032446+988899767
3040+988873482+988922360+989024767+989214297+989471755+989731353+989942369
3030+990039165+989976185+989867355+989962378+990432550+991217178+992096240
3020+992892903+993567667+994089153+994354880+994374298+994365881+994472718
3010+994535107+994346094+993993465+993741767+993658187+993532449+993159811
3000+992598234+992105321+991860711+991813384+991842474+991986006+992360785
2990+992859899+993116619+992859161+992182330+991375773+990603991+989901244
2980+989349856+988995603+988617575+987864621+986627172+985063674+983322902
2970+981466507+979552817+977589954+975497513+973235476+970875241+968515966
2961+966262125+964303692+962851535+961891109+961131879+960352124+959659714
2951+959250676+959119105+959165841+959324436+959415325+959166211+958490856
2941+957519872+956331448+954822070+952809591+950190348+947057741+943656454
2931+940209538+936871526+933794958+931111037+928930661+927430586+926776273
2921+926913751+927609337+928693434+930144483+931980131+934186276+936659697
2911+939121749+941200457+942721500+943869759+944978885+946246901+947699058
2901+949258422+950717814+951833734+952601602+953300214+954171523+955198178
2891+956226530+957134904+957860613+958412371+958892215+959418500+959975278
2881+960329531+960139927+959237829+957815575+956291135+954994028+954010197
2871+953288770+952811953+952592225+952509974+952308926+951850863+951209914
2861+950407492+949276068+947716705+945893756+944092883+942532634+941357205
2851+940722016+940864071+942009081+944097978+946707179+949362453+951825760
2842+954007244+955829085+957339866+958779323+960326135+961839130+963017439
2832+963798154+964421752+965100429+965795202+966369110+966811446+967240345
2822+967751863+968337215+968940583+969526304+970053327+970479125+970862837
2812+971351098+971996107+972712218+973454319+974279408+975161718+975887649
2802+976268556+976404631+976599921+977009696+977516711+977967169+978331463
2792+978609520+978773800+978863286+979009698+979321866+979779707+980239247
2782+980527493+980540044+980286796+979914232+979661795+979675676+979864616
2772+980057395+980230830+980439852+980626208+980696202+980725957+980886766
2762+981179147+981418367+981551637+981807544+982365873+983001210+983291154
2752+983109080+982681142+982232898+981868604+981719608+981893191+982284730
2742+982700412+983121411+983628720+984153012+984538718+984773730+984944359
2732+985038571+984984672+984823346+984678337+984581985+984493384+984476107
2723+984699011+985231572+985916451+986440226+986539236+986253870+985992204
2713+986189413+986872004+987666821+988217841+988475077+988619790+988825564
2703+989120972+989456250+989839667+990333539+990920958+991484456+991968951
2693+992463340+993025065+993528905+993842106+994061318+994356504+994652207
2683+994711939+994534148+994437130+994707287+995285108+995821508+995999964
2673+995805855+995532524+995489701+995659444+995704925+995390985+994857169
2663+994360713+993946359+993559398+993301350+993322023+993527650+993604879
2653+993405677+993189418+993318701+993782892+994265320+994623634+994996862
2643+995473383+995951455+996282672+996370460+996244574+996123561+996228035
2633+996523591+996842108+997153021+997493984+997785110+997974493+998202121
2623+998535184+998732615+998616179+998479440+998754026+999434107+1000163139
2614+1000664468+1000832218+1000694961+1000546703+1000813464+1001562652
2605+1002379103+1002856215+1002961871+1002839233+1002598831+1002492880
2597+1002881540+1003691715+1004274999+1004199689+1003817231+1003689426
2588+1003883682+1004173330+1004461872+1004700723+1004817675+1004942823
2580+1005320850+1005876669+1006234614+1006254179+1006215934+1006339752
2571+1006420822+1006162774+1005678057+1005399852+1005595437+1006143946
2563+1006641362+1006646383+1006119286+1005611164+1005616553+1005886415
2554+1005937729+1005942971+1006365594+1007027954+1007343888+1007237125
2546+1007114635+1007129254+1007074469+1006914694+1006919641+1007182414
2537+1007392470+1007333477+1007286741+1007583034+1008059260+1008390182
2529+1008644022+1009031352+1009386417+1009397566+1009199988+1009264740
2520+1009730038+1010250712+1010537334+1010635015+1010622833+1010477529
2512+1010314504+1010383760+1010738235+1011133613+1011309041+1011290140
2503+1011343521+1011551067+1011647494+1011517178+1011471844+1011726274
2495+1012090716+1012393950+1012633245+1012701910+1012589978+1012661302
2486+1013144099+1013670236+1013775892+1013546343+1013471772+1013833039
2478+1014351719+1014528772+1014365821+1014436849+1015074918+1015907169
2469+1016431682+1016661600+1016933455+1017354601+1017686261+1017707599
2461+1017534902+1017482554+1017652593+1017831639+1017834149+1017772867
2452+1017847144+1018032392+1018186187+1018315322+1018471923+1018564953
2444+1018598178+1018874685+1019610878+1020547973+1021240383+1021549155
2435+1021618558+1021544134+1021320271+1021081789+1021150749+1021711367
2427+1022552847+1023256776+1023524348+1023309936+1022897428+1022838952
2418+1023471557+1024446012+1025023389+1024841907+1024207603+1023716684
2410+1023747621+1024214322+1024720746+1024994004+1025109775+1025260690
2401+1025476875+1025710041+1026017188+1026489353+1027050488+1027449262
2393+1027479091+1027209599+1026990904+1027146914+1027657399+1028203471
2384+1028517707+1028628678+1028790078+1029222300+1029907031+1030584306
2376+1030965951+1031019111+1031020366+1031207903+1031421061+1031372331
2367+1031225181+1031415228+1031879788+1032085931+1031846932+1031558760
2359+1031628976+1032048055+1032461005+1032508480+1032151422+1031669289
2350+1031369230+1031398911+1031739800+1032223631+1032598705+1032670914
2342+1032340214+1031665302+1031049014+1031055511+1031816070+1032766897
2333+1033104907+1032533362+1031510473+1030673571+1030188337+1029874471
2325+1029710191+1029878827+1030377424+1030820795+1030888721+1030853650
2316+1031256338+1032087851+1032806546+1033190111+1033514166+1033863989
2308+1034020442+1034037203+1034213000+1034529303+1034672983+1034564078
2299+1034481089+1034714403+1035290821+1035951040+1036302414+1036098264
2291+1035527236+1035213296+1035689744+1036771109+1037692182+1038001175
2282+1038015868+1038256417+1038807879+1039422838+1039960494+1040517346
2274+1041177048+1041692775+1041622855+1041003318+1040598858+1041097972
2265+1042263139+1043236781+1043543707+1043452965+1043386220+1043289055
2257+1042833207+1042131494+1041758044+1041899435+1042059506+1041898623
2248+1041807955+1042318809+1043330697+1044148403+1044046882+1042888877
2240+1041537503+1041343986+1042639246+1044107868+1044371897+1043708208
2231+1043339779+1043642570+1043982425+1043840296+1043368943+1043039202
2223+1042944917+1042525248+1041366505+1040102328+1039659401+1039966474
2214+1040376619+1040791342+1041360451+1041696393+1041309432+1040465367
2206+1040009445+1040373961+1040990988+1040976886+1040321023+1039849965
2197+1040071318+1040779750+1041753688+1043066004+1044562609+1045546218
2189+1045448684+1044772517+1044635409+1045044594+1044666271+1042900469
2180+1040928525+1040056182+1040348489+1041248814+1042285732+1043016609
2172+1043241802+1043404826+1044102478+1045050427+1045001549+1043183104
2163+1040685391+1039795550+1041804264+1045672769+1049067928+1050607578
2155+1050573171+1049950312+1049494242+1049424913+1049547919+1049480657
2146+1048900769+1047866140+1046826269+1046111045+1045584316+1044993796
2138+1044439676+1044219135+1044308843+1044230358+1043534994+1042397589
2129+1041537429+1041410214+1041664054+1041711160+1041562016+1041561425
2121+1041586012+1041194177+1040407334+1039677490+1039158515+1038514244
2112+1037420696+1035938046+1034357788+1032855793+1031427410+1030174678
2104+1029329949+1028763277+1027844862+1026225177+1024492896+1023640488
2095+1023979015+1024884509+1025682427+1026530848+1028085633+1030288160
2087+1032031221+1032440996+1032019186+1031926525+1032574561+1033574119
2078+1034614728+1035691885+1036854467+1038328921+1040350556+1042372855
2070+1043273181+1042822427+1042094872+1042096570+1042770153+1043413169
2061+1043388656+1042633561+1042010776+1042669961+1044603808+1046453780
2053+1047179710+1047274070+1047810987+1048687538+1048670704+1047394270
2044+1046073906+1045818369+1046600634+1048257162+1051071990+1054870501
2036+1058599535+1061161336+1062132689+1061819340+1060861498+1059639185
2027+1058302725+1057234280+1056723131+1056502148+1056411037+1056753477
2019+1057419529+1057815128+1057777104+1057261082+1055791131+1053708879
2010+1052734425+1053930749+1056451867+1059243437+1062208590+1064924702
2002+1066083150+1064947000+1062275483+1059447587+1057321625+1056149223
1993+1055814610+1055699873+1054938797+1053456664+1052243728+1052167088
1985+1052875151+1053175949+1052397596+1051309069+1051537289+1053688649
1976+1056322289+1057708808+1057993289+1058513298+1059572587+1059868954
1968+1058278138+1055694188+1054149296+1054339122+1055341928+1056375523
1959+1057479408+1058630915+1059301323+1059004733+1057933410+1057004511
1951+1057048663+1057808114+1058107878+1057201794+1055607064+1054557374
1942+1054839491+1056193007+1057895164+1059560035+1061061660+1062169901
1934+1062694119+1062778732+1062731848+1062592745+1062119030+1061340530
1925+1060860464+1061249567+1062274892+1063206376+1063622870+1063447737
1917+1062746098+1061792243+1060837354+1059925585+1059277474+1059401662
1908+1060390440+1061596658+1062343557+1062484506+1062250823+1062014851
1900+1062088020+1062385569+1062417317+1061904691+1061238270+1060964569
1891+1061025851+1060937546+1060603228+1060455045+1060701279+1061013964
1883+1061057747+1061012930+1061334180+1062076206+1062779913+1063126488
1874+1063359285+1063845109+1064496689+1064744179+1064083000+1062853525
1866+1062022456+1061999715+1062318676+1062419754+1062302285+1062205193
1857+1062123755+1062018321+1061995137+1062065131+1062149597+1062338315
1849+1062785082+1063412371+1063926326+1064076429+1063937179+1063806051
1840+1063774967+1063752374+1063752005+1063878999+1064109359+1064303393
1832+1064304722+1063985540+1063471142+1063132247+1063114158+1063297265
1823+1063683561+1064328275+1064982588+1065275780+1065181569+1064998683
1815+1064960511+1065094667+1065285896+1065380772+1065394800+1065507101
1806+1065742260+1065894136+1065830196+1065703129+1065771720+1066080713
1798+1066480891+1066914441+1067473656+1068181866+1068798597+1069058787
1789+1069067794+1069082340+1069149897+1069122505+1068915771+1068656763
1781+1068519064+1068521722+1068550295+1068540549+1068570157+1068731114
1772+1068908609+1068884761+1068711843+1068592381+1068574070+1068600871
1764+1068646574+1068684229+1068674779+1068678987+1068848509+1069264118
1755+1069784570+1070082414+1069866008+1069122800+1068255700+1067741745
1747+1067699365+1067955862+1068225945+1068273715+1068057383+1067725502
1738+1067453721+1067234878+1066858844+1066219151+1065687328+1065592748
1730+1065817792+1066167394+1066466936+1066543427+1066401224+1066271573
1721+1066285527+1066251195+1065879295+1065247650+1064801253+1064607366
1713+1064376046+1064017141+1063729486+1063699583+1063855150+1063955121
1704+1063864527+1063539808+1062821408+1061706891+1060744103+1060265366
1696+1059933337+1059418422+1058746095+1057935255+1056936436+1055931489
1687+1055140289+1054275551+1052698542+1050561948+1048626551+1046926462
1679+1045103365+1042785068+1039788536+1036624771+1034025832+1031776421
1670+1029104683+1026049306+1023505964+1021614571+1019614644+1016920977
1662+1013951689+1011616189+1010162186+1009349131+1008842043+1007808743
1653+1005077052+1001812283+999793085+998205591+995648295+991964004+988553266
1643+986000473+983723818+981321498+978801783+976061896+972878270+969980232
1633+968559971+968500092+969074295+969826880+970680985+971799858+973287455
1623+975003198+976673459+978142080+979262947+979637209+978993159+977943911
1613+977317508+977418512+978391047+980229427+982520775+984610484+985979431
1604+986472786+986353471+986066185+985876433+985819803+985822461+985730612
1594+985393119+984792632+983973080+982892084+981440813+979565516+977313743
1584+974803330+972294026+970263605+969068536+968472774+967732076+966514710
1574+965307754+964162522+962385720+959509979+956061513+952468258+948277544
1564+943426462+938426385+932657849+924051227+914513344+910197924+910263562
1554+911496212+912598546+913256329+913539333+913759430+914122912+914494073
1544+914599360+914142700+912536231+909705307+907392326+906535562+906334440
1534+906070928+906040066+907160046+909695192+913342640+917746438+922403633
1524+926910650+931326262+935655636+939396705+942325753+944826198+947260045
1514+949707920+952125080+954454748+956686070+958869474+960864455+962269506
1504+963062256+963145023+961825840+958473874+953582037+949312246+948076200
1494+950050950+953647822+957236056+959010865+956985391+950552575+940581954
1485+927834972+912947926+897900515+886509780+882117131+885139062+893254617
1475+902986313+911068052+915398017+916081198+914579573+911846183+908407315
1465+905482771+904679167+906159159+908725759+910897349+911287116+910160639
1455+909691722+910589168+911978714+912506919+910593893+905353710+897984020
1445+891266724+887561760+887781045+891152947+895919562+900565534+904138189
1435+906395131+907985135+909819085+912677548+916924229+922169212+927800935
1425+933513874+938991950+943806336+947771341+950777619+952495282+952839198
1415+952009383+949933481+946351819+941240105+934961823+928000876+920688555
1405+913650157+908221328+905325431+904507061+904734616+905438618+906724133
1395+908938990+912282613+916667657+921791923+927271770+932630309+937329367
1385+941050353+943797180+945647226+946705703+947270529+947720544+948114889
1375+948041646+947005541+945015359+942597534+940296292+938463819+937234343
1366+936499036+936135258+936269857+937151724+938781081+940900397+943216775
1356+945393313+946894052+946981914+944854254+939754797+931244454+919694313
1346+906567237+893947544+883441704+875553334+870111880+866878786+865587291
1336+865830793+867202324+869399092+872206905+875540044+879475147+884108568
1326+889355397+894901546+900263851+904898969+908430572+910902813+912756033
1316+914429543+916002418+917280918+918196380+919004339+920066729+921573449
1306+923499839+925703694+928040450+930462041+932974078+935470683+937702743
1296+939392570+940266094+940052494+938691890+936595536+934555369+933310315
1286+933204438+934208130+936053082+938167008+939559729+939089853+936171363
1276+931424460+926606826+923671871+923612583+925998364+929515717+932967285
1266+935901428+938508709+941119240+943864369+946712052+949579376+952343923
1256+954888889+957162518+959090974+960431717+960823772+960060408+958346659
1247+956296082+954645977+953884163+953960138+954210507+953636747+951474238
1237+947613928+942504356+936724302+930703476+924712628+918871292+913057126
1227+906939874+900278396+893200792+886162615+879740431+874588478+871555916
1217+871681359+875838258+884141571+895607394+908490525+921097076+932400539
1207+942081364+950188576+956847839+962183637+966320528+969328799+971197598
1197+971895029+971376054+969523350+966202099+961371543+955008647+946993506
1187+937367391+926735296+916099435+906168831+897064794+888761628+881534880
1177+875881524+872293512+871263018+873226103+878231127+885649325+894293749
1167+902905613+910621286+917071822+922199853+926123069+929139093+931726439
1157+934394191+937381346+940485010+943281527+945458803+946723054+946413544
1147+943523627+937378245+928397804+918134212+908386420+900181896+893611454
1137+888449977+884651687+882291009+881350001+881713483+883277129+885997228
1128+889875701+894937946+901187877+908484028+916362282+924060899+930908734
1118+936699420+941534479+945376626+948032269+949544453+950313650+950815201
1108+951375818+952179348+953349313+955003405+957199434+959781760+962353824
1098+964452024+965730377+966051331+965399972+963558417+959946778+954142064
1088+946659114+939027759+932999181+929589255+928624399+928979981+929265643
1078+928492902+926510842+924210560+923236179+925027454+929865319+936805371
1068+944361342+951140659+956141400+958801399+958752817+955528656+948829744
1058+939200012+928071165+916756258+905316202+892511778+877096380+859465092
1048+842157120+828583056+821075298+820067397+824787941+834114808+846535003
1038+859877083+871910021+881467027+888833098+895088640+901207147+907537999
1028+913646539+918278556+919435748+914826915+902710545+882703886+856456525
1018+828278419+804666176+791444518+790138552+797415875+808474359+820678222
1009+833977995+848845991+864679213+879863585+892669782+902202792+909008615
999+914695786+920588954+926774649+932549830+937504500+941872489+946035295
989+950072657+953883868+957503481+961106776+964772461+968380851+971745738
979+974750687+977347337+979489911+981110703+982053705+981680846+978022913
969+967124722+944076935+906506103+858376048+810166844+774224483+758737466
959+764643111+786566340+816165298+845872791+871353833+891633455+907480114
949+919848109+929453845+936986927+943137257+948414283+953082922+957188212
939+960595332+963133653+964738793+965421236+965215536+964168503+962190135
929+959028659+954741001+950120132+946320440+944095172+943536031+944337346
919+946108168+948590007+951748308+955588314+959869548+964139708+968078207
909+971673677+975050525+978240279+981146586+983645259+985682768+987325932
899+988732386+990040937+991210312+991938974+991753283+989987408+985617204
890+977887355+968040700+959953940+957634461+961725353+969111359+975852799
880+979915856+981474112+981694726+981665931+981949304+982548463+983163865
870+983592173+983912906+984293960+984729282+984998479+984729578+983465179
860+980960748+977589289+974179954+971195162+968304802+965108994+962050147
850+960115266+959725942+960363937+961231924+961885055+962209405+962123537
840+961549408+960695597+960154398+960374348+961013303+961146425+960213982
830+958432232+956182526+953480737+950456739+948097390+947903134+950531902
820+954876485+958451503+958633724+953985610+945143755+934699788+925999471
810+921760322+923283285+930110372+940110896+950402471+958684521+963914073
800+966091348+965747284+963487168+959959182+956489082+955251559+957720773
790+962928765+968151746+971245073+971468567+968310414+960634832+947059365
781+926399575+897826017+861612317+820257149+778309320+740400921+709337623
771+685830519+669275427+658337144+651220704+646308932+643182896+642946776
761+647226239+656911125+671986741+692055641+716243122+742506873+767699670
751+788902653+804903772+816543251+825764610+834184138+842302646+849860906
741+856678985+862960148+868913268+874425675+879330434+883875918+888683290
731+894219694+900508313+907307344+914226279+920329946+923595601+921269698
721+911723767+896488597+879950118+866711848+859632325+859507915+864818389
711+871459268+873501280+864904479+841745720+804424962+758385724+712072711
701+673497005+647839943+636458659+637477635+648072223+666421542+691523302
691+721551601+752869624+781213486+803975020+820856013+832495123+839566599
681+843439534+846398190+850215307+854878851+859104563+861761904+862595189
671+861685191+858257028+850788107+840471502+831119384+823266676+815761872
662+809066504+804981592+804859545+808863461+816378307+826563784+838595836
652+851494767+864080866+875243012+884294259+891289686+896902065+901883536
642+906698587+911453906+915898977+919621957+922501832+924959231+927571534
632+930411539+932879202+934064893+933010920+928835711+921303883+911630885
622+902428648+896278688+893687945+892136778+887944955+880240948+872798238
612+870883957+875791816+882667781+884296769+877034286+862850505+846454598
602+832076487+823129567+822391011+830197351+843229626+856503926+866393035
592+871882703+874125395+875219090+876810866+879544551+883527129+888484383
582+893266873+896320552+897495095+898648743+901705080+906664106+912018954
572+916556316+919873360+921267926+918956422+911362057+899778765+889161067
562+884979877+888636332+896294636+902269907+903181824+899545082+894717849
552+892545225+895021969+901216746+908034751+912125495+911491856+906033642
543+897142319+886734234+876240281+866243375+857102420+849599462+844510489
533+841886964+841273777+842217442+844289136+847185181+850967965+855677139
523+860811593+865737099+870329320+874731863+878642601+881547949+883664533
513+885723897+887805484+889320399+890314346+891729734+894010819+896598978
503+899121794+901920896+905134498+908155543+910121728+910366929+908710475
493+905794643+902996649+901650960+902203235+904041467+905895574+906585178
483+905949694+905056456+905238456+906964978+909492298+911540365+912533721
473+912974949+913262679+912759208+911092565+909534826+909868110+912287707
463+915216017+916883989+916676739+915466682+914995477+916085259+917550558
453+917705904+915988020+913271096+911329423+911871730+915513935+921148242
443+926421873+929253165+929495191+929046358+929989064+932690336+935806625
433+938292156+940202228+941265282+940663097+938684433+936950823+936774213
424+938174613+940351445+942440712+943972904+945224012+946115404+945212125
414+941129503+934255310+927179257+922744005+921397873+920855862+918698078
404+914958191+911378374+909241338+909057345+910561407+911109547+907452353
394+900277141+893637739+890513844+889424948+886442887+880320762+873734963
384+869454541+867376645+866302442+865462881+864266114+863032061+863136905
374+864779109
##END=
