##TITLE=X9586
##JCAMP-DX=5.0
##DATA TYPE=LINK
##BLOCKS=1


$$ === CHEMSPECTRA SPECTRUM ORIG ===
##TITLE=X9586
##JCAMP-DX=5.00
##DATA TYPE=INFRARED SPECTRUM
##DATA CLASS=XYDATA
##ORIGIN=Default
##OWNER=
##XUNITS=1/CM
##YUNITS=TRANSMITTANCE
##XFACTOR=1
##YFACTOR=9.6368524e-010
##FIRSTX=3996.5625
##LASTX=399.65625
##MAXX=3996.5625
##MAXY=1.0347491463957925
##MINX=399.65625
##MINY=0.5904914717449915
##NPOINTS=1765
##XYDATA= (X++(Y..Y))
1765I96765485I97227634I97657682I98112842I98654283I98582908I97912384I97759179
1757I98315960I98649088I98313733I97909353I98230049I98541715I98006830I97336368
1749I97302164I97466687I97255158I97484067I98532561I99150821I98821095I98646181
1741I98979804I99009739I98679147I98260603I98122924I98616121I99013822I98798457
1733I98965269I99314354I98921107I98705310I98857092I98930942I99255967I99476713
1725I99469662I99501205I99006771I98593793I99507885A000909299A001724863
1718A002079886A001596214A000213169I99370020A000180574A001206925A000941214
1711A000553967A000642970A001046175A001517725A001699010A001938372A002257522
1704A002636172A003193200A002967445A002397614A002426065A002299642A001957360
1697A002629925A004915557A007881857A007381979A003993672A001873491A001643035
1690A002459897A003593498A004903620A005400220A004171184A002721464A002315476
1683A002643903A002771501A002397552A002532263A003849374A004814988A004688380
1676A003653617A002160787A001700803A002480061A003424212A003434974A003465157
1669A003697902A003062014A002173528A001515560A001082914A001156084A001729749
1662A001897179A001408064A001301062A001962927A002234080A001780838A001783931
1655A002488967A003281646A003578901A003701922A003490331A003007586A003113041
1648A003648298A004526949A006413087A009062773A009576691A007935358A007732426
1641A007506980A005046866A003593869A004718192A006656099A007007349A005322535
1634A002799829A001302546A001808362A003333168A003620465A002294941A001009869
1627A001155960A003010802A004929474A005010436A004232230A003470848A002839352
1620A002331990A002060156A001850853A001775210A002862793A005417600A007124062
1613A005412899A002545375A001395322A002849990A005666920A008042916A008902951
1606A009122397A009363801A007519164A004705945A003518844A003412708A003228393
1599A003465096A003909926A003958788A004882776A006575322A006895832A004980315
1592A002664685A001594420A001708287A001973503A002005851A002022860A002799149
1585A004744231A005085028A002491318A000728324A001543517A003226661A004119353
1578A005266189A006560478A006579157A005377706A004085582A003118299A002694188
1571A003147739A003734146A003121824A001749109A001323390A002034241A003318757
1564A004407082A004279361A003410605A002501647A001751026A000854809A000064480
1557A000500652A001613532A001895262A001689670A002012593A002672602A003016987
1550A002969362A003303109A003655967A002989958A001691031A000799267A000980923
1543A001974493A002568569A002381842A001900396A001820732A002225236A002742246
1536A003496454A003723261A002906150A002181755A001916106A001736182A001918827
1529A002599680A002982289A002332980A001560031A002165364A003440541A004095107
1522A004055523A003698582A003776823A003926131A003342198A002559972A001985193
1515A001852276A002273046A002524593A002251213A002003377A002244595A002748122
1508A003085827A003265751A003352775A003757031A004648053A004958234A004188131
1501A003325189A003323024A003405286A002548344A001957731A002581434A003580447
1494A004466892A004854634A004098633A002708599A001565165A001149095A001761046
1487A002938684A003754681A004104261A004440853A004569812A004138403A003404420
1480A002813931A002375471A002003253A001986059A002136604A001569742A000143773
1473I98914427I98534293I98634305I98765491I98798210I98682240I98967928I99872990
1465A000374476A000523289A001117736A001818814A001855059A001206925A000726963
1458A000968491A001502572A001501891A001032815A000785598A000924453A001138518
1451A001244530A001552300A002091576A002233833A001957731A001695670A001466389
1444A001582916A001785291A001551619A001433670A001667095A001735935A001312010
1437A000572089I99995331I99910163I99955375I99803532I99581921I99334889
1430I99392719I99628618I99255782I98506213I98104925I97611109I96776928I96279648
1422I95910956I95177097I94738204I95123596I95905203I96519134I96834944I97040969
1414I97125952I97184462I97335131I97400631I97222995I96659473I96101332I96450356
1406I97565215I98121872I97859439I97537321I97441761I97532063I97850966I98575176
1398I99183293I99356660I99819737A000486488A000792958A000818626A000458593
1391I99807428I99578024I99925378A000451913A000608210A000134866I99913935
1384A000274649A000369652A000010175I99733393I99884618A000272175A000742673
1377A001031640A000990262A001246448A001760613A001903241A001892417A001935403
1370A001847328A002047848A002531088A002484267A002007830A001858523A002108833
1363A002231792A001967998A001928723A002542406A003080198A003196911A003164748
1356A002882895A002260181A001810898A002048837A002451609A002572528A002584156
1349A002957116A003425820A003024718A002416911A002306322A002065599A001831308
1342A002360874A002837558A002420375A002345041A002718557A002497255A002135367
1335A001722575A000763826I99720714I98652304I97506272I96842366I96562986
1328I96710747I97621994I98423394I98137397I97136714I95921285I94733256I93606954
1320I92454922I91712466I90582020I88651225I87579042I87419962I87328052I87723773
1312I88458127I88819335I88675223I88406605I88627289I89250064I89889106I91004522
1304I92666699I94048630I94940889I95818798I96778660I97515859I97922342I97997119
1296I97824246I97861604I98021798I97969101I97919868I97865315I97906075I97884118
1288I96868158I94912314I93091984I91457950I90086843I90130014I91181663I91398016
1280I90166506I88411306I87448476I87543045I87142686I84821798I80808118I75178588
1272I67554866I58192581I46993453I33359386I18359282I04530447H92906961H83385040
1264H77451265H76860653H80569841H85630593H90166788H94895153I01377853I09340455
1256I16773429I21495548I22431535I19913282I15088801I09064724I02825469H97549972
1248H94199085H93042229H93769964H95847283H98374566I00211471I00776849I00513736
1240I00008292H99440255H99796700I01718712I04228491I06556120I08330989I09927975
1232I12053909I13429469I12881719I11580070I11494098I13439798I16716279I20331022
1224I23363440I25262134I26273146I27088586I27947198I28408110I28778843I29962914
1216I32260360I35262966I38293961I41006611I43146461I44643001I45867151I46828126
1208I46959126I46040519I44898383I44547566I45074287I45703618I45677764I45369500
1200I45566124I46135398I46919418I48530506I51303955I54970714I59203903I63591718
1192I67554556I70586913I72827703I74782063I76645997I78457295I80261110I82042226
1184I83423229I84238299I85184429I86493995I87506182I88079662I88420646I88491650
1176I88415141I88181592I87792118I87788531I88350878I88980333I89509157I89905249
1168I90194958I90727369I91380451I91884720I92245248I92601755I93268506I94126562
1160I94700722I94871183I94920478I95293994I96021050I96439779I96450913I96373104
1152I96133495I95945716I95879041I95833271I95752741I95484062I95327023I95725960
1144I96385165I96480910I96210932I96449366I97205244I97917455I98250707I98254604
1136I98447021I99001884I99363031I99829014A000566399A000772176A000421483
1129I99880660I99380411I99176427I99141420I99091259I99277924I99776874A000166843
1121A000231292I99938305I99386843I99147172I99404842I99585137I99649771
1114I99784049I99633380I99292336I99204940I99324127I99562252A000104126
1107A000749724A001165733A001532569A002167653A003042284A003658008A003872259
1100A004026453A004070924A003803543A003241753A002662830A002198269A001960762
1093A002551313A003522184A003202972A001782013A001179340A001359696A001182123
1086A001086935A001687691A003135184A004964729A005832989A005776953A005634201
1079A005544085A005837010A006239472A005865214A005000602A004601479A004851480
1072A005274044A005200318A004672608A004694750A005408941A005843690A005752645
1065A005563753A005788271A006659315A007432449A007788586A007688697A007277204
1058A007851921A008921073A008650352A007436284A006548046A006113668A005928982
1051A005676321A005092017A004734520A004704770A004301998A003397988A002695982
1044A003063437A004152072A004773734A004767177A004753075A005118799A006033262
1037A007201746A007914762A008151712A008275289A008280114A008235025A008264775
1030A008528692A008999252A009644417A010256492A010145223A009357306A008794898
1023A009280426A009971855A009373202A008429360A008605387A009072793A008787723
1016A008727295A009364914A009739853A010038469A010615845A011289400A012023754
1009A012106757A011431223A010857187A010826076A011204788A011411926A011602426
1002A012420897A013128593A013050043A013019117A013064640A012415578A011518495
995A010976435A010706580A010935057A011545029A011593087A011234105A011178192
988A011385083A011691491A011743570A011540885A011719077A012612078A013891213
981A014910699A015193109A014817861A014097794A013529572A013224586A012246416
974A010423799A008199708A005206874A001752078I98904841I96418936I93701029
967I91269738I89758168I89197676I87708558I84936903I83898181I85119857I87410994
959I91023510I95458517I97963472I96876507I93876994I92664967I93422700I94275993
951I95306241I96137762I95686128I94660705I94850772I96249465I97523837I98313115
943I99446591A001541476A003482166A004022742A003917472A004661660A006446549
936A008388353A009767253A010571065A011438522A012676093A014183210A015459005
929A016606275A018555377A020445041A021207846A021770440A022538194A022328210
922A021252193A019985552A018528781A018352012A019842738A021031881A020881274
915A021022170A022649834A023959647A023266610A021244214A020063546A020321339
908A020607770A020843174A021746999A023377879A025801933A027938938A029073405
901A030170142A029875671A026644341A022783988A019768889A017231895A015982263
894A015212097A013407911A012226005A012366221A012331399A013464381A017489936
887A021999164A023859387A024061825A024074504A023219789A023301061A025122998
880A026232538A026500476A026762908A025477464A023630911A024939672A027702174
873A029094496A029892247A028592824A025219423A023751520A024522118A026644093
866A028774789A027902818A026998003A029002276A031319762A031462761A029044397
859A026944688A027405847A028731494A028363667A027189246A027039443A026704212
852A025234762A023683979A022443809A022702036A024866194A025943324A025634009
845A026333355A027229201A027740212A029226114A030822234A030423421A028677807
838A028006356A028579279A029115154A029471352A029765081A029266132A027799651
831A027384570A028739782A029145584A028555281A030196676A033268493A034804865
824A034170957A032683570A032589310A033291378A033091229A031902086A030761002
817A031531910A033593086A035474709A036589816A036121791A035962278A038213769
810A039256943A037189273A036297262A036541881A036193600A037933337A042644013
803A044915296A041606282A037903773A037259288A039018322A040014367A036543861
796A031971359A031261251A033493630A035163847A034516888A033845746A035547012
789A036570271A034308699A033068901A033489238A032637739A033876238A037727498
782A040423943A042324121A043636965A042904529A039988389A037961170A039511768
775A041203881A041226147A042197575A043643274A043876822A042416032A040087475
768A039533911A042133497A044355423A042738027A040568303A041832903A042943742
761A040162562A037891650A039506201A041287503A040220083A038097365A036455723
754A035703062A036392017A038075098A039231832A039536014A039615925A039676415
747A040109369A040896978A041075725A040681737A041686068A043263387A042797032
740A041635228A042256579A044644636A046789125A046997069A045821533A044619402
733A044452777A045423091A045909237A045390434A045088106A045241001A045478508
726A046033929A046766860A047147242A047522923A047872999A047308919A046364459
719A046492119A046864461A046400209A046463543A047643284A048230249A047436704
712A046172227A045837243A047005109A047235689A045712058A045069676A045716635
705A045999416A045755723A046226284A047014263A047631162A048031337A047678045
698A047358771A047620523A047289994A046157383A045456490A045452903A044990258
691A043732339A042915167A042946835A043085257A042255714A040951653A040706972
684A040547644A037657916A033513360A030481066A028255057A025799398A021964466
677A016773210A011604220A006955890A000881776I93153959I86710101I82943206
670I81755486I81835459I82377395I83436960I84446303I84402203I83802436
663I82631664I79499975I74724727I70015164I65131801I57211628I47243701
656I34531086I12638151H88328769H67564301H48487616H30893802H14150745
649H00501276G92061743G87833812G84225996G78562633G70322754G60191665
642G49486724G39303062G32321784G32345472G39784323G53791412G73991121
635G91572936H07987380H25288022H41382697H59949485H73732799H78582701
628H82505831H88566523H95540627I01733247I08630285I15061834I19362007
621I24883608I32047655I38638284I45153394I52926671I62985086I67951020
614I66071747I61439188I49006386I30845586I11604872H92889334H75173612
607H50617198H24882033H12454612H09578429H05524298G90717417G62056094
600G25937365F91343380F54859980F24436405F12743090F15161392F25600188
593F38443866F50874132F63289493F76420034F90078162G04483941G19571872
586G34256537G47077886G57108220G63014966G63483856G58972525G53193316
579G51960816G61098273G76969173G91728120H09767445H28662845H42572087
572H54458871H64949685H77105953H89798714H94120225H97888976I04398024
565I12290550I19886192I26793991I34657942I43343270I49468287I50700292
558I52393270I56944928I61554664I65365164I70240301I75685455I80490453
551I83289817I83385253I82527569I80430829I76366122I71110974I65351866
544I52509797I27711300I02116227H73105323H38806614H12503474H09576944
537H24607787H50678121H80309697I01434694I14029050I20754947I20503895
530I12895821H99212211H76081952H38139678H03245470G85560302G77434105
523G73265860G69268013G63715425G58052371G54982039G58202050G70938911
516G93714394H21326977H44284858H59274075H70040248H76843829H77099087
509H68416913H53744495H34316127H07933199G80284991G62834176G63763298
502G82948036H17653352H55576576H82752183I03225953I20182642I33222572
495I41387302I43219259I37285176I25175358I11241005I02510402I01190878
488I01031798H93236997H71110266H36070894H03844680G78158253G49703635
481G23348849G15190180G30687873G57144588G77408560G85465856G83226612
474G78099309G78529048G87621787H01677120H16856591H31731075H46687326
467H62206852H77509158H91258020I02990240I12984268I21621971I28108196
460I31394016I32558790I34060958I37293216I41431587I44370425I42358977
453I30453514I09540666H93374553H95259887I10894084I26822381I34613842
446I32575056I21570696I02138369H74647138H45024902H27505061H33306723
439H58403588H89166785I15414445I34679961I49569475I62629506I73734682
432I82690855I90344451I97398961A004070491A009453299A012232129A012474027
425A010159634A003589292I91652656I73903535I46197249I00472605H35302708
418G67907050G24917384G18278821G39511004G72961183H06290691H32356015
411H47331996H47646074H30760204H05150596G90637258G97925193H18312433
404H37751502H50548853H59290775H67510986H73644167H70903932H50501909
397H10129271G64114981G35021135G31435277G45117155G67882495G98639940
390H35123403H69964728H97504017I16866824I28283295I31930324I28244082
383I16508152H94419088H59342977H12298872G62504140G22354228F97280371
376F82484870F67731489F47525162F27022261F14809461F13026119F18355117
369F27824465F40188613F55249701F73146027F93292545G14540191G35321854
362G54266178G72077645G90030626H07156045H18445598H12925853G79392423
355G21947930F64106480F28652461F19703463F26771147F38703329F51701881
348F66326797F82551360F99012192G14553365G29387894G43826578G57532640
341G69596503G77081988G74261224G57877829G35044701G17257974G07326230
334G02996554G06207536G19222477G39061288G60791864G81490585H00431137
327H18132819H34408717H47580884H54151906H48342823H25958051G90021472
320G48864939G11006287F84564787F74809812F80230782F93971295G09815289
313G25592238G40961219G55475051G68621859G79885930G89106081G97001761
306H04586950H12106268H19090887H25337440H31600694H38230846H44367738
299H49727104H54862262H59982266H65077716H69892796H74112748H78226750
292H83042943H88638270H94667728I00653395I04989503I03743396H90273851
285H61673884H29882233H14065762H18424693H32572616H47860511H60745690
278H68321911H65021184H46447221H20280029H01568572G96563611H02419948
271H14222430H27023121H38324302H48679600H58234921H65825058H71236070
264H74838195H77023196H78104595H77490479H72595426H57759660H29508469
257G94742663G67049427G59855877G82341961H23735692H59249582H80119754
250H92344676H99730953I03027721I03447935I03403650I04233687I03736221
243H98048613H86424694H73760199H67965712H72589859H83001132H93183867
236I01635214I08147540I12361121I15290063I18074893I20914522I23288601
229I25239002I27198124I27756203I25643197I21359105I14169080I02997971
222H88920310H73456079H58014485H45984021H41186507H44520880H54380135
215H67302672H78871482H86550560H88549143H80900557H56364245H10177206
208G53567018G07945541F86603696F90361809G08603571G27904218G42216912
201G49670359G47491667G36546560G25174127G25207031G44786439G80175762
194H18550621H50522196H74100440H90771873I02861714I11629551I17908576
187I23420776I28825479I33626210I38559239I43776040I47016771I47659215
180I47768752I46146098I35351041I04037311H52027581H13506693H24774661
173H70280600I11312813I34871512I47399503I55116002I61167354I66871539
166I71123839I73007936I73613826I73485300I71841122I68297631I59449203
159I33286835H77866902H08276656G67338580G80340533H27849261H76735096
152I14119847I40273123I57789995I69048190I75500706I79619285I81528432
145I77741744I66593148I51688172I41490717I42308569I51636588I63186162
138I74426606I84485083I92402596I97152238I93451152I64740843I17654988
131I04180248I20835044I46010150I64397880I73866115I77823016I77878249
124I74886714I67295093I50919676I30817568I17184675I07405764H98529502
117I02906865I27160024I58279852I81448026I92869878I91949972I72321517
110I34777994I03247601I01548375I23487884I48580172I67221305I79324257
103I86535806I90618388I94361904I99158985A003336384A004846965A005457926
96A007458550A010757360A014823613A019032432A022271617A024552301A027305587
89A029680408A031029558A033338446A037084436A040073620A039475276A028967887
82I98928344I51016040I06518206H88252817H98611207I22529630I45481079
75I63016320I76585197I88140771I96776742A001896252A005446113A006680592
68A006150964A005113665A001154723I91207207I70501373I41540321I23899068
61I29556307I48039287I66922133I83546622I97232953A006822354A013549549
54A018229115A020234872A021242421A023863902A026225425A028440362A033701634
47A039215627A040881886A038666516A035873770A035077627A033061293A027188009
40A014943232I94931302I73086054I52730666I37760004I35985444I46469454
33I59538639I69149625I80628751I98127995A012766457A016920786A018942130
26A024693321A027983595A026260495A027406527A034721367A042607645A048981363
19A055583930A059674366A061212224A063441448A063655452A061398394A059985724
12A058167931A053624003A044711065A037402287A038076336A046299391A057028640
5A063009854A067285967A073741823A072967080A062447631
##END=


$$ === CHEMSPECTRA PEAK TABLE EDIT ===
##TITLE=X9586
##JCAMP-DX=5.00
##DATA TYPE=INFRAREDPEAKTABLE
##DATA CLASS=PEAKTABLE
##$CSTHRESHOLD=0.93
##MAXX=3996.5625
##MAXY=1.0347491463957925
##MINX=399.65625
##MINY=0.5904914717449915
##$CSSOLVENTNAME=- - -
##$CSSOLVENTVALUE=0
##$CSSOLVENTX=0
##NPOINTS=46
##PEAKTABLE= (XY..XY)
415.96875, 0.9997292719241437
468.984375, 0.9019953572376465
524.0390625, 0.8903478950813563
558.703125, 0.855996129131321
617.8359375, 0.868808862133485
638.2265625, 0.8658996187819504
664.734375, 0.8713451592971394
687.1640625, 0.907300707569917
715.7109375, 0.7394728636285591
754.453125, 0.7839643926853113
801.3515625, 0.6988396026197854
817.6640625, 0.661669847564647
842.1328125, 0.8106390208830566
886.9921875, 0.8364457454804908
899.2265625, 0.8705967632671259
917.578125, 0.7322618931921554
954.28125, 0.7676365946418016
974.671875, 0.7845031592287528
1044.0, 0.6503042556315748
1078.6640625, 0.6774674028606629
1115.3671875, 0.597199080469986
1154.109375, 0.5907642226147835
1201.0078125, 0.7048733804602114
1227.515625, 0.7619254557286719
1245.8671875, 0.6921946980023019
1296.84375, 0.7974544133109995
1317.234375, 0.8609318705176976
1364.1328125, 0.7498428193374991
1376.3671875, 0.6892182202589431
1425.3046875, 0.7351320359787622
1455.890625, 0.7275650474494043
1494.6328125, 0.7801773515771064
1578.234375, 0.7246535394375557
1612.8984375, 0.5904914717449915
1702.6171875, 0.7057276941712681
1761.75, 0.9461803399469251
2212.3828125, 0.9755688272048506
2330.6484375, 0.9585398402164941
2357.15625, 0.9493454658218106
2846.53125, 0.9110386334961799
2854.6875, 0.9102465478321258
2901.5859375, 0.8783934085897134
2924.015625, 0.8667772980053361
2940.328125, 0.8606116147839998
2972.953125, 0.8450176688328617
3081.0234375, 0.95171534610874
##END=


$$ === CHEMSPECTRA PEAK TABLE AUTO ===
##TITLE=X9586
##JCAMP-DX=5.00
##DATA TYPE=INFRAREDPEAKTABLE
##DATA CLASS=PEAKTABLE
##$CSTHRESHOLD=0.93
##MAXX=3996.5625
##MAXY=1.0347491463957925
##MINX=399.65625
##MINY=0.5904914717449915
##NPOINTS=63
##PEAKTABLE= (XY..XY)
3982.2890625, 0.9615257938768178
3974.1328125, 0.9616705143440496
3963.9375, 0.9610853752668592
3959.859375, 0.9610400762784678
3939.46875, 0.9618763295644417
3399.1171875, 0.9622727597979353
3293.0859375, 0.9586145248589089
3268.6171875, 0.9599281511927396
3256.3828125, 0.9612199028353076
3107.53125, 0.9603730403385266
3076.9453125, 0.9514734707503524
3066.75, 0.9525128563570101
3040.2421875, 0.9615884979843289
3030.046875, 0.9616280755734505
3015.7734375, 0.9541320769172972
3003.5390625, 0.9515895215816942
2972.953125, 0.8450176688328617
2940.328125, 0.8606116147839998
2924.015625, 0.8667772980053361
2901.5859375, 0.8783934085897134
2854.6875, 0.9102465478321258
2846.53125, 0.9110386334961799
2789.4375, 0.9519172275659823
2734.3828125, 0.9591819610382404
2726.2265625, 0.9600337710950436
2359.1953125, 0.9481681546925483
2342.8828125, 0.956616576962987
2330.6484375, 0.9585398402164941
1763.7890625, 0.9461032711472266
1702.6171875, 0.7057276941712681
1612.8984375, 0.5904914717449915
1578.234375, 0.7246535394375557
1494.6328125, 0.7801773515771064
1455.890625, 0.7275650474494043
1425.3046875, 0.7351320359787622
1376.3671875, 0.6892182202589431
1364.1328125, 0.7498428193374991
1317.234375, 0.8609318705176976
1296.84375, 0.7974544133109995
1245.8671875, 0.6921946980023019
1227.515625, 0.7619254557286719
1201.0078125, 0.7048733804602114
1154.109375, 0.5907642226147835
1115.3671875, 0.597199080469986
1078.6640625, 0.6774674028606629
1044.0, 0.6503042556315748
974.671875, 0.7845031592287528
954.28125, 0.7676365946418016
917.578125, 0.7322618931921554
899.2265625, 0.8705967632671259
886.9921875, 0.8364457454804908
842.1328125, 0.8106390208830566
817.6640625, 0.661669847564647
801.3515625, 0.6988396026197854
754.453125, 0.7839643926853113
715.7109375, 0.7394728636285591
687.1640625, 0.907300707569917
664.734375, 0.8713451592971394
638.2265625, 0.8658996187819504
617.8359375, 0.868808862133485
558.703125, 0.855996129131321
524.0390625, 0.8903478950813563
468.984375, 0.9019953572376465
##END=

##END=

