##TITLE=X8900
##JCAMP-DX=4.24
##DATA TYPE=INFRARED SPECTRUM
##DATE=2/11/2018
##SAMPLING PROCEDURE=ATR platinum Diamond 1 Refl
##ORIGIN=ComPlat
##XUNITS=1/CM
##YUNITS=TRANSMITTANCE
##RESOLUTION=4
##FIRSTX=3997.453
##LASTX=373.96442
##DELTAX=-1.4165319
##MAXY=0.9502973
##MINY=0.56216723
##XFACTOR=1
##YFACTOR=8.8503333e-010
##NPOINTS=2559
##FIRSTY=0.86268961
##XYDATA=(X++(Y..Y))
3997+974753820+974511032+974159075+973891774+974021283+974668356+975574312
3988+976257349+976358370+975921151+975366142+975027789+974753416+974230194
3978+973610598+973377913+973603998+973815873+973748189+973719230+974047009
3968+974569019+974966839+975192318+975367152+975522455+975555590+975373954
3958+975057556+974853494+974875112+974897000+974679401+974401122+974472914
3948+974895990+975191375+975125846+975023411+975192655+975415911+975334017
3938+975004554+974777661+974886427+975229965+975429516+975218651+974830798
3928+974688291+974909459+975340415+975798444+976145822+976261053+976138818
3918+976006548+976130197+976440130+976671872+976818757+977039319+977235839
3908+977045785+976233845+974938890+973700844+973108591+973072965+972984807
3898+972711646+972664301+972989723+973398589+973637605+973878237+974478773
3888+975370317+976021633+975822353+974805138+973768595+973324844+973559819
3878+974139679+974485508+974088428+972841357+971426187+970916907+971692075
3869+972967701+973746707+973821867+973507018+973278239+973453208+973813651
3859+973901202+973593627+973153849+972779936+972460575+972465222+973010736
3849+973872041+974707283+975259666+975268892+974428195+972808896+971211282
3839+970701126+971611325+973166375+974536827+975494977+975996311+976027762
3829+975797434+975646374+975698434+975684425+975169285+973956360+972546510
3819+971814579+972010358+972971944+974261511+975214341+975580576+975584617
3809+975551010+975647048+975725642+975566433+975214610+974801030+974438634
3799+974419238+975054256+976195794+977121281+977357199+977241024+977285945
3789+977553988+977810042+977974437+978075525+977910322+977261296+976413393
3779+976048438+976481279+977319013+978099164+978609725+978726572+978451054
3769+978013768+977699525+977658713+977899277+978174593+978149742+977830381
3759+977561126+977504353+977322447+976624257+975417191+974319025+974376001
3750+975415979+975740256+974896394+973904772+973861737+974616566+975232861
3740+975378130+975096752+974611313+974442203+974895451+975519492+975817234
3730+975754534+975448036+974974248+974525175+974514130+975298794+976825020
3720+978572212+979840767+980189289+979636637+978502238+977187551+976234114
3710+976209061+977086799+978353670+979510159+980135950+979948859+979179820
3700+978554432+978446340+978702192+979112203+979340982+978805705+977287023
3690+975681664+975441503+976609037+978083405+979318825+980161205+980396180
3680+979830193+978399466+976291427+974505981+974494869+975811173+977001133
3670+977835836+979063780+980944926+982800548+983961751+984193897+983688523
3660+982798123+981786701+980954961+980635735+980672843+980424601+979521540
3650+978222343+977515330+978161393+979406376+980298190+980637149+980704362
3640+980889297+981257014+981458046+981194448+980596741+980065639+979820630
3631+979756717+979815983+980237038+980899063+981192361+980709009+979444495
3621+977795158+976528557+976339378+977063025+977976525+978625349+978996366
3611+979200630+979189585+978976902+978826516+978865173+978967272+979120487
3601+979407858+979688427+979784195+979902726+980313141+980792250+980883102
3591+980430999+979560938+978710139+978613833+979292627+979918486+980065909
3581+979930810+979750050+979514267+979209520+979039603+979223394+979602559
3571+979600000+978644476+976752083+975022131+974867569+976164814+977662013
3561+978513014+978741321+978840861+979045395+979170324+979051321+978780248
3551+978494493+978109805+977457209+976718274+976561288+977413838+978703405
3541+979431497+979263263+978764354+978633431+978783683+978540491+977766805
3531+977129228+977228161+977973090+978877161+979613133+980074866+980199930
3521+980018631+979725199+979495005+979319027+979121564+978903090+978644408
3512+978291037+978002252+978122736+978685221+979270537+979463756+979195579
3502+978697209+978226316+977844659+977485832+977226208+977338813+977908504
3492+978526214+978663804+978296155+977892273+977766132+977746736+977573518
3482+977356795+977483475+978060440+978631882+978680305+978278241+977925206
3472+977809571+977733064+977667468+977868365+978483246+979335662+980028127
3462+980219191+979971151+979714423+979726209+979866426+979899628+979809989
3452+979688831+979513863+979241510+978988553+978882077+978836416+978798499
3442+978979529+979445101+979821977+979812144+979610775+979520867+979555349
3432+979586530+979561545+979559928+979819148+980507169+981368070+981843407
3422+981609914+980868959+980166795+979953641+980189963+980396921+980198853
3412+979718127+979295657+979042835+978905110+978838706+978624608+977825061
3403+976340456+974768973+973866384+973829545+974311011+974893229+975361225
3393+975715540+976155049+976923145+977974370+978897365+979335460+979365968
3383+979333911+979440656+979628286+979733886+979690649+979654282+979841777
3373+980165583+980233469+979846828+979310676+979106277+979367180+979790189
3363+980021325+980009809+980005162+980329506+981111140+982068213+982643157
3353+982559983+982101011+981658674+981317896+981071203+981076927+981402013
3343+981761176+981791348+981478250+981155050+981129189+981365511+981558932
3333+981512732+981398039+981534620+981961400+982390605+982590289+982611638
3323+982596957+982585642+982604365+982783576+983229618+983803956+984113350
3313+983813654+982961575+982011035+981420601+981314394+981504044+981715178
3303+981741039+981484109+980996312+980483328+980169691+980112850+980190636
3293+980280882+980417529+980730694+981247787+981789731+982103974+982102493
3284+981950490+981911091+982099529+982379021+982505903+982373296+982085858
3274+981817748+981672076+981658808+981723192+981792223+981848660+981936212
3264+982077439+982236716+982375115+982473913+982492501+982397003+982282445
3254+982390200+982909381+983748394+984550703+984968728+984911954+984520936
3244+983992461+983523522+983295955+983329359+983399939+983288547+983051753
3234+982910055+982933020+982976930+982898336+982750913+982728082+982925544
3224+983232850+983446746+983403104+983058690+982607328+982452093+982853618
3214+983597671+984183593+984402606+984560469+984976541+985443796+985470062
3204+984949130+984263130+983782270+983563997+983516181+983579757+983701319
3194+983774390+983707717+983543793+983427686+983431390+983482238+983467219
3184+983336363+983145568+983018484+982978479+982904263+982768895+982689425
3174+982612312+982334235+981943014+981789529+981919240+981974937+981716929
3165+981285704+980931726+980740729+980664694+980704227+980974694+981553410
3155+982290257+982850924+982947230+982531024+981871087+981430231+981508624
3145+981941600+982252542+982148760+981811485+981663792+981916345+982348984
3135+982489336+982054811+981294055+980771642+980739584+980933208+981045072
3125+981074301+981069856+980927214+980654929+980495316+980592700+980847407
3115+981190340+981670594+982183646+982375788+981905569+980656410+978734250
3105+976377632+973827457+971207915+968586352+966125682+964095766+962733733
3095+962082551+961940112+962031906+962243309+962553175+962771447+962559707
3085+961708908+960205379+958119430+955701862+953523041+952237716+952146461
3075+953025209+954276657+955192379+955180526+953891767+951336003+948095383
3065+945290973+943945507+944287295+945870698+948243884+951167837+954325888
3055+957233004+959504158+961068098+962167880+963206848+964445972+965784500
3046+966972911+968012889+969200896+970778441+972618774+974206892+974973507
3036+974812075+974266966+974064789+974471904+975213869+975934217+976528759
3026+977031507+977376527+977421313+977189504+976946380+976884286+976826300
3016+976459593+975800397+975186055+974853426+974755638+974660813+974177259
3006+972772595+969905282+964939022+956932096+945215813+930833585+917119713
2996+907905451+904548253+904948903+905896884+906109971+906631509+908845755
2986+912903567+917925995+922901819+927108267+930126101+931758197+931828844
2976+930093842+926622625+922264040+918345232+915716666+914304324+913652941
2966+913537103+913804944+913976006+913467870+912264306+911157318+911203181
2956+912873126+915577189+917942428+918726284+917749949+916090309+915295273
2946+916227899+918496225+920870017+922254746+922412743+921874772+921265952
2936+920831023+920546413+920400741+920379930+920341071+920148121+919921295
2927+919974028+920454619+921189041+921928179+922597948+923195790+923578593
2917+923538790+923042036+922230366+921182441+919795760+917939532+915656928
2907+913213903+911031782+909588259+909262567+910113973+911763848+913657184
2897+915585742+917867470+920851294+924353828+927790159+930757550+933236539
2887+935293798+936878279+937937653+938542095+938821182+938823674+938468956
2877+937680790+936583634+935492944+934682957+934235098+934123840+934347298
2867+934886751+935547159+935964847+935907467+935520556+935126036+934806742
2857+934384205+933852901+933642980+934279480+935818905+937820334+939871532
2847+941913907+944018175+946106347+947978266+949445563+950457659+951207033
2837+952021666+953103803+954442669+955861947+957057901+957814952+958305914
2827+958924432+959755162+960487295+960861948+960953204+961011122+961223738
2817+961596977+961952504+962098647+962065984+962109288+962437943+963021979
2808+963707441+964406237+965065365+965551950+965750557+965743082+965755810
2798+965951522+966330822+966743459+966954324+966844345+966612873+966646142
2788+967111647+967757845+968181931+968262748+968262883+968465598+968800382
2778+968993332+969024850+969161027+969524298+969942593+970279936+970611891
2768+971006209+971403087+971789796+972262103+972808694+973221668+973353534
2758+973350638+973476308+973761120+974007140+974118128+974223459+974425097
2748+974602692+974574945+974331215+974013403+973747785+973574366+973482436
2738+973465263+973558337+973825234+974275451+974797259+975235623+975544006
2728+975820332+976157406+976492728+976686621+976720362+976721372+976799832
2718+976944494+977046862+976976753+976699552+976337088+976053085+975940884
2708+976056048+976389350+976742587+976837412+976593278+976172626+975783493
2698+975544545+975464806+975489051+975585896+975739179+975848551+975819457
2689+975774738+975950919+976329680+976584994+976494008+976222598+976095716
2679+976226975+976500338+976776193+976965911+977019182+976966988+976911022
2669+976922606+977009619+977150914+977304196+977415858+977481118+977579175
2659+977845804+978347272+978914606+979216389+979119679+978871436+978810689
2649+979019466+979347717+979652127+979914849+980176561+980452348+980746858
2639+981089319+981498724+981976149+982547254+983194462+983728796+983930502
2629+983882618+983927875+984180899+984363680+984308118+984282930+984556562
2619+984987653+985355706+985720459+986154715+986494684+986601093+986542905
2609+986404506+986200579+985985740+985817103+985687594+985647859+985858791
2599+986383965+987047539+987582344+987853148+987917060+987933291+988025355
2589+988195003+988389973+988631750+988964514+989285289+989402608+989301856
2580+989180429+989195448+989321050+989473255+989596703+989583974+989288589
2570+988763751+988381016+988523590+989187097+990022069+990707261+991122255
2560+991275201+991265840+991256276+991330426+991456096+991620760+991873717
2550+992210319+992570290+992941509+993301481+993488437+993323301+992861433
2540+992352018+991939448+991563852+991186235+990957322+991050261+991410771
2530+991814721+992132869+992377946+992529411+992540590+992537156+992780347
2520+993360881+994082508+994679744+995015942+995079652+994969540+994881382
2510+994930276+995023081+995077093+995253341+995737838+996381679+996784887
2500+996731211+996466806+996501624+997065524+997818804+998278921+998402773
2490+998451869+998467291+998259929+997777250+997175367+996677670+996554088
2480+997002958+997857259+998611011+998900200+998793657+998530396+998200326
2470+997827424+997617098+997896994+998734728+999644658+999931625+999526194
2461+999173698+999505855+1000324731+1001117477+1001715319+1002083103+1002081554
2451+1001806777+1001612076+1001566751+1001388482+1001000764+1000709015
2442+1000788418+1001224357+1001851159+1002491228+1002927504+1002960841
2434+1002622286+1002207561+1001960867+1001815734+1001570455+1001199034
2425+1000863106+1000724976+1000856708+1001229071+1001653292+1001793846
2417+1001460948+1000932069+1000721205+1000930588+1001139432+1001023931
2408+1000703358+1000391338+1000169091+1000191855+1000615065+1001223953
2400+1001585137+1001617867+1001638139+1001832301+1002054884+1002175706
2391+1002314172+1002605718+1002935249+1003070213+1002997613+1002960100
2383+1003133654+1003412135+1003595926+1003646437+1003626300+1003559020
2374+1003562522+1003952194+1004910142+1006144350+1007100615+1007430347
2366+1007188907+1006740307+1006473072+1006472399+1006488832+1006274128
2357+1005864656+1005504079+1005296851+1005061472+1004675572+1004347927
2349+1004345300+1004664863+1005045039+1005256308+1005329784+1005340963
2340+1005185593+1004825487+1004533536+1004665065+1005207279+1005673390
2332+1005540850+1004797807+1003945257+1003461232+1003495983+1004039678
2323+1005068476+1006404647+1007617169+1008321757+1008574444+1008754396
2315+1009038467+1009215928+1009108778+1008916703+1008937110+1009173566
2306+1009421135+1009537511+1009509158+1009450633+1009590581+1010059049
2298+1010702486+1011311373+1011912919+1012556962+1012998087+1013007785
2289+1012880095+1013123219+1013664624+1013902562+1013667722+1013599634
2281+1014302605+1015546645+1016623664+1017184870+1017468873+1017939833
2272+1018825316+1019825088+1020330395+1020103501+1019532800+1019026819
2264+1018479151+1017572521+1016383571+1015542941+1015842570+1017481063
2255+1019595164+1020915306+1021053166+1020685113+1020425287+1020209102
2247+1019956482+1020058177+1020733873+1021516516+1021959998+1022443283
2238+1023670082+1025543416+1027102372+1027643373+1027420858+1026910769
2230+1025971610+1024516099+1023468242+1023845724+1025221698+1026327676
2221+1026850022+1027354049+1027780762+1027420050+1026273124+1025188361
2213+1024610049+1024276343+1024201722+1024756866+1025558838+1025639723
2204+1025061344+1024974802+1025787483+1026609322+1026815136+1026902687
2196+1027353241+1027716513+1027524775+1027393043+1028210438+1029601161
2187+1030334035+1030115897+1029900924+1030585981+1032183931+1033917991
2179+1034790947+1034641638+1034563313+1035596556+1037392036+1038697901
2170+1038688271+1037721567+1037291217+1038894152+1042361193+1045683774
2162+1046766989+1045123983+1042175988+1039917899+1038996924+1038629409
2153+1037994728+1036800121+1035081282+1033374430+1032544374+1032580271
2145+1032252626+1030803850+1029086088+1028213334+1028074464+1027977888
2136+1027740690+1027332970+1026474156+1025193008+1023868757+1022491302
2128+1020788357+1019062985+1018055603+1017941315+1018026711+1017485912
2119+1016134520+1014453059+1012966299+1011721249+1010442727+1008983781
2111+1007359498+1005549740+1003613504+1001837150+1000432352+999181106+997725797
2101+996186237+995089687+994653950+994629166+994861380+995368909+995897249
2091+996196069+996634029+997751456+999352572+1000679719+1001274194+1001310966
2081+1001413940+1002252145+1003964518+1006054711+1008004079+1009662912
2072+1011052355+1012265483+1013482449+1014631395+1015202298+1014984026
2064+1014802659+1015720873+1017512312+1018929166+1019587621+1020399156
2055+1021954611+1023822018+1025509203+1026780654+1027286635+1027264208
2047+1028029745+1030410743+1033577954+1036382028+1038688405+1040675017
2038+1041838577+1041637950+1040762367+1040843386+1042635835+1045214633
2030+1047239632+1048280418+1048789834+1049087172+1048487781+1046239861
2021+1043516806+1042798412+1044579278+1046289900+1045534465+1043219804
2013+1042254851+1044164687+1047907853+1051369170+1053046994+1052437703
2004+1050211065+1048276984+1048326686+1050168366+1052273038+1053539977
1996+1053817852+1053352549+1052549567+1051806927+1051171371+1050641751
1987+1050706202+1051832721+1053536542+1054688114+1054930026+1055153215
1979+1056211983+1057695712+1058662281+1059054175+1059244297+1058883786
1970+1057359985+1054900191+1052444370+1050726407+1049943830+1049899920
1962+1049921067+1049260457+1048146060+1047767703+1048838526+1050786548
1953+1052486193+1053305338+1053372012+1053179062+1053069219+1052956142
1945+1052552732+1051927479+1051473087+1050958351+1049272781+1045789981
1936+1041555853+1038693793+1038557684+1040719063+1043723697+1046471334
1928+1048711441+1050568073+1052138209+1053519772+1054738692+1055540327
1919+1055546995+1054730947+1053740604+1053470811+1054177823+1055331214
1911+1056237642+1056671359+1056838246+1056941758+1057051063+1057096523
1902+1056803562+1055933771+1054685084+1053656285+1053373023+1053892675
1894+1054839848+1055828776+1056749549+1057695173+1058783237+1059956091
1885+1060925691+1061416922+1061396246+1061049138+1060752406+1061005362
1877+1061915562+1062893580+1063330530+1063289852+1063171522+1063196576
1868+1063510347+1064271641+1065316603+1066212120+1066662607+1066678029
1860+1066519494+1066581521+1067174043+1068200955+1069159712+1069636464
1851+1069649798+1069425397+1069117283+1068819069+1068573924+1068329790
1843+1068087879+1068073466+1068560522+1069559149+1070665598+1071401031
1834+1071762013+1072030190+1072292171+1072551055+1072941400+1073435864
1826+1073741823+1073647941+1073253622+1072882269+1072807917+1073032925
1817+1073265475+1073136370+1072379454+1070878887+1068761622+1066414971
1809+1064315687+1062925503+1062592537+1063262509+1064433140+1065533057
1800+1066337454+1067012409+1067688442+1068172198+1068233080+1068003021
1792+1067987598+1068515063+1069334680+1070060819+1070582222+1071050488
1783+1071603275+1072206775+1072828862+1073390270+1073617769+1073324808
1775+1072582102+1071596541+1070815850+1070702909+1070998429+1071091099
1766+1070685129+1069644006+1067884153+1065822853+1064352862+1063770712
1758+1063662485+1063653393+1063419563+1062598262+1060898886+1058212805
1749+1054967538+1051732845+1048242165+1043971401+1039020630+1033643416
1741+1027732609+1021607166+1016156274+1011313730+1005789833+998853124+992110577
1731+986721308+981462558+974973305+966328061+954007941+936604512+915194454
1721+891671171+864011549+827049037+782576823+743597864+716283599+697305521
1711+683982465+675208790+670192827+668816921+670869062+674725775+679233804
1701+685180440+692898446+700736128+708758543+718305164+728102048+736603505
1691+744731252+753666359+762770306+770982305+779416886+790300890+801996767
1681+811146577+818234077+824661708+831298452+838795963+846549326+852649244
1672+856255627+858104312+859661450+862143065+865829591+870763458+876975307
1662+883752875+889829491+894592901+898101631+900654971+903136114+907271713
1652+912438870+916375053+919688138+924032514+929762763+935186244+939486978
1642+943019145+945801802+947692242+949236113+951998903+956673011+961347186
1632+964831535+967588534+970212992+972790914+975105036+977248971+979662431
1622+982379762+984800495+986503103+987557156+988213052+988439676+987959085
1612+986806031+985569938+985223436+986415888+988912454+991996491+995169022
1602+998322427+1001493544+1004681094+1007882046+1011104010+1014255125
1594+1017163318+1019818151+1022472242+1025390605+1028527375+1031552281
1585+1034231493+1036654179+1038967425+1041036403+1042599400+1043736964
1577+1045130852+1047261790+1049246314+1050090176+1049529240+1047579265
1568+1044193579+1038788214+1030725188+1020631774+1009337422+993520561+963801121
1558+924656015+903255184+899124031+900596446+902922623+904647052+906022083
1548+908024925+911069631+915086900+919777104+924725787+931232012+941500058
1538+952139389+959517291+964997142+970940276+978172573+985297383+991225701
1528+996363899+1000940488+1003718566+1002028080+992301103+974358491+958010057
1519+954022219+963167517+978840793+993323773+1003562387+1010146601+1014094502
1509+1016868000+1021643196+1029695178+1036905182+1041597541+1044608776
1500+1046571816+1048039652+1049990031+1053059251+1056530872+1059511262
1492+1062027089+1064783212+1068200820+1071274890+1072344164+1069891979
1483+1061357791+1042920176+1013065300+976576104+943341738+924027867+925340736
1473+944845672+968792704+984087892+989892560+989689306+984430758+973540086
1463+957970525+939535940+917785441+889579700+854330638+824860113+812026471
1453+808898186+808451606+809036383+810218666+809085143+801826311+790151043
1443+781789196+783656806+795923586+813780061+833379418+852306514+867792362
1434+879916433+891681947+905337362+920405724+934571296+946566801+956406787
1424+963713839+967598299+967337463+962171585+951734834+936337884+915536511
1414+889650953+863253420+844642251+839755797+847699686+863425493+881650964
1404+897778902+909344596+916894234+921921983+924977532+925601437+923218217
1394+918296742+912916969+909412348+909133395+912102336+916187491+918197068
1384+917183491+914628669+912539757+912636602+916013398+922678226+931282523
1374+939155427+943471247+942740057+935914404+921793551+901492704+880027691
1364+865050517+864449577+879951993+903364152+923961058+934720403+933854248
1354+926365695+921506921+925577596+938050729+954152401+969666334+983042594
1344+994143659+1002868912+1009235997+1013839862+1017834637+1022231273
1336+1027185075+1032214103+1036773518+1040447585+1042945835+1044225098
1327+1044527286+1044056191+1042654356+1039953593+1035818129+1030635414
1319+1025349590+1021201735+1019147304+1019389013+1021326058+1023839595
1310+1025867087+1026871842+1026809815+1025778121+1023685101+1020163373
1302+1014799561+1007478366+998538343+988649934+978579082+968980873+960303167
1292+952791042+946474669+941072739+935942892+930175534+922687722+912199114
1282+897363302+877252172+851788410+821839046+789407461+758161525+733490240
1272+721016770+723679146+739459302+762010224+783521505+797423950+799948330
1262+790689889+772247290+748977704+725253053+704195761+687439472+675347054
1252+667268403+661969784+658093472+654437657+650232354+645464970+640854640
1242+637309072+635378695+635193287+636668868+639583391+643587258+648344944
1232+653708150+659693039+666252940+673138129+680083458+687054515+694082277
1222+700878433+706906155+711990610+716685326+721791804+727549194+733516640
1213+739169641+744265545+748648578+752114542+754675627+756839497+759499582
1203+763437853+768814394+775176630+781970967+788888751+795733464+802254438
1193+808215419+813460430+817848177+821244975+823699045+825611777+827593809
1183+830046330+832934386+835988925+839013293+841937716+844741252+847468617
1173+850277607+853403602+857088242+861488112+866450736+871253073+874485274
1163+874119174+868022219+855233294+837080424+816473685+795821689+776263885
1153+759070984+746597043+740872990+741704730+746887580+754087078+762093263
1143+770613443+779526797+788441161+796618206+803155613+807419037+809630925
1133+811292519+814869673+822510297+834455561+848181085+859016128+862565669
1123+857465118+845106005+826376573+801157215+772801222+750174804+741692203
1113+748231294+763893458+782216919+799845424+815877190+830207088+842695778
1103+853005310+860840230+866186734+869118835+869363778+866105715+858175633
1094+844443442+824377502+798876093+770832928+744409803+723208455+708967590
1084+701634070+700118485+702964719+708801578+716568613+725534430+735162676
1074+744884333+754016229+762034267+768883088+774869728+780316849+785467169
1064+790649750+796287665+802598246+809388879+816246859+822869056+829167852
1054+835152000+840767893+845893228+850546727+855022632+859672764+864614039
1044+869718968+874774463+879618623+884246463+888742976+892957169+896203580
1034+897226721+894286067+885303615+868646394+845010102+819043054+798041525
1024+787694414+788616803+796320935+803497535+803484941+794698403+782641006
1014+775666178+777971477+787448259+799454540+810831527+820672321+829294397
1004+837314927+845085060+852465857+859089469+864752168+869061590+870403217
994+866390392+857011938+846857979+842082513+844885981+852348000+860292831
984+866686721+871559301+875126421+876434845+874017681+868404011+863253353
975+862530447+866756627+873144186+878879149+883027476+885732685+887096805
965+887306053+887146844+887763207+889851446+893209250+897000973+900352716
955+902838371+904621527+906137179+907615453+908991494+910221526+911433307
945+912691490+913828785+914673455+915352990+916203452+917352533+918539529
935+919480439+920311775+921436476+922953879+924531760+925889280+927109883
925+928366046+929620323+930727311+931637780+932399276+932978262+932966139
915+931263665+925850555+913840705+892787992+863989325+835139137+817414191
905+817415942+832065740+852228660+870472113+884621251+895643048+904492490
895+911190991+915745423+919089151+922646169+926889927+930658482+931783520
885+928078944+918529427+904828284+891563752+883634478+883014411+888141564
875+895875801+903331758+908384089+909906475+908293304+905270958+902590331
866+900950693+900294258+900623048+901984205+903858212+904880074+902497594
856+892042053+867245367+824846846+770680723+719816708+688092674+682406133
846+698662166+727315027+759601277+790070091+816078491+836141602+848419090
836+850641889+842087968+826092031+810158390+802311885+806187725+819429627
826+836654654+853399561+867576312+878755163+887242343+893541003+897830692
816+899622132+898168776+893757121+888751462+886621198+888939765+893155372
806+893954246+887765699+876569068+866999212+864974953+871210711+882005413
796+893275924+902983034+910795595+917084019+922378193+927072034+931287708
786+934960833+938082449+940848203+943385312+945359330+946128976+945274405
776+942983383+940342088+939094747+940261271+942994630+945600097+947510135
766+949362726+951370956+952497677+951092273+945604744+934569073+916069700
756+887344576+845968118+793399677+737956311+692549721+667619822+665458915
747+680610451+704718309+731084458+756282332+779117056+798839052+814549908
737+825927838+833979954+840928180+848986222+858707273+868798329+877949554
727+886190849+894029002+901274768+907409168+912240734+915517250+916674479
717+915662047+913022031+908186694+899090896+885640621+872691679+866655135
707+869031755+875485651+880908460+883285619+883392028+883359701+885725074
697+892011478+901545505+912134123+921918144+930275882+937274955+942996314
687+947513098+951042773+953857622+956155581+957858795+958374272+957060662
677+954426640+952450130+953078952+956434601+961150531+966343214+971972374
667+977034403+980342976+981926177+979450219+966946781+941897609+913982269
657+899693857+906149840+924636013+940822476+946052469+938720902+921897199
647+902685830+889679710+887814526+895909273+909012507+922369573+933458044
637+941852015+948249878+953382621+957398544+960158707+961862999+963228264
628+965211576+968366530+972123636+975186594+977067538+978532208+980256839
618+981877687+982606049+981976486+979847905+976578394+973339727+971427602
608+971106759+971782792+973216280+975762077+979416680+983394551+986777206
598+989186962+990881219+992412024+993973809+995056485+995176700+994666409
588+994050518+993269356+992221431+991437575+991594629+992788159+994634621
578+996742189+998841810+1000694805+1002262045+1003942698+1006139299+1008404729
568+1009568424+1009084331+1007625991+1006147313+1005130099+1004583845
560+1003942630+1002291341+999381936+995970119+992795904+989980448+987572848
550+985693992+983821264+980835622+976335741+971140904+965512013+957199330
540+942280007+918579264+888791332+860736313+843695145+842522830+854738426
530+873815370+894758306+915414209+933909137+948161653+958053496+965412878
520+971888123+977561328+981463636+983727113+986154378+989789249+993523323
510+996081646+998094726+1000924729+1004451844+1007396876+1009044865+1009652742
500+1009585732+1008668865+1006396296+1002121222+994475345+981135317+960767123
490+935960133+912783150+896463002+887473613+881614058+875357220+870737731
480+872572879+882722124+898982803+917928554+937079176+954355050+967723902
470+977006454+983931242+989684255+994205551+997474591+1000000588+1001864157
460+1002533455+1002489477+1003882759+1007572989+1011728657+1015498357
452+1020068750+1025434785+1029299849+1030040265+1028477470+1026563055
443+1026005149+1027869863+1031671351+1035429939+1037520602+1038143565
435+1039144953+1041847939+1045272012+1047311896+1047357625+1046918453
426+1047263069+1047577581+1046424258+1043781616+1040101689+1036019497
418+1034616652+1036665695+1035647471+1023970990+1001684339+980257175+973250829
408+983578679+1002210861+1016641107+1020460038+1016653836+1013902764+1020467581
398+1036494431+1050418225+1055146346+1056353951+1059219648+1062721777
390+1063808965+1062463567+1061467433+1061503868+1059005483+1051563803
381+1040697309+1027601753+1011388553+989057116+958332045+929005038
##END=
