##TITLE=NiW-X13785
##JCAMP-DX=4.24
##DATA TYPE=INFRARED SPECTRUM
##DATE=28/11/2019
##SAMPLING PROCEDURE=Diamant-ATR
##ORIGIN=Marie
##XUNITS=1/CM
##YUNITS=TRANSMITTANCE
##RESOLUTION=4
##FIRSTX=3997.453
##LASTX=373.96442
##DELTAX=-1.4165319
##MAXY=0.99550658
##MINY=0.37079909
##XFACTOR=1
##YFACTOR=9.2713776e-010
##NPOINTS=2559
##FIRSTY=0.97857451
##XYDATA=(X++(Y..Y))
3997+1055479089+1055077862+1054288395+1053621912+1053239393+1052984873
3989+1052825373+1052850574+1052930806+1052865296+1052779085+1052925792
3980+1053214578+1053358778+1053304132+1053126823+1052780821+1052318969
3972+1052077500+1052281103+1052690366+1052922706+1052964622+1053181276
3963+1053860616+1054802899+1055426951+1055420779+1055134886+1055117271
3955+1055417693+1055552185+1055056197+1053951778+1052808336+1052313955
3946+1052588983+1053117051+1053445310+1053669743+1054151974+1054924855
3938+1055574494+1055662827+1055186253+1054627969+1054482676+1054728966
3929+1054940670+1054895603+1054710323+1054532242+1054392157+1054281194
3921+1054125937+1053727796+1052993488+1052275767+1052130667+1052688759
3912+1053556787+1054166824+1054105879+1053373500+1052413538+1051875119
3904+1052251530+1053470962+1054905246+1055884045+1056091569+1055619946
3895+1054770947+1053929727+1053586746+1053994916+1054602253+1054579238
3887+1053776912+1052790657+1052354007+1052619970+1053297960+1053976915
3878+1054247507+1054133523+1054048597+1054281259+1054746324+1055235691
3870+1055646626+1055844314+1055734637+1055415443+1055104606+1055044560
3861+1055289758+1055572436+1055563179+1055198275+1054738674+1054636390
3853+1055091298+1055559321+1055625282+1055312066+1054710258+1054060748
3844+1053784048+1054098807+1054655677+1054885381+1054553393+1053799735
3836+1052915891+1052220222+1051974831+1052238544+1052702002+1052906570
3827+1052694095+1052264452+1051876855+1051765378+1052274996+1053378579
3819+1054259400+1054509741+1054659984+1055194675+1055770832+1055788961
3810+1055088920+1054023653+1053293267+1053330105+1053775498+1054188490
3802+1054522278+1054635426+1054403150+1054243907+1054553008+1054986122
3793+1054864423+1054132880+1053353249+1053071856+1053436503+1054230599
3785+1055019359+1055349483+1055122736+1054676699+1054351719+1054037925
3776+1053405901+1052461562+1051541910+1051030042+1051116832+1051558689
3768+1051858211+1051983703+1052370207+1053066520+1053510306+1053341548
3759+1052967837+1053071921+1053571188+1053754797+1053255530+1052443047
3751+1052240280+1053146560+1054471489+1055498183+1056225804+1056834298
3742+1057125463+1056850242+1056052481+1054993708+1054163803+1054065312
3734+1054509420+1054689814+1054303245+1053738339+1053430910+1053577553
3725+1054146316+1054902225+1055559579+1055940362+1056013651+1055907060
3717+1055741516+1055431965+1054847451+1054148502+1053744575+1053780641
3708+1053996330+1054108193+1053966179+1053677586+1053614712+1053936092
3700+1054284023+1054392993+1054429059+1054546515+1054674321+1054712894
3691+1054649634+1054552879+1054529735+1054569016+1054545164+1054417487
3683+1054288009+1054283830+1054358984+1054272194+1053867045+1053254051
3674+1052644721+1052288239+1052609941+1053862674+1055287958+1055797062
3666+1055557457+1055216212+1054889496+1054435552+1054010602+1054001152
3657+1054553586+1055284551+1055551864+1055209397+1054680428+1054514563
3649+1054884288+1055200590+1054996858+1054565673+1054284152+1054170746
3640+1054030468+1053854638+1053892504+1054221470+1054522599+1054530507
3632+1054529221+1055107371+1056385755+1057482395+1057612580+1056970912
3623+1055958363+1054963685+1054365734+1054207841+1054137123+1054030982
3615+1054182704+1054708844+1055253242+1055414607+1055241413+1055051761
3606+1055012416+1055150187+1055522934+1056076140+1056492217+1056475052
3598+1056081861+1055511941+1054887888+1054433945+1054449631+1054937519
3589+1055544535+1055829721+1055614031+1055158802+1054793448+1054635105
3581+1054696693+1054919711+1055118686+1055084612+1054811835+1054511220
3572+1054287880+1053978265+1053457397+1052925085+1052650250+1052554138
3564+1052475191+1052508429+1052757098+1053182433+1053736989+1054363870
3555+1054815371+1054763618+1054203148+1053602882+1053433481+1053668586
3547+1053907483+1053847759+1053559616+1053281438+1053077449+1052845174
3538+1052567960+1052399459+1052402030+1052377858+1052182805+1052036612
3530+1052275703+1052904705+1053537693+1053798128+1053715195+1053645634
3521+1053758911+1053783020+1053474948+1053096543+1053088957+1053462733
3513+1053888904+1054196333+1054369142+1054246093+1053707673+1053027304
3504+1052611484+1052522058+1052521608+1052483806+1052461691+1052482199
3496+1052511257+1052538451+1052581268+1052649671+1052738390+1052864075
3488+1053081435+1053397029+1053698351+1053886461+1053963993+1053908576
3479+1053681829+1053410530+1053249294+1053108501+1052861117+1052675130
3471+1052742697+1052900398+1052896283+1052796314+1052817337+1052952472
3462+1052986931+1052797729+1052516722+1052425946+1052704895+1053218692
3454+1053532100+1053261508+1052497885+1051784214+1051568075+1051776757
3445+1052030184+1052110930+1052060721+1051999004+1051956187+1051834424
3437+1051616292+1051562546+1051922693+1052483999+1052728039+1052439318
3428+1051914785+1051598098+1051678716+1052025491+1052425046+1052806150
3420+1053153375+1053303553+1053050705+1052438739+1051756634+1051240523
3411+1050908278+1050686482+1050552825+1050514895+1050532446+1050500108
3403+1050328650+1050121511+1050224180+1050861412+1051694403+1052039377
3394+1051632300+1050892528+1050401168+1050360859+1050591399+1050850161
3386+1051050421+1051183563+1051133932+1050804130+1050405604+1050277090
3377+1050379631+1050306920+1049861784+1049330372+1049138920+1049486980
3369+1050308206+1051324356+1052114402+1052380879+1052206464+1051906363
3360+1051683988+1051571997+1051570261+1051647215+1051708289+1051701539
3352+1051634164+1051449591+1051044249+1050440127+1049846290+1049553455
3343+1049754936+1050374038+1051062829+1051480771+1051571740+1051526352
3335+1051526095+1051608256+1051755992+1051994053+1052259888+1052295118
3326+1051905077+1051293369+1050873755+1050778029+1050795451+1050761378
3318+1050748906+1050891435+1051206257+1051634807+1052128031+1052607755
3309+1052890047+1052787764+1052315691+1051712532+1051230237+1050962988
3301+1050866684+1050892335+1051058329+1051378423+1051741977+1051914721
3292+1051712275+1051238080+1050916700+1051101852+1051609284+1051879876
3284+1051669587+1051311627+1051244316+1051581126+1052152140+1052669022
3275+1052849610+1052607819+1052096015+1051508544+1051000212+1050764014
3267+1050897028+1051178935+1051259939+1051087516+1050936951+1051029784
3258+1051248624+1051285847+1051090023+1051051064+1051488743+1052057571
3250+1052081743+1051464827+1050799566+1050562790+1050628686+1050632608
3241+1050467707+1050287569+1050223216+1050273490+1050410232+1050639872
3233+1050941323+1051231394+1051388645+1051304169+1051021041+1050812874
3224+1050931872+1051316191+1051726869+1052025683+1052133174+1051915557
3216+1051342228+1050644694+1050146777+1049958475+1049901065+1049741307
3207+1049461457+1049220181+1049108061+1049097068+1049180001+1049403597
3199+1049773515+1050219616+1050633443+1050898892+1050931230+1050759578
3190+1050547554+1050471243+1050579569+1050789215+1050950195+1050910914
3182+1050659223+1050413190+1050403611+1050593777+1050790823+1050952959
3173+1051163634+1051397452+1051466884+1051158234+1050399753+1049398133
3165+1048588414+1048358517+1048772280+1049522467+1050176864+1050551282
3156+1050784458+1050991275+1051046885+1050827274+1050413125+1049947995
3148+1049504145+1049121948+1048775045+1048318722+1047593608+1046480061
3139+1044800385+1042351365+1039063181+1034942265+1029828599+1023337158
3131+1015164306+1005575106+995691912+987219667+981715446+980015841+982153704
3121+987524846+995044138+1003327309+1011042167+1017410559+1022407284+1026425274
3111+1029856629+1032950531+1035726525+1037941598+1039414006+1040443271
3102+1041635058+1043221836+1044791192+1045849065+1046487582+1047235069
3094+1048287671+1049236125+1049630666+1049449821+1048887743+1048066839
3085+1047151944+1046414357+1045945049+1045475611+1044657792+1043406602
3077+1041844447+1039972355+1037522049+1034149068+1029793368+1024913264
3068+1020370226+1017090336+1015829503+1017036141+1020573765+1025523430
3060+1030540598+1034595940+1037425358+1039355696+1040806439+1041973989
3051+1042909135+1043742769+1044657278+1045645655+1046424772+1046683471
3043+1046430687+1046095549+1046162859+1046645604+1047096012+1047189360
3034+1047046703+1046926804+1046893952+1046878266+1046824263+1046692921
3026+1046459810+1046164081+1045864430+1045551922+1045165096+1044706652
3017+1044241136+1043714932+1042913057+1041734320+1040409326+1039274949
3009+1038349318+1037219827+1035368693+1032634358+1029285422+1025554738
3000+1021251627+1016012276+1009761083+1002747102+995298850+987623594+979556304
2990+970384982+959176088+945492715+929786749+913050233+896135251+879442837
2980+863252584+848315513+836011715+827665155+823468634+822178163+822081666
2970+822241745+822732655+823926435+825774354+827651975+828702198+828286892
2961+826155973+822513494+818394441+815926070+817614424+824956536+837543140
2951+853140715+868503828+880647739+887982907+890489595+888958877+884175463
2941+876690823+867204035+857037006+848028849+841820601+839208608+840018841
2931+843401143+848345022+854126842+860374113+866954851+873992298+881680604
2921+889783703+897605988+904634498+910844996+916301514+920913663+924666976
2911+927724555+930229892+932208768+933637524+934522204+934984055+935331472
2901+935981304+937260010+939282345+942010958+945321835+948914297+952288885
2891+955034277+957078149+958498804+959210225+959002958+957769833+955534509
2881+952293321+947882911+941961841+934210403+924856628+915292886+908043158
2871+905600374+908923080+917049516+928054293+940077084+951637574+961697626
2861+969851963+976323924+981573239+985856936+989194493+991741490+994001308
2851+996485559+999295561+1002239027+1005228074+1008341456+1011528706+1014460921
2842+1016818202+1018695951+1020515262+1022475623+1024343857+1025863968
2833+1027072920+1028087849+1028893903+1029512105+1030107034+1030770816
2825+1031390433+1031814932+1032007863+1032026314+1031990569+1032029464
2816+1032122747+1032052930+1031645595+1031033887+1030596529+1030618259
2808+1031052080+1031648938+1032239367+1032774829+1033199715+1033529902
2799+1034001397+1034873540+1036080113+1037218798+1037862522+1037880202
2791+1037565958+1037436287+1037763453+1038324824+1038697699+1038759481
2782+1038782561+1039019722+1039344767+1039485752+1039494688+1039679840
2774+1040114433+1040546969+1040805539+1041004256+1041332772+1041839625
2765+1042435069+1042967445+1043285161+1043334856+1043259252+1043316791
2757+1043608662+1043947015+1044072442+1043921878+1043618370+1043326820
2748+1043184420+1043256359+1043469027+1043635471+1043583525+1043262981
2740+1042751949+1042209801+1041823810+1041720819+1041845475+1041965889
2731+1041876848+1041577969+1041245982+1041074909+1041143505+1041393846
2723+1041731748+1042118382+1042540310+1042968602+1043386223+1043779606
2714+1044119373+1044438632+1044851238+1045372556+1045825857+1046053247
2706+1046132386+1046269450+1046527827+1046756053+1046793276+1046661034
2697+1046488675+1046315995+1046071312+1045711359+1045299653+1044950950
2689+1044722917+1044553323+1044307675+1043908056+1043392716+1042852754
2680+1042357922+1041945380+1041616414+1041328914+1041053308+1040851955
2672+1040812868+1040894579+1040952117+1040941767+1040968832+1041117147
2663+1041368709+1041670353+1041939144+1042058657+1042011148+1041952452
2655+1042053643+1042330792+1042651851+1042797015+1042554903+1041965953
2646+1041433255+1041370895+1041741392+1042140369+1042320185+1042431597
2638+1042734848+1043215600+1043540580+1043391623+1042868054+1042500193
2629+1042743205+1043507472+1044348370+1045054198+1045774040+1046564086
2621+1047144936+1047284507+1047183252+1047245677+1047573229+1047867929
2612+1047799783+1047353489+1046839950+1046632875+1046862129+1047320509
2604+1047678727+1047791811+1047757159+1047713764+1047657704+1047485796
2595+1047211475+1047085662+1047344553+1047831220+1048101812+1047942504
2587+1047504954+1046954705+1046345761+1045815249+1045539579+1045534821
2578+1045727302+1046094134+1046601567+1047190003+1047834949+1048438043
2570+1048770030+1048773695+1048764437+1049062866+1049563805+1049916301
2561+1050014020+1050077602+1050339836+1050832675+1051385880+1051719218
2553+1051669330+1051374501+1051088030+1050922743+1050949873+1051273954
2544+1051774700+1052127131+1052254230+1052409809+1052777799+1053319561
2536+1053914426+1054385407+1054547607+1054391964+1054092571+1053847759
2527+1053813750+1054060298+1054516106+1055022959+1055369412+1055294451
2519+1054727745+1053985015+1053417923+1052994710+1052530287+1052114852
2510+1051980617+1052127581+1052352528+1052571367+1052895962+1053363792
2502+1053741361+1053767205+1053497063+1053174461+1052846909+1052418103
2493+1052015140+1051946608+1052261559+1052642021+1052819780+1052896991
2485+1053141031+1053628212+1054206748+1054661206+1054765097+1054349341
2476+1053508378+1052634949+1052153297+1052273581+1052902841+1053677200
2468+1054227127+1054530057+1054820514+1055156873+1055348004+1055331032
2459+1055345111+1055675491+1056327059+1056948026+1057128613+1056874800
2451+1056652554+1056820605+1057175737+1057227811+1056781067+1056056789
2442+1055341575+1054737903+1054273865+1054039340+1054061712+1054176275
2434+1054220184+1054281580+1054546193+1054929033+1055087698+1054841022
2425+1054389200+1054014846+1053702273+1053196898+1052407624+1051588519
2417+1051044764+1050772757+1050549225+1050306342+1050192872+1050286155
2408+1050490979+1050752571+1051108281+1051483021+1051693310+1051693824
2400+1051587940+1051393788+1051040906+1050590177+1050241796+1050168313
2391+1050466485+1051119982+1051836996+1052134846+1051809544+1051217315
2383+1050958745+1051350650+1052205114+1053014832+1053343477+1053119044
2374+1052603319+1052145261+1052004725+1052310355+1053024733+1053933456
2366+1054756096+1055337975+1055702300+1055869515+1055765174+1055410107
2357+1055005473+1054730574+1054529285+1054147281+1053505356+1052996317
2349+1053125666+1053880932+1054565930+1054532435+1054154738+1054245514
2340+1054795120+1055170760+1055012287+1054551079+1054368949+1054874259
2332+1055844636+1056536384+1056344224+1055352054+1054217163+1053578581
2323+1053588160+1053985465+1054486147+1054946841+1055329682+1055724608
2315+1056226897+1056732079+1056993863+1056797782+1056045860+1054940991
2306+1054073606+1053975501+1054562458+1055251892+1055568065+1055460188
2298+1055108528+1054636198+1054076884+1053532936+1053217535+1053286067
2289+1053689415+1054231178+1054702801+1054938677+1054863652+1054597110
2281+1054438959+1054635169+1055166838+1055765174+1056093498+1056007672
2272+1055724480+1055643347+1055982214+1056653582+1057374454+1057801910
2264+1057761023+1057363653+1056714850+1055785168+1054869373+1054680493
2255+1055437687+1056261870+1056133614+1055228169+1054642498+1054826043
2247+1054880945+1053634448+1050997383+1047978377+1045560151+1043688123
2238+1041212552+1036742739+1029199918+1016472263+992667699+948186869+877253287
2228+789873388+714729207+683169026+706055737+767260548+838838947+899949060
2218+943858620+973473677+994082183+1009360178+1021070139+1030060489+1036852158
2208+1041838275+1045445395+1048129842+1050196536+1051744870+1052839773
2200+1053642227+1054240114+1054447767+1054097971+1053417473+1052718332
2191+1051943779+1050967874+1050151984+1050183678+1051255696+1052655586
2183+1053463054+1053466590+1053011939+1052271138+1051258396+1050184193
2174+1049348823+1049055152+1049599485+1050684617+1051230237+1050683525
2166+1050080816+1050892592+1053393044+1057032501+1061419124+1065496389
2157+1067156971+1065793918+1063440752+1062183904+1062318783+1063082920
2149+1063744646+1063688843+1062434631+1060154498+1057885614+1056806333
2140+1057103283+1057766423+1057867614+1057558770+1057254941+1056713757
2132+1055784654+1055145301+1055479668+1056507325+1057290878+1057189237
2123+1056323523+1055264107+1054450017+1053970615+1053772284+1053817350
2115+1054028089+1054267308+1054443524+1054554101+1054593767+1054558987
2106+1054674257+1055315924+1056350460+1056951047+1056616423+1055945633
2098+1055904103+1056736772+1057888829+1058612143+1058552933+1057991305
2089+1057488309+1057289657+1057247933+1057128934+1056777403+1056233776
2081+1055807219+1055746916+1055866044+1055775139+1055443023+1055346075
2072+1056004458+1057388147+1058933266+1060145883+1060886619+1061218607
2064+1061491835+1062232250+1063279065+1063581995+1062522000+1060805037
2055+1059530767+1059083573+1059262361+1059735655+1060065907+1059886284
2047+1059399425+1059301256+1059972110+1060900956+1061034419+1059914443
2038+1058530368+1058585142+1060589926+1063013488+1063864609+1062815414
2030+1061226065+1060698574+1062076478+1065072982+1068552489+1071449989
2021+1073252006+1073741823+1073033745+1071506627+1069055164+1065289379
2013+1060925321+1057799210+1057354588+1059744206+1063478104+1065618281
2004+1064387727+1061707974+1060943322+1062632319+1064250149+1063777240
1996+1061778049+1059845461+1058558783+1057539740+1056571743+1055682692
1987+1054579752+1053172533+1052354071+1053161796+1055469703+1058299892
1979+1060893691+1062810592+1063804949+1064162909+1064341953+1064108713
1970+1062859259+1060837888+1059304663+1059084859+1059537517+1059731927
1962+1059880820+1060759134+1062235464+1063224034+1062999730+1061874354
1953+1060575075+1059547032+1058997298+1058994533+1059158599+1058824361
1945+1057881307+1057002928+1056866636+1057499753+1058442099+1059166377
1936+1059407075+1059361237+1059392096+1059548703+1059652401+1059643530
1928+1059577633+1059498365+1059425655+1059315013+1059053679+1058612529
1919+1058159999+1057922709+1057883943+1057803389+1057680919+1057877514
1911+1058558590+1059268983+1059395889+1058868784+1058090375+1057465615
1902+1057216303+1057344816+1057624409+1057772852+1057717113+1057627366
1894+1057685676+1057942896+1058399025+1058957053+1059275861+1059079716
1885+1058570162+1058155178+1057908566+1057556584+1056939218+1056239048
1877+1055801883+1055826185+1056153608+1056377847+1056252420+1055915160
1868+1055693621+1055726473+1055900310+1056088805+1056265728+1056482381
1860+1056765702+1057015593+1057111448+1057085089+1057023436+1056889715
1851+1056641496+1056399127+1056282443+1056172252+1055854472+1055429779
1843+1055356812+1055765882+1056162865+1055999507+1055298952+1054711673
1834+1054767668+1055319460+1055855822+1055975206+1055672920+1055357904
1826+1055413707+1055799440+1056156951+1056333552+1056532269+1056917617
1817+1057357288+1057576771+1057450379+1057076539+1056649789+1056326223
1809+1056185045+1056241555+1056424907+1056608066+1056761845+1056965255
1800+1057149057+1057044845+1056592637+1056072990+1055786390+1055874401
1792+1056291315+1056715235+1056802604+1056592637+1056413335+1056464766
1783+1056540305+1056342296+1055952898+1055715736+1055760546+1055874466
1775+1055762153+1055267386+1054519642+1053907612+1053680993+1053768941
1766+1053955571+1054083892+1054155445+1054202890+1054122787+1053808864
1758+1053349970+1052915891+1052562045+1052251659+1052017969+1051931307
1749+1051872869+1051577333+1051012298+1050405475+1049953717+1049630601
1741+1049273284+1048851806+1048567070+1048608922+1048946568+1049221788
1732+1049011307+1048413099+1047722186+1047072804+1046539914+1046168838
1724+1045911233+1045652277+1045357577+1045123308+1045012603+1044888461
1715+1044665636+1044558788+1044715974+1045078049+1045568959+1046178353
1707+1046835771+1047328352+1047551113+1047683227+1047901616+1048065231
1698+1047935882+1047653268+1047438093+1047265414+1047052296+1046821113
1690+1046604331+1046409857+1046337725+1046595459+1047182738+1047614052
1681+1047673005+1047628581+1047661176+1047798111+1047974777+1048058803
1673+1048016372+1047974456+1048042345+1048183652+1048288828+1048330680
1664+1048352217+1048422485+1048582500+1048740522+1048722971+1048447557
1656+1048022029+1047816433+1048315315+1049100218+1049431241+1049439663
1647+1049465057+1049611572+1049684218+1049594600+1049473672+1049457793
1639+1049621601+1049990490+1050423605+1050584520+1050448613+1050297148
1630+1050279147+1050388567+1050500944+1050482107+1050390303+1050376288
1622+1050377959+1050239031+1050054329+1050099139+1050465585+1050809145
1613+1050798280+1050446684+1049914758+1049347473+1048826862+1048432192
1605+1048221261+1048117884+1047959669+1047685156+1047410771+1047292608
1596+1047334010+1047401706+1047452108+1047548927+1047618102+1047501868
1588+1047248120+1047053325+1046997329+1047024202+1047049596+1046995015
1579+1046825163+1046591280+1046435766+1046418086+1046304102+1045904675
1571+1045306403+1044628155+1043755241+1042557218+1041156492+1039768366
1562+1038439901+1036677036+1033038735+1026717210+1019363591+1010465496
1554+997276762+975719930+939582767+885499106+820251040+756506369+704987577
1544+676283815+680700076+724117118+795954023+858699260+895446460+918252103
1534+937897112+956078071+970085396+980181964+988828818+997247253+1004967576
1524+1011420250+1016988824+1021982784+1025844167+1028318132+1029935640
1516+1031141892+1031987805+1032442456+1032580870+1032505266+1032250489
1507+1031756365+1030979305+1030029051+1028931897+1027542165+1025659272
1499+1023133427+1019970285+1016522537+1013331623+1010504070+1007698567
1490+1004671204+1001657149+998928600+996297192+993311938+989250167+983211899
1480+974601239+963081058+948314482+930543944+910810280+890342695+871007944
1470+854336874+839100796+822982546+805664730+790370277+780969508+777191122
1460+776739171+779830887+789900454+806641599+822754770+835588309+846487138
1451+855207281+860331683+861689528+861020152+860422652+860941077+862435151
1441+864230096+866127454+868613054+871562757+873356159+872748372+869463532
1431+862678098+851252486+835221476+815066335+790716280+763395886+735487378
1421+706210930+671727663+632793998+595237593+560091957+524775859+489130860
1411+455994026+429102407+410836555+401326237+399939590+406466326+421194489
1401+445868014+482085410+526545989+572201474+613173418+642529069+653254318
1391+645268611+624617160+600453864+584588141+585192649+600799995+624847057
1381+650574694+671714226+683441610+683199370+669849013+644452078+613514214
1371+587649577+575875262+581583214+599795675+619691153+631226121+628560768
1361+613135038+593882319+579746353+574459557+577342720+585938593+598849792
1351+616906480+641078584+669423485+696889108+718262716+731471701+739079261
1341+747005180+760834103+781536728+804983139+826686164+844967091+859842059
1332+871476352+879935033+885477377+888726279+890613672+892125168+894079936
1322+897215561+902194542+908964739+916212153+922300245+926958231+931560672
1312+937623756+945225401+953044665+959552113+963823273+965658207+965544351
1302+964523251+963609256+963101952+962736149+962725927+964279917+968514111
1292+974968650+981735312+986975884+989943072+990760056+989739020+986906966
1282+981885426+974075935+962894299+947956264+929422681+908301214+886103808
1272+863887436+841398094+816798856+787001604+748742908+700594397+645078509
1262+589261621+543033933+515444361+510794925+527267793+558735976+597708665
1252+637679438+674320240+705502017+730551728+749494059+762984180+772709544
1242+781093392+789835458+798413523+803912665+802398726+791074498+770099930
1232+743015991+715484665+693268744+680645366+679526675+689036414+705631302
1222+723946367+738262471+744565288+742913321+738344632+738297894+747879059
1213+767114355+792164965+818468309+842855202+863841534+881128234+895104893
1203+906358275+915306580+922200790+927277297+930673936+932134193+930755454
1193+924995428+913413337+896419151+877732624+863109927+856216166+855482180
1183+855447978+851065084+840647843+825544586+807876524+788511814+766621709
1173+740997063+712122421+683287253+659354754+643506517+634539441+627409869
1163+616783817+600662481+581551456+564901730+556220160+558630543+572067496
1153+594091901+621352635+650729887+679896207+707421940+732541340+754759447
1143+773624954+788699152+799396757+804629229+802713291+792059532+772742589
1133+748278807+725812159+713208710+714585842+728226849+748640882+770218993
1123+789280259+804035199+813687724+817867144+817112200+813822731+811932509
1113+814737690+822644900+832710803+839701382+837222403+819188023+783586644
1103+737399650+696414913+676434316+682750955+708246381+740791853+771330034
1094+796494307+816877288+834300924+849955072+863973326+876032827+886017146
1084+894236543+901255346+907517532+913166789+918273190+923053325+927727062
1074+932319795+936735605+940886995+944679589+948016632+950906481+953481958
1064+955861353+958064919+960091304+962011806+963972231+966133880+968555320
1054+971058601+973308454+975108929+976484196+977380255+977396905+975815206
1044+971718526+964020447+951378490+932137022+904800427+869218463+827767952
1034+785887864+751729705+733972732+737466639+759713676+792061203+824887939
1024+852115307+872160386+886308118+896455474+903274724+905366041+899536390
1014+882088003+851676150+813345964+779603369+764228877+772500477+797848038
1004+828597793+856812188+880538448+900398696+916698820+929373307+938787513
994+945786258+951233004+955685845+959408042+962582562+965461997+968276628
984+971021377+973439089+975305460+976708436+977999035+979482115+981171948
975+982843009+984296195+985509840+986494617+987096168+987074696+986375168
965+985158309+983526014+981452826+979138170+977062796+975305460+972858561
955+967740716+957902461+942843563+925269813+910770357+904608268+908268169
945+919058414+932578429+945267961+955312005+962208208+966021117+966950349
935+965173918+960689126+953222295+942680141+930284859+919337492+914045296
925+916699270+925826554+937207486+946534837+951132135+949725751+941269000
915+924604423+900193872+872796524+851456861+844692192+854506275+875325777
905+898706099+918539346+932325003+939326576+938995874+931520170+919709725
895+909526431+907125177+914269150+926951931+938751576+944876634+943336787
885+934776980+923142622+914928433+914873980+921968000+930747354+936171985
875+936448555+932208318+924632517+914401135+901592027+886204098+868690394
866+849997117+831404388+814547524+801364125+793714006+792895866+799269015
856+811985869+828915123+846811732+861601517+869027525+866354008+854772688
846+840187213+830470785+830842825+841344542+858192278+876933835+894561588
836+909792716+922407029+932640468+940920811+947656871+952878864+955998674
826+955933807+951367432+941220076+926087503+910069351+900083745+901349079
816+912948592+928604734+942074796+951412949+958344061+964832673+970997591
806+975601638+977462351+976135622+971671852+964445333+955889383+948938406
796+946314391+948161089+952563977+958355247+965954964+975387492+985027738
786+992785605+997632794+999803958+1000218621+999909648+999557153+999272996
776+998907578+998596355+998788836+999679173+1000904326+1001987915+1002870923
766+1003854092+1005155364+1006652652+1008051513+1009220606+1010251864
758+1011209254+1011980399+1012414864+1012526212+1012542220+1012699792
749+1012962733+1013091183+1013000342+1012772824+1012329874+1011431372
741+1010050126+1008477620+1007004569+1005517824+1003359647+999651143+993492976
731+982638827+961425813+922934841+867988809+812327629+779403559+782199418
721+812735992+849749991+875309705+883561118+877677722+864367031+851141716
711+844505690+848156270+861979150+882407647+904391164+924004222+939854902
701+952368474+962091974+969111162+973827394+977325223+980606335+983993844
691+987321822+990181263+992171582+993383813+994262835+994809998+994638539
681+993973856+993765625+994558757+995913902+997120540+997909236+998343700
671+998584976+999002275+1000032890+1001250779+1001663706+1001230978+1000287153
662+999028762+997902035+997554683+997981432+998080694+996379160+992064284
652+985370912+977494624+970220274+964770249+960268227+953830596+943192716
642+929696745+917735349+909128290+897867836+874359709+837918652+801451301
632+779224322+773843986+779945257+795832067+823974523+861801777+899697819
622+929172469+948612782+961094468+969653117+975312339+978454457+980428126
612+982812472+985910424+988949038+991309468+992841794+993488540+993399114
602+993146844+993079084+992523049+990464712+987076046+983562144+980411797
592+976902138+972597034+968388812+965800285+965929056+968914310+973886926
582+979511752+984631333+988533089+990934536+991751133+991040612+989301019
572+987232653+984901217+981672244+977151515+971576126+965031004+956844394
562+946290347+934265884+924088247+919452569+920982645+925498038+928963530
552+929231743+925812282+918446834+906691935+890354074+870012366+847231410
543+823900527+800962705+778223473+756448766+739983742+735643921+747347904
533+772400315+803656281+834529664+861778954+884772706+903544801+917913815
523+927855190+934089861+938228779+942215846+947225107+953200565+959578086
513+965966922+972152219+977905366+982828351+986396319+988414990+989384724
503+990280975+992073284+995120063+998703653+1001457660+1002656648+1003037174
493+1003719793+1004525268+1004478787+1003619760+1002881787+1002685514
484+1002819363+1003102427+1003312009+1003224447+1003039488+1002830035
476+1002028867+1000758583+1000897254+1004036159+1008792057+1011983035
467+1011434201+1007110260+1000859774+994901609+990065864+985329574+978915473
458+970694790+964055356+963063186+968103177+975671135+981786036+985793676
448+989448820+993131415+995297307+995210067+994362097+994649661+995990084
438+996328822+993402135+986714228+978211703+970784409+966067084+963432718
428+961354066+959774231+960408184+964632413+971632122+978572620+981710818
418+980278333+978703127+979848819+982657471+985434558+988094060+991613297
408+995922002+999778049+1002584323+1004992777+1007655494+1010104900+1010595103
398+1007487635+1002370820+998653122+997006106+996803531+998573468+1002504026
388+1005703555+1002375641+988326143+967430844+949480939+939133259+934559105
378+933945404+938424988+948307732+957395093
##END=
