##TITLE=F. Mohr LL-32
##JCAMP-DX=4.24
##DATA TYPE=INFRARED SPECTRUM
##DATE=14/6/2017
##SAMPLING PROCEDURE=Diamant ATR
##ORIGIN=Angelika Moesle
##XUNITS=1/CM
##YUNITS=TRANSMITTANCE
##RESOLUTION=4
##FIRSTX=3997.4121
##LASTX=373.82813
##DELTAX=-1.4160156
##MAXY=0.94322926
##MINY=0.64156377
##XFACTOR=1
##YFACTOR=8.784507e-010
##NPOINTS=2560
##FIRSTY=0.87323326
##XYDATA=(X++(Y..Y))
3997+994060631+993913392+993792887+993854496+994163019+994714520+995317250
3988+995606232+995350769+994687108+994017002+993697283+993743287+993851850
3978+993771717+993549705+993362773+993209766+992885027+992308556+991791659
3968+991746266+992151275+992596520+992870371+993149989+993605140+994143953
3958+994578816+994768938+994621631+994218454+993877227+993893715+994272668
3948+994709499+994725512+994067484+993158810+992807201+993200810+993570264
3938+993348049+992902668+992802315+993138793+993699658+994282371+994713774
3928+994927779+995079429+995407425+995935450+996294251+996067150+995369021
3918+994740779+994548079+994650468+994707803+994631877+994537766+994371325
3908+993814531+992728153+991564152+991095023+991686557+992971538+994452408
3898+995814334+996481794+995873365+994191110+992566394+992488975+994196063
3888+995735150+995654067+994803271+994579427+994946710+995174421+995506353
3878+996075089+995954652+994983757+994273482+994370986+994570878+994645651
3869+995436194+996599992+996777289+996207875+996241801+997016536+997323430
3859+996643282+995343169+993779927+992598420+993439717+996876421+999314887
3849+998882534+997349825+996188809+995688536+995464014+995068437+994518971
3839+994378789+995081668+996090356+996459606+996278170+996387072+997184469
3829+998149393+998483971+997936066+996769215+995500247+995014019+996191184
3819+998045172+998250628+997182094+997079231+998292289+998985058+998313730
3809+996986884+996092052+996374316+997200686+997105286+996333944+996593614
3799+998101082+999059492+999043886+998986687+999094503+998973116+998597487
3789+998051618+997261074+996484372+996341069+996935452+997532414+997655498
3779+997790456+998424465+998989401+998654754+997500456+996201429+995511374
3769+995941285+997101215+997973452+998412591+998834359+998869981+998097893
3760+997286519+997497471+998291475+998285368+997208692+995918554+995732436
3750+997633378+1000019869+1000236385+998907300+998857225+1001229942+1003038401
3740+1002128099+999627888+997279598+996489122+997909264+1000442316+1002053258
3730+1002029985+1001023604+999950660+999492184+999716231+999949710+999718878
3720+999465722+999708632+1000110384+999899567+998849354+997613633+997335915
3710+998596945+1000434173+1001619005+1001966204+1001687943+1001110522
3701+1000767123+1000921215+1001132710+1000907170+1000207548+999113163+997647084
3692+996038110+995060023+995889921+998544427+1000896585+1001482012+1000842710
3682+999989539+999396988+998818142+997795137+996669608+996615666+997451196
3672+997491975+997109086+998192207+1000675727+1002199615+1001994023+1001068183
3662+1000266511+999785101+999489741+999363333+999609297+999947403+999299213
3652+997260056+994880554+994018495+995921743+999078151+1001124228+1001688893
3642+1001317742+1000482688+999497544+998619811+998086562+997964021+997943258
3632+997498488+996574140+996136766+997517691+999980311+1001185227+1000984046
3622+1000504672+1000383284+1000695471+1001075850+1000768684+999481192+997866857
3612+996742142+996267789+996066472+996027118+996407835+997128356+997695259
3602+997901461+997976099+998174973+998449299+998538863+998271187+997705912
3592+997075363+996515177+996031189+995906748+996707402+998229390+999194517
3583+999033708+998336189+997782653+997587714+997557180+997413131+997124420
3573+996899966+996811555+996729522+996788824+997468023+998677960+999278179
3563+998682235+997578622+996815829+996731014+997150950+997653259+997901733
3553+997826960+997518844+997023592+996380694+995791807+995544486+995713709
3543+996023725+996129099+995969986+995785361+995862509+996243837+996667166
3533+996839306+996711405+996483762+996414349+996563488+996736171+996774507
3523+996708284+996544761+996237187+995900506+995732776+995755981+995848803
3513+995915772+995907427+995868072+995975957+996249604+996315285+995838693
3503+995018023+994383267+994194231+994300216+994545433+994906542+995255776
3493+995377299+995278778+995183310+995205633+995268193+995221918+994912988
3483+994368136+993961363+994037765+994387270+994547605+994508386+994632759
3473+995087842+995667977+996040756+995993056+995525691+994869698+994432935
3464+994573253+995210790+995755981+995699460+995179917+994712281+994568571
3454+994656778+994775519+994796214+994722663+994652639+994648975+994701086
3444+994857078+995252994+995879811+996412721+996461642+995981317+995267446
3434+994598426+994114098+993971948+994290513+994879469+995269550+995099513
3424+994400908+993499834+992729306+992278226+992186422+992264384+992091972
3414+991419627+990570188+990123925+990247551+990662534+991139398+991607781
3404+991886245+991732357+991216342+990819408+991044066+991905922+992842484
3394+993240232+993050111+992761943+992866096+993449691+994201424+994683037
3384+994669263+994273550+993751700+993294717+993034708+993046650+993317719
3374+993765949+994212348+994353955+994018155+993457698+993170752+993422483
3364+994062259+994711739+995005538+994760117+994101274+993426079+993081798
3355+993032198+992981512+992824231+992726185+992779449+992872610+992904229
3345+992891337+992912643+993072841+993383128+993627803+993580103+993349474
3335+993258756+993410473+993645105+993890797+994203866+994445827+994335431
3325+993951660+993770495+994040750+994508793+994866102+995040889+995030439
3315+994864745+994707396+994656778+994564703+994292210+993954035+993724424
3305+993594216+993479343+993418344+993518765+993748783+993938633+994028537
3295+994120951+994192399+994017816+993585667+993279111+993362841+993582817
3285+993573182+993358430+993166273+993065242+993058389+993224897+993538442
3275+993802861+993906199+993914477+993878923+993769206+993627599+993641305
3265+993985993+994582548+995059684+995079971+994702375+994338688+994371868
3255+994825051+995356740+995632965+995705092+995852941+996088931+996137716
3246+995891617+995574002+995437959+995521620+995696610+995813316+995778779
3236+995563213+995213301+994911359+994874108+995104670+995415160+995732979
3226+996133577+996567355+996895013+997195054+997652241+998106442+998120216
3216+997617026+997051479+996808298+996810808+996877846+997049037+997348196
3206+997613362+997733460+997747437+997646677+997383751+997080724+996973653
3196+997133037+997437964+997819971+998330490+998931659+999422568+999663442
3186+999692483+999591112+999462804+999494966+999761964+1000065941+1000192756
3176+1000150823+1000004874+999750157+999475832+999378735+999524617+999761760
3166+999913070+999951746+999988114+1000118322+1000321132+1000498022+1000539751
3156+1000341488+999918566+999543277+999584802+1000111198+1000800710+1001291687
3146+1001463760+1001366799+1001082635+1000696421+1000263458+999838026+999599187
3136+999756943+1000246155+1000706803+1000808309+1000452086+999799893+999243303
3127+999147360+999508061+1000037578+1000495444+1000720373+1000562074+1000060445
3117+999516611+999200692+999119609+999127615+999135825+999159370+999233396
3107+999349152+999454933+999457987+999254973+998853968+998460698+998320787
3097+998448552+998591652+998518101+998315766+998278379+998463073+998534792
3087+998132701+997271184+996331502+995733725+995612610+995809855+996202379
3077+996859322+997695463+998238211+998067835+997310674+996445290+995816030
3067+995541569+995661599+996110168+996672526+997142944+997451874+997611666
3057+997690238+997845144+998175380+998516676+998574350+998285368+997903768
3047+997687592+997595720+997361563+996831367+996144705+995562331+995218593
3037+995099309+995180460+995472495+995895688+996216153+996238273+996015786
3027+995724226+995407222+995031050+994688805+994552490+994704614+995114440
3018+995658206+996148980+996514024+996931924+997592667+998356273+998872424
3008+998989808+998824588+998512605+998155907+997913878+997854847+997795748
2998+997539267+997161942+996855591+996621365+996314810+995860948+995268668
2988+994577934+993915292+993441481+993135469+992776124+992242197+991701213
2978+991404971+991388686+991439643+991335015+991082335+990881086+990826600
2968+990760920+990495822+990036464+989528388+989151402+989070997+989302916
2958+989612321+989678341+989339624+988659068+987854140+987171345+986699570
2948+986286012+985714155+985008223+984506729+984546897+985065626+985594871
2938+985684368+985268367+984603350+983900403+983074644+981898837+980327452
2928+978506168+976499717+974310607+972246346+970952611+970832378+971571964
2918+972461097+973109694+973682637+974527598+975770986+977208363+978458740
2908+979318153+979958744+980635839+981334851+981976934+982740744+983804800
2899+984959573+985841242+986388740+986783842+987133076+987476407+987930202
2889+988579681+989356044+990159004+990910940+991410331+991419695+991027782
2879+990608660+990331009+990016040+989524792+988944046+988333853+987617065
2869+986806912+986127984+985833914+985979117+986369877+986700655+986790220
2859+986706694+986607698+986517387+986401767+986389147+986692852+987330661
2849+988099696+988787105+989290838+989644754+990018483+990570255+991253457
2839+991891470+992416169+992894526+993376682+993831223+994241117+994712417
2829+995416857+996336591+997144912+997517623+997512534+997490685+997726268
2819+998189697+998640506+998892169+999044632+999392034+1000023533+1000638883
2809+1000884439+1000797860+1000781236+1001115408+1001599192+1001797320
2801+1001594782+1001309261+1001269432+1001490901+1001781443+1001970750
2792+1002013632+1001985949+1001992530+1002065404+1002204772+1002457724
2784+1002829553+1003172070+1003324805+1003326230+1003330504+1003379968
2775+1003427872+1003529039+1003787623+1004139911+1004381871+1004419529
2767+1004396527+1004564868+1005011741+1005472864+1005551843+1005213194
2758+1004854121+1004800247+1004971098+1005139846+1005277382+1005481616
2750+1005698132+1005715027+1005489080+1005292377+1005343402+1005437581
2741+1005199488+1004585088+1003902497+1003447820+1003285451+1003297189
2733+1003352081+1003445988+1003643506+1003913896+1004151649+1004323926
2724+1004482428+1004662236+1004845165+1004984193+1005052385+1005095810
2716+1005193788+1005355344+1005511404+1005611350+1005686326+1005819655
2707+1006035696+1006229346+1006285391+1006268157+1006379231+1006704310
2699+1007097105+1007324477+1007286141+1007086588+1006917026+1006894295
2690+1007032442+1007298422+1007621872+1007897691+1008050358+1008083402
2682+1008051715+1008007815+1007965950+1007918657+1007936299+1008178055
2673+1008667675+1009133547+1009261516+1009064406+1008826178+1008737970
2665+1008761175+1008776239+1008702823+1008535364+1008363766+1008320816
2656+1008477283+1008816000+1009213748+1009406855+1009203638+1008813964
2648+1008698073+1009013992+1009477353+1009760364+1009779498+1009654447
2639+1009602540+1009769863+1010044732+1010196245+1010202691+1010222572
2631+1010286149+1010270272+1010149088+1010051381+1010067869+1010156688
2622+1010273054+1010458493+1010717892+1010901092+1010887793+1010851560
2614+1011081443+1011525059+1011831479+1011906930+1012042566+1012380198
2605+1012711655+1012943641+1013268584+1013730928+1014092172+1014231812
2597+1014286907+1014366973+1014451991+1014500845+1014463798+1014337729
2588+1014300546+1014561844+1015050242+1015463258+1015606765+1015493045
2580+1015199788+1014850215+1014659076+1014796205+1015214919+1015708543
2571+1016088243+1016280807+1016348998+1016388759+1016314665+1015909181
2563+1015273340+1014950771+1015284875+1015884212+1016078675+1015731816
2554+1015298242+1015230390+1015599776+1016182964+1016692261+1016980157
2546+1017141374+1017352325+1017547604+1017425538+1016906063+1016424856
2538+1016517339+1017132485+1017646871+1017627872+1017275246+1016967740
2529+1016757874+1016581934+1016586208+1016896224+1017316432+1017560563
2521+1017640086+1017809309+1018193826+1018620615+1018838556+1018798184
2512+1018622515+1018406067+1018177406+1017970796+1017793296+1017632283
2504+1017577594+1017796960+1018331430+1019048151+1019777628+1020355320
2495+1020654818+1020749472+1020851114+1020982611+1021004256+1020977862
2487+1021037707+1020972434+1020550326+1020122927+1020207538+1020661671
2478+1020954046+1021016945+1021204623+1021636569+1022106580+1022442651
2470+1022605496+1022558949+1022307015+1021998288+1021818345+1021794257
2461+1021816716+1021793036+1021661810+1021348062+1020850707+1020276679
2453+1019727756+1019283869+1019072102+1019127063+1019219273+1019069660
2444+1018736710+1018566537+1018768668+1019211538+1019615868+1019754354
2436+1019530239+1019095172+1018835095+1018971342+1019264531+1019365902
2427+1019328244+1019496110+1020023523+1020722942+1021312101+1021652311
2419+1021792900+1021867605+1021940343+1021931725+1021734005+1021409536
2410+1021186575+1021202995+1021371132+1021547683+1021704489+1021873780
2402+1022056912+1022222403+1022316853+1022318889+1022330559+1022478477
2393+1022677826+1022653603+1022311425+1021934100+1021878597+1022197705
2385+1022679183+1023096337+1023294397+1023170771+1022739436+1022190445
2376+1021873644+1022197366+1023280420+1024594238+1025308788+1025174373
2368+1024651302+1024134541+1023685157+1023536697+1024079716+1025162974
2359+1026046543+1026181365+1025666164+1025025302+1024796776+1025057532
2351+1025254777+1024852551+1023939873+1023041784+1022601018+1022604614
2342+1022713855+1022819297+1023149805+1023760405+1024218202+1024050879
2334+1023416056+1022968029+1023086906+1023544907+1023865101+1023770243
2325+1023367270+1023030521+1022953509+1022862858+1022492387+1022138335
2317+1022236042+1022647225+1022817465+1022454322+1021764742+1021145388
2308+1020841072+1020864753+1021129172+1021559625+1022038185+1022371406
2300+1022492115+1022560578+1022678097+1022711684+1022583308+1022465449
2291+1022543276+1022800774+1023129110+1023463756+1023805391+1024179323
2283+1024589217+1025022927+1025443203+1025678920+1025541317+1025168605
2274+1024906900+1024820592+1024798201+1024963625+1025385596+1025683602
2266+1025560247+1025426375+1025923255+1026978761+1027831390+1028001291
2257+1027839125+1027909012+1028242844+1028596964+1029042887+1029822778
2249+1030906375+1031935351+1032405972+1032007070+1031055989+1030390157
2240+1030640870+1031747672+1033074382+1033823129+1033594332+1032705471
2232+1031729691+1030837302+1030010525+1029631096+1030152539+1031248417
2223+1031980336+1031887108+1031383035+1031103689+1031306770+1031798900
2215+1032171476+1032346194+1032831540+1033990656+1035374769+1036312687
2206+1036688452+1036629624+1036109945+1035342403+1034915139+1035081038
2198+1035426811+1035546638+1035640817+1036131047+1036981165+1037669320
2189+1037640890+1036608251+1034731328+1032780990+1031878966+1032759888
2181+1035136541+1037705893+1039043459+1038732765+1037536195+1036520654
2172+1036159613+1036073780+1035447981+1034029671+1032757920+1033019354
2164+1035323134+1038799667+1041744580+1042913195+1042889582+1043402069
2155+1044792831+1045812647+1045676061+1044712834+1043455400+1042102499
2147+1040897447+1040299943+1040334004+1040254210+1039579490+1038968143
2138+1039128885+1039506074+1039222453+1038636144+1038671969+1039314664
2130+1039897648+1040214449+1040490810+1040755026+1040827424+1040734874
2121+1040779453+1041155217+1041553780+1041316027+1040183576+1038715123
2113+1037631730+1036965084+1036313026+1035683835+1035525740+1036018345
2104+1036795861+1037386988+1037720006+1038129018+1038872947+1039798856
2096+1040571147+1040979141+1040979752+1040793227+1040864946+1041253671
2087+1041328376+1040607991+1039513334+1038759566+1038516792+1038665320
2079+1039279109+1040261878+1041002686+1041032609+1040748852+1040898194
2070+1041512187+1041909324+1041739287+1041526503+1041984097+1043019926
2062+1043774373+1043656717+1042940404+1042234675+1041848190+1041827563
2053+1042091711+1042348802+1042313655+1041995564+1041490678+1040884420
2045+1040656166+1041401791+1042870584+1044121368+1044782382+1045316038
2036+1046149057+1047410833+1049260886+1051621254+1053804664+1054955095
2028+1054693389+1053343134+1051875835+1051415730+1052326576+1053761171
2019+1054367225+1053483249+1051764693+1050619826+1050803094+1051771343
2011+1052536103+1052632181+1052151857+1051413695+1050806962+1050447075
2002+1050034195+1049469124+1049219768+1049637397+1050423734+1051249018
1994+1052364844+1053916959+1054913637+1053965948+1051345435+1049161483
1985+1048943814+1049781650+1049801056+1049185570+1050312457+1054439216
1977+1059410325+1061957829+1061428176+1059414803+1057383314+1056229084
1968+1056444785+1057465551+1058026687+1057844097+1057735466+1058163002
1960+1058821166+1059205344+1058959924+1058083751+1056973149+1055952112
1951+1055072614+1054620652+1055037535+1056092362+1056942073+1057154382
1943+1056958764+1056582118+1056106272+1055882156+1056337240+1057322519
1934+1058108788+1058212262+1057900822+1057631042+1057359091+1056763826
1926+1055939220+1055416488+1055490786+1055888127+1056327130+1056974506
1917+1057957546+1058855024+1059144481+1058796740+1058132265+1057486924
1909+1056981495+1056508770+1056089851+1056020167+1056463920+1057228883
1900+1058068416+1058885761+1059641904+1060383594+1061257121+1062259092
1892+1063163423+1063766356+1063980497+1063821384+1063498273+1063351373
1883+1063596455+1064126786+1064605346+1064800760+1064772602+1064735351
1875+1064846628+1065126925+1065514496+1065997873+1066645521+1067338358
1866+1067686845+1067582285+1067401935+1067530922+1068014299+1068613772
1858+1069093010+1069416936+1069665546+1069833887+1069836736+1069631755
1849+1069176401+1068439799+1067656516+1067347382+1067794934+1068546598
1841+1069012470+1069232378+1069536423+1069998088+1070350037+1070410493
1832+1070415107+1070759727+1071509153+1072304310+1072915318+1073421969
1824+1073741823+1073601369+1073017299+1072306617+1071667112+1071018583
1815+1070180203+1069041443+1067620079+1066186163+1065288820+1065354704
1807+1066246483+1067386668+1068275122+1068928266+1069741744+1070752806
1798+1071364560+1071143091+1070268004+1069034658+1067479422+1065570745
1790+1063476968+1061285280+1058709889+1055345990+1051136791+1046530182
1781+1042025555+1037785347+1033685322+1029584211+1025681634+1022522241
1773+1020443052+1018887749+1016787322+1013881085+1010561696+1007105926
1764+1003683878+1000541380+997694174+994316229+989287988+982610536+975616894
1754+969866029+966062517+964618423+966334264+971297367+977878266+984255948
1745+989606350+993584310+995614035+994710314+990335623+983342252+974655160
1735+963709749+950039808+936119697+924018291+912838723+901545367+889504960
1725+875589870+858886198+840239991+821401220+802897909+784722527+769200770
1715+759480562+754814787+753259280+754214161+757364190+762507440+770092277
1705+779411004+787589478+793815104+800931422+810218191+817941378+822738719
1695+826939572+830595981+832853689+834826961+837739441+841004887+843781527
1685+847698012+855153795+862986088+866582583+867115900+867016293+867765922
1675+870247203+873998265+877547061+880973995+885680821+891119702+894812819
1665+896522486+897908838+900163289+903060909+905671447+907649333+909123011
1655+910620437+913959299+920833793+926755984+928503309+928920260+930662767
1645+933720925+935899314+936833704+937610881+938697191+940032315+941920433
1635+944870774+947689211+948443657+947410135+945666000+943841391+942276860
1626+941519903+942605738+946202505+950997132+954928681+957991521+961801954
1616+967113680+972364883+976523872+980248201+983972258+987190072+988941400
1606+988289410+984147384+974914219+958624037+934078301+902454991+867980742
1596+837022517+815665622+806480360+807409932+814346986+824032589+834716227
1586+845594600+856269010+866407593+875441545+882518510+887081218+889370274
1576+890228534+890511951+890756761+891802157+895046026+900847305+906743645
1566+910558149+912777520+914176764+914905224+915823397+919528727+926533904
1556+931564927+933968178+935951492+938088152+940268644+942468270+944406327
1546+945798990+946913594+948192808+949886123+952696553+956783008+959631843
1536+960277930+960326172+961332079+963446144+965288665+966162870+966649844
1526+967393909+968488701+969873900+971836859+974268607+976107668+977026045
1517+977903439+979210133+980507803+981439682+982129941+982875091+984432702
1507+988135997+992815953+995439451+996366174+996871739+997180737+996092323
1497+990995823+980723572+967901374+954767600+940390234+923459937+907292839
1487+898313779+897901171+902943661+910329827+917882909+924079222+928435728
1477+931546132+934270526+937212589+940489366+943039584+943435365+941690550
1467+938575804+934797736+931293384+929018170+928050600+927893794+928035334
1457+927403699+924364947+919115101+912972323+906599663+900367456+894391526
1447+888513099+882978954+878860676+877425742+879077192+882770376+887000881
1437+890936976+893673176+893929318+891908006+889150772+887309472+887528906
1427+889857519+893834596+899112465+904824993+909879018+914469207+919727602
1417+925317793+929588195+932509427+935194399+938239258+941511489+944629764
1408+947475002+950331300+953387694+956227029+958437919+960353313+962463918
1398+964577440+966175423+967055803+966459451+962614346+954460163+943044130
1388+931634611+923781216+919117069+913940707+906617101+899259975+894942552
1378+894420973+896099089+898476081+901348731+904939460+909080671+913438127
1368+917535439+920724415+922723539+923753736+924066059+923985247+924376889
1358+926348940+930462468+936308936+942728143+948582211+953373581+957215836
1348+960472461+963400411+965985980+968080639+969666409+970944740+972204345
1338+973585812+974983496+976247239+977345085+978333417+979331452+980491722
1328+981878888+983395652+984855352+986097180+987067056+987803997+988313973
1318+988532388+988451237+988194757+987971184+988006128+988391731+988993239
1308+989624195+990203515+990677597+990990124+991176581+991351843+991643878
1298+992157925+992853476+993488231+993833394+993880755+993778027+993714518
1289+993898939+994494341+995493258+996688132+997742145+998221994+997759854
1279+996533294+995158612+993264319+988921520+981142626+972155831+964896141
1269+958945248+951657128+942553357+934024834+928515251+927080792+929719420
1259+935126140+940616996+943458842+942163954+936547436+927039945+914023351
1249+897875523+879848669+862648863+849601533+842976055+843052525+848583617
1239+857777564+868834795+880151560+890644059+899940327+908086572+915109865
1229+920832707+924900299+926945834+926867533+925023451+922211324+919483131
1219+917742252+917145697+916782214+915147455+911144797+904743978+896850279
1209+888723712+881491638+875920241+872399400+871077440+871872937+874169252
1199+876593265+877453357+875692666+871525059+866089571+860290395+853793701
1189+845201873+833478335+819465470+806027108+796547504+793165964+796169229
1180+804514076+816598587+830776807+845582047+859788426+872501043+883137456
1170+891076005+895555730+896440385+894991677+893475863+894033335+897883529
1160+904974200+913997635+923094418+930893599+936926525+941295177+944260106
1150+946068158+946945824+947243695+947580376+948664991+950787198+953341012
1140+954770518+953124428+947056898+936513035+922300550+904990349+884682853
1130+862127760+839677634+820673100+807874854+802389494+803537889+809374859
1120+817565885+826196864+834109698+840881939+846737906+852282230+858036623
1110+864189240+870737230+877615931+884623076+891432635+897786162+903572445
1100+908747043+913300998+917314106+920965765+924439177+927748116+930643768
1090+932769640+933931266+934163524+933493824+931645875+928081202+922544885
1080+915697803+909184960+904945566+904151834+906421212+909701178+910679197
1071+905662016+892353251+871909713+848901164+828426617+813472034+805136076
1061+803952669+809702448+820567454+833628152+846239533+856739700+864336546
1051+868848976+870449944+869311795+865577831+860081004+855033697+853288339
1041+856392840+863523951+872439705+881136025+888558356+894359432+898563271
1031+901444131+903405190+904782382+905735228+906332122+906659305+906728921
1021+906326965+905163982+903182839+900516187+897259969+893689868+890656408
1011+889297265+890254792+893391387+898127593+903740650+909487444+914850942
1001+919746125+924308291+928360073+930941299+930259319+924550251+913925848
991+901635542+892620181+889989694+892913709+897894386+901595509+902525625
981+900894666+897579688+893341312+888778740+884528286+881158145+879038584
971+878405253+879169470+880559826+881330693+880487496+877738200+873416434
961+868228877+863083048+859035065+857114718+857831778+860818216+865227647
952+870522071+876661049+883598307+890947493+898223604+905106783+911331051
942+916577233+920664502+923612333+925274503+925090828+922585800+918337585
932+914348091+913061209+915708998+921603167+928965381+936159662+942142038
922+946279925+948257200+948264867+947171296+946265269+946479545+947679169
912+948794927+948757948+947354836+945319208+943747959+943417927+944514958
902+946794175+949742955+952530994+953899094+952029093+944534364+929306541
892+906402485+879345003+854068841+836129720+828361004+830303675+839256408
882+851977981+865933918+879529765+891727249+901839369+909687608+915618009
872+920129625+923529825+925949359+927434979+927842498+926841952+924358908
862+921091766+918458905+917835005+919647604+923102018+926702109+928979223
852+928818685+925236981+916928570+902429275+881796632+858957171+841661219
843+837287886+847502191+866947424+887144049+901384422+906415173+901234537
833+885881527+861418164+830534847+798552056+773584552+762371804+762650472
823+762349006+751859289+736270901+730335546+742122865+766602445+793945719
813+818271885+838216983+854048553+866418110+876333392+884912600+892803857
803+899834682+905509077+909917762+913861524+918014678+922251832+926025896
793+929247442+932265499+935005906+936844424+937318099+936222425+933304653
783+928953575+925128621+924509336+928228440+934851475+941762338+946902602
773+948804698+945560150+934109920+911004208+876691651+841110600+820897147
763+825774011+849415618+877066194+899281349+915299240+927320648+936523688
753+943327548+948205972+951751103+954528015+956748540+957856088+956630341
743+952466399+947041970+943811129+944959117+949442100+954211349+956086915
733+952445976+942469831+929232175+919042839+916735057+921794984+929841147
724+937048862+942278759+946037896+949032681+951726880+954345900+956882072
714+959187480+961204313+963070447+964881824+966507626+967837254+968980832
704+970062800+970975749+971277555+970393646+968531109+967171287+967247145
694+966846547+962828690+955395503+949068710+947985792+951577199+955367548
684+953728854+941481023+917110075+887201859+864659115+858901261+868577636
674+884869718+899629022+909941103+917103357+923255702+928424329+931535140
664+933360699+935186257+937624858+940851696+944827688+949144569+953179320
654+956655786+959674454+962249506+964214093+965510337+966304138+966843222
644+967424510+968450297+970122781+971999975+973240513+973426699+972840322
634+971959332+971082887+970471812+970478529+971269005+972539059+973779326
624+974803213+975702523+976309188+976134266+974827640+972233793+968031650
615+961901764+954296232+946777483+941309019+938966564+939277122+940886504
605+942782696+944820021+947381705+950801379+954926849+959171874+963159944
595+967087082+971097000+974397593+975463141+973436877+968514892+959933920
585+944954300+923063546+901527725+892406040+901252178+921741721+942934210
575+958224049+966107978+965302371+953145123+930692283+907324933+895503620
565+899863315+914578991+930828597+943852044+953389933+960461673+965305831
555+967664910+967889704+967092307+965960264+963652617+958750242+951969655
545+946909456+946556354+949713168+952237195+950948821+945762417+939515011
535+936353040+938773660+945544409+953184613+959177845+963098945+965474715
525+966850007+967731473+968499218+969335630+970451185+971843305+972535870
515+971129434+967817441+964844845+964492218+967095971+971243900+975369438
506+978704025+981143644+982842862+984103213+985416556+987248967+989563671
496+991598485+992511434+992426822+992304621+992629564+993045225+993358023
486+993915224+995017412+996697835+998880159+1001195202+1003021438+1004083458
476+1004705118+1005286949+1005271072+1001613713+988563261+961222837+921272388
466+879685485+850495958+840400122+845807384+858872831+874399881+889454614
456+899590889+901512933+897041689+892157838+893410046+903268333+918696862
446+934042068+945412437+952636369+957408740+961322308+965233908+968908298
436+971621089+973654953+976133044+979022522+980785792+980383294+978488798
426+975731089+970586346+960855893+947011505+932034260+919751214+913218490
416+911401074+911537050+912473340+913599819+914224939+915075871+918663411
406+926074682+934478357+940299584+944076159+949620075+958771954+968175632
396+973935861+977997618+982550080+986403939+988247749+987774753+984732540
387+979614327+974858580+972255777+969720147+965101936+959637203+955151371
377+952301112+953483026+961998860
##END=
