##TITLE=X8858
##JCAMP-DX=5.0
##DATA TYPE=LINK
##BLOCKS=1


$$ === CHEMSPECTRA SPECTRUM ORIG ===
##TITLE=X8858
##JCAMP-DX=5.00
##DATA TYPE=INFRARED SPECTRUM
##DATA CLASS=XYDATA
##ORIGIN=ComPlat
##OWNER=
##XUNITS=1/CM
##YUNITS=TRANSMITTANCE
##XFACTOR=1
##YFACTOR=8.4778268e-010
##FIRSTX=3997.453
##LASTX=373.96442
##MAXX=3997.453
##MAXY=0.910299719483243
##MINX=373.96442
##MINY=0.3481406875635454
##NPOINTS=2559
##XYDATA= (X++(Y..Y))
2559A073610280A073137960A072385399A071930305A072176870A072884013A073488438
2552A073731839A073741822A073675735A073566338A073418202A073273511A073199057
2545A073234632A073297697A073185206A072800841A072337099A072085191A072155216
2538A072495992A072981599A073319140A073201658A072771945A072527559A072601873
2531A072702341A072767586A072959030A073043890A072518419A071402302A070480234
2524A070579788A071649642A072811879A073312813A073153217A072766742A072347926
2517A071926790A071734572A071936703A072174691A071800590A070784872A070075971
2510A070514051A071827588A072911362A072945180A072184885A071347464A070770528
2503A070564179A070900174A071661594A072246052A072216312A071899863A072057490
2496A072877615A073591297A073216774A071690068A070095587A069196929A068583715
2489A067873830A067459584A067681542A068193303A068347274A068199912A068709001
2482A070044263A070959372A070370063A069090274A068591801A068725102A068945372
2475A069622564A070649250A070948053A070108382A069090836A068573169A068086367
2468A067590144A067585855A067714304A067375217A067026848A067561318A068919851
2461A070596239A072328873A073477611A072174410A067643295A064233219A064553676
2454A066642834A068794354A070371751A070929070A070127998A068459976A067035355
2447A066423618A066400979A066701118A067255906A067903359A068519315A069124021
2440A069523854A069398779A069090274A069385631A070000321A069499669A067790377
2433A066870838A067033315A066887500A066479932A067037675A068595105A070283375
2426A071302117A071188712A070530503A070526917A070824595A069936975A068212989
2419A067821522A068817906A069657647A069859005A070032100A070451408A070958106
2412A071488288A071911955A071904433A071472680A071093306A070896026A070436503
2405A069661655A069356806A069984151A071047396A071904151A072171879A071626370
2398A070525089A069703347A069641125A070107890A070714425A071114187A071009009
2391A070592443A070696145A071695552A072913683A073388322A072287744A069513730
2384A067082812A066993593A068263680A068664005A067513861A066900929A067954753
2377A069474218A070192891A069633883A068076524A066431774A065786078A066574777
2370A068291803A069886987A070376320A069687035A068961683A069153901A069909204
2363A070503153A070867552A071335512A072081113A072897371A073098870A072100447
2356A070803643A070646860A071508537A072370987A072398266A071322576A069863224
2349A069287202A069870887A070902284A071818026A072446074A072577125A071785755
2342A069818860A067497972A066467559A067189537A068848490A070452322A071301272
2335A071185056A070139669A067842896A064417984A062355190A063349536A065205839
2328A065422523A064421921A064609429A066310706A068149362A069217599A069558937
2321A069552117A069049285A067471326A065188192A063883303A064137953A064560425
2314A063394110A060503738A058223136A057903101A058603424A059430510A060252042
2307A061200688A062050904A062262175A061692693A060943014A060768513A061038069
2300A060484335A058149877A055766275A055551278A056629850A057568302A057891007
2293A057402870A056111691A054927870A054681376A054839706A054590118A053949133
2286A053115860A051718659A049799924A048551069A048682753A049302575A049132996
2279A047903406A046526945A045921676A045984741A045934331A045358240A044654190
2272A044112549A043127062A040961622A038387349A037006810A036692610A036264373
2265A035265388A034115736A033262848A032649564A032052169A031493584A031064503
2258A030516042A029204756A026535077A023027696A020583349A020105897A020592348
2251A020913719A020854310A020789277A020821758A020487943A019271359A017242313
2244A015135437A013556705A012329645A010872613A009009209A007187146A005765900
2237A004522740A003126874A001659366A000351665I99038199I97380863I95510499
2230I93828767I92368431I90854099I89226573I87571277I85651909I83137115I80271000
2222I77736099I75833886I74224358I72425637I70230245I67639872I64742118I61755076
2214I58996178I56708334I54882263I53124529I50835490I47941815I45183339I43125748
2206I41383483I39233017I36652628I34245825I32233723I30119746I27413649I24331974
2198I21564286I19416283I17499938I15350035I13016562I10727874I08315447I05544456
2190I02683473I00146462H97822973H95376376H92906649H90727639H88751886H86607959
2182H84178728H81652264H79229712H77002120H74931594H72823382H70486956H67981865
2174H65517762H63117357H60615219H58016057H55619308H53682364H52154252H50830380
2166H49545528H48185308H46666828H44954794H43105874H41298715H39677025H38114884
2158H36346816H34376265H32495707H30922036H29649347H28573377H27549081H26401397
2150H25021070H23439525H21833021H20436803H19383050H18678508H18344201H18366558
2142H18462456H18158451H17189346H15695543H14056347H12690572H11955096H11939840
2134H12238431H12174663H11450787H10413555H09560245H09023666H08688304H08544738
2126H08673891H08972413H09113307H08881014H08450597H08175277H08164872H08257325
2118H08302321H08236936H08003589H07666891H07518825H07799489H08364752H08857321
2110H09175669H09619654H10548755H11932808H13235729H13817656H13556115H13024668
2102H12986563H13711634H14750342H15373329H15267939H14737758H14239495H14004250
2094H14168837H14895455H16108524H17363425H18221024H18666063H19019424H19521413
2086H20162468H20902092H21807781H22853520H23816649H24572724H25322052H26321810
2078H27472939H28373284H28794912H28916472H29035853H29260060H29567581H29962985
2070H30540412H31498620H32907350H34381398H35366954H35849960H36329379H37087214
2062H37990161H38985912H40259655H41808086H43236644H44177837H44748867H45397444
2054H46383844H47620044H48932526H50176529H51149853H51750411H52258585H53170321
2046H54634032H56269995H57651166H58760392H59814638H60906710H62073937H63441400
2038H65004947H66511615H67748869H68775133H69826778H71115075H72617173H74044888
2030H75207195H76293220H77549738H78919660H80299777H81801313H83426519H84851421
2022H85850406H86625254H87487564H88510313H89642810H90872611H92175883H93539619
2014H95031382H96654408H98210291H99471942I00425017I01279944I02316332I03684075
2006I05322850I07119955I09013730I10822155I12270399I13377375I14439495I15531848
1998I16481759I17359817I18528522I20168773I22067471I23847070I25277315I26436388
1990I27563402I28706304I29729897I30739287I32133325I34064082I36149303I37869493
1982I39024277I39818249I40695885I41973917I43516723I44959483I46180918I47259068
1974I48125456I48682213I49140682I49884735I51061948I52466883I53757429I54790865
1966I55750689I56832214I57928012I58876587I59825303I61003429I62299530I63369314
1958I64076668I64598553I65116501I65628333I66150851I66873953I67903170I69036229
1950I69991063I70681262I71157729I71503075I71893557I72565617I73584499I74654564
1942I75265879I75185589I74745751I74460588I74468533I74592765I74764383I75083645
1934I75591258I76241734I77011379I77822786I78492105I78989101I79619609I80610018
1926I81597614I81917368I81355337I80254056I78983336I77707062I76623779I76068568
1918I76242788I76997950I78023863I79181741I80490356I81824633I82869529I83409483
1910I83507068I83355839I83021180I82371899I81295085I79894860I78343687I76695984
1902I75104596I73985668I73643697I73980817I74842423I76280472I78215097I80223824
1894I81907805I83146325I83874631I84010252I83704911I83314499I83008806I82611293
1886I81808392I80406761I78506588I76437185I74360402I72118116I69693807I67519156
1878I66108667I65765079I66718927I69027231I72248675I75673446I78891586I81802909
1870I84219414I85864164I86689493I86920098I86834393I86610257I86294581I85886029
1862I85519733I85470588I85824511I86255069I86313001I85868102I85135789I84373174
1854I83630808I82666483I81099070I78785705I75996926I73098751I70218996I67303596
1846I64290540I61179477I58109965I55333350I52959380I50816086I48656410I46402384
1838I44148005I42018210I40030645I38066702I36013823I33899706I31771739I29478903
1830I26700811I23214311I19073538I14510083I09707164I04736775H99735802H95001782
1822H90789720H87112267H83856935H81006217H78649261H76904676H75899503H75678319
1814H76108525H77017446H78347787H79996615H81626531H82879464H83721595H84464102
1806H85529105H87202963H89432523H91831733H94009126H95867678H97478541H98777384
1798H99607704I00044448I00455670I01166047I02194702I03383656I04643197I05968475
1790I07318219I08601453I09751176I10749810I11578091I12148698I12301545I11934123
1782I11160189I10273905I09489565I08750011I07818169I06505053I04805464I02907188
1774I01080695H99484597H98135766H97143812H96794318H97235070H98290511H99756964
1766I01694612I04270924I07461012I11039894I14785825I18602836I22438689I26181457
1758I29723710I33079580I36341240I39524368I42506628I45135179I47417539I49557670
1750I51708276I53819510I55862828I57977296I60201373I62278579I63896542I64982356
1742I65753267I66570159I67660542I68960791I70332682I71770730I73229803I74500241
1734I75449309I76168895I76764884I77213299I77503736I77780814I78250039I78943050
1726I79637538I80120403I80440439I80739451I81001274I81240527I81742796I82753664
1718I84028110I85014932I85452731I85540403I85586242I85731144I86005199I86433647
1710I87000247I87583370I88003029I88189201I88278631I88434570I88597541I88591424
1702I88472817I88544108I88980641I89628094I90222395I90670880I91041817I91367758
1694I91580365I91642727I91648281I91755217I92079330I92640517I93347870I94032374
1686I94526700I94750556I94761876I94727777I94787889I94931244I95026509I94964077
1678I94788522I94691569I94802231I95000847I95071435I94999582I94939118I94964710
1670I95061241I95263864I95605062I96002715I96344616I96615366I96818904I96881336
1662I96773978I96654035I96734817I97047470I97447936I97800031I98061009I98243876
1654I98368037I98398902I98270522I98038229I97907389I98016505I98310175I98678300
1646I99075813I99453570I99704775I99750474I99644522I99585535I99782815A000249158
1638A000771747A001153300A001371461A001453298A001372024A001151050A000882971
1631A000592114A000269055A000029943A000027763A000212177A000355462A000283327
1624I99996406I99663716I99541523I99743865A000077400A000258579A000274328
1617A000319324A000431393A000461414A000419511A000529963A000863144A001191616
1610A001321614A001333425A001411466A001593700A001753577A001788730A001798011
1603A001961052A002221889A002332129A002259573A002268854A002564422A003115555
1596A003776436A004340505A004610834A004614701A004608936A004763890A004998434
1589A005177223A005320156A005518632A005732504A005819543A005766111A005720130
1582A005784179A005952845A006229501A006609718A006970742A007145313A007115433
1575A007084498A007331134A007918193A008564239A008937919A009024536A009039792
1568A009086265A009112841A009111576A009153619A009249166A009295076A009173094
1561A008890673A008631382A008589128A008730163A008841035A008840755A008886525
1554A009116216A009438079A009614197A009483216A009158048A009016451A009324112
1547A009886846A010258275A010215247A009890572A009558233A009364468A009202271
1540A009015889A009191795A010133762A011370032A011789902A011032279A009977892
1533A009594511A009872714A010162025A010072947A009712837A009349423A009162267
1526A009213309A009465499A009835592A010217357A010435236A010350095A010089891
1519A009954340A010046230A010243651A010520096A010990588A011593888A011953365
1512A011738719A011129091A010680325A010626892A010664857A010595816A010713369
1505A011255573A011888402A012011368A011414958A010576834A010289139A010847092
1498A011733024A012297375A012473282A012561587A012682302A012677874A012322052
1491A011589248A010872894A010717095A011174016A011717979A011908509A011797214
1484A011624541A011468180A011273642A011029326A010890401A011148918A011901198
1477A012704309A012875786A012282259A011548118A011310201A011518097A011647461
1470A011367009A010797666A010297014A010159634A010384475A010641305A010608472
1463A010363453A010269102A010502028A010907134A011297616A011637900A011866326
1456A011805651A011435979A011063566A010970410A011068206A011124100A011086556
1449A010941443A010614448A010321973A010596871A011596769A012739532A013356261
1442A013397531A013232100A013041710A012732502A012250902A011695410A011181258
1435A010823821A010813064A011259932A011963630A012513286A012669367A012531074
1428A012317904A012113804A011891636A011710737A011733727A012015938A012407194
1421A012703465A012795356A012683498A012504709A012499084A012761327A013081433
1414A013271190A013529075A014137085A014904762A015328429A015262271A015113151
1407A015399368A016230040A017168491A017632233A017345664A016307729A014676899
1400A012964021A011817955A011417137A011535885A012046943A012874802A013686842
1393A014010955A013772335A013418904A013184221A012862709A012438691A012255613
1386A012513989A012933860A013020618A012643494A012196415A012011368A011923133
1379A011729720A011622713A011854514A012282962A012467165A012114578A011436401
1372A011061527A011340995A011842984A011962574A011795878A011833703A012148887
1365A012477641A012742485A013030953A013327225A013531254A013587288A013525981
1358A013490406A013632847A013883419A013975732A013813605A013658790A013826752
1351A014327616A014920862A015403024A015744855A016035642A016353850A016671987
1344A016875102A016883539A016740254A016594931A016573698A016620171A016569831
1337A016443772A016529967A017145149A018356742A019753591A020504535A020063292
1330A018887556A018146103A018703001A020452227A022384039A023255629A022557696
1323A020885386A019284225A018384794A018127191A018068485A018047463A018587206
1316A020264017A022647478A024451121A024958453A024700850A024394806A023957710
1309A023209508A022744712A023140116A024056491A024968155A025796718A026157812
1302A025345701A023585507A021963536A021040341A020742804A021157964A022225779
1295A023202759A023418319A023119094A022960904A023092307A023174003A023108407
1288A023338732A024266426A025687672A027038893A027905843A028066845A027394082
1281A026000536A024311211A022880755A022151465A022201735A022634190A022894394
1274A022872178A023082816A024017471A025411789A026448670A026578878A025955398
1267A025352380A025881156A028203239A031492881A033482204A032222452A028329721
1260A024885405A024036946A024927659A025626295A025424374A024705350A023790521
1253A022692615A021461759A020374257A020010562A020844256A022388258A023279041
1246A022707238A021384914A020704276A021155082A021928805A021984698A021071909
1239A019685605A018507619A018053931A018437454A019233323A019824320A019931818
1232A019618462A018927912A017851449A016624811A015773821A015609233A015733606
1225A015422781A014588312A013930806A014037039A014766610A015579494A015998942
1218A015735504A014814348A013767765A013484851A014579313A016748550A018838271
1211A019722094A019159501A017785431A016503181A015967515A016328539A017244211
1204A018245797A019123012A019862145A020360126A020510933A020554312A020921101
1197A021441581A021053910A019062057A016595142A015717224A016945127A018825124
1190A020067440A020946974A022266065A023809715A024375260A023110517A020652249
1183A018956316A019711617A022797934A026389261A028467803A028491707A027593330
1176A026985390A026846464A026925840A027149485A027454264A027836942A028422806
1169A029270352A030611308A032553525A033876342A032745603A029407168A026332945
1162A025176333A025134430A024671813A023765000A023619887A024764126A026569808
1155A028445234A030023334A030248948A028344204A025526881A023792771A023539316
1148A023816041A024195768A025158334A026965142A029008460A030181102A029865495
1141A028717320A028242119A029387201A031559672A033285908A033761953A033194510
1134A031888144A030080283A028721820A028970916A030386327A030892112A029215091
1127A026509696A024855806A024743104A024995012A024632864A023646533A022561493
1120A021924657A021795222A021812307A021876637A022196954A022610145A022607263
1113A022136490A021852803A022303117A023064536A023088089A022091846A020972566
1106A020336151A019893080A019565943A019786987A020486115A020967715A021031272
1099A021119506A021237762A020766146A019598566A018731756A019231847A020798768
1092A021969864A021677037A020475288A019875573A020397529A021175611A021221662
1085A020510090A019756755A019480591A019647077A019846959A019558491A018607806
1078A017466310A016803952A016824692A017221291A017595041A017679690A017314729
1071A016590572A016011808A016098637A016828770A017627733A017796961A017155766
1064A016283403A015899810A016087388A016359966A016369177A016243398A016299222
1057A016680213A017268327A017877392A018424166A018814156A018890931A018594167
1050A018113903A017848496A018132042A018942676A019944895A020757850A021095602
1043A020864645A020284687A019666763A019035973A018359976A018022926A018328268
1036A018953574A019392778A019454789A019367609A019401286A019410566A019003140
1029A018174858A017497526A017241891A017012200A016612859A016448060A016735614
1022A017020215A016863431A016515555A016476253A016690969A016734559A016463528
1015A016151648A016163671A016622913A017343765A017974626A018221120A018072210
1008A017926958A018265835A019079774A019934701A020401536A020232379A019643490
1001A019421956A019930061A020728040A021334644A021638790A021781372A021881488
994A021888378A021626276A021061713A020404911A019820594A019286967A018859785
987A018748419A018931146A019133558A019065713A018484067A017279083A015747456
980A014628950A014201205A013845946A013009791A011875747A010680887A009023271
973A006520639A003857429A002023554A000803174I99354508I97191950I94275354
966I90800807I87292863I84490094I82561938I80963168I79444125I78816921
959I79197490I79432806I78729881I76962796I73863053I69107661I63154809
952I56327414I47031627I32078134I10645897H87601038H66584031H46392422
945H25354674H03334322G80488994G56273532G31945509G11357934F95239463
938F79789044F63028885F48451322F36900946F25329548F13694734F03019744
931E91627769E77905554E63177605E48904926E32610126E11532198D91109034
924D76674931D65483154D54872600D44307148D33949803D24667515D17607124
917D12957755D10648502D11101135D13970239D18504692D25557033D36992669
910D52389339D68662836D83986281D98008879E11474968E29700772E59850174
903E89646883F07099210F20231131F37625314F59679623F79329029F94467638
896G07712893G20294033G32053852G43864081G57995550G73326166G85393084
889G94150885H02013052H10224009H18554558H26301351H33476904H40714187
882H47833002H53754287H58391353H62981525H68426272H73700174H77603944
875H80122534H81645092H82882698H84729720H87612920H91365882H95535410
868H99700719I03791644I07899724I11826835I15206047I17755783I19105036
861I18659996I15854484I10849434I05436606I02648882I04599044I10839029
854I18890812I26086965I31145589I34396281I37057804I40047869I42940702
847I44998081I46140843I47014402I48448233I50317613I51978815I53072502
840I53351058I52331683I49717828I47652293I48378770I50050799I51241018
833I51658077I51326019I50502449I49572785I48633420I47420281I45764563
826I43851101I42328262I42833976I45703818I48861424I51384022I53780138
819I56641262I59516587I61664029I63093220I64276971I65569978I66804771
812I67661878I68374716I69409698I70552812I71549688I72685911I74000432
805I74947461I75016221I73834579I70541071I63911166I55147600I45901098
798I34122226I17965227H98856057H82922140H78746917H88242866I03063902
791I15799364I24826509I30569637I33318904I33343089I31001531I26410867
784I19358631I09803906H98382542H85630066H71208231H54764873H36514848
777H17354425H00626467G89798279G83771183G79667040G75873723G71970024
770G67761335G62553451G54766301G41313431G19884427F98139466F86442431
763F82313118F80437200F78573374F76474373F74476965F72490947F69815643
756F65401660F58493763F49251339F37485333F21153552E99632728E77987954
749E59986428E43716305E27035663E10627423D96321032D84353316D73892938
742D64865827D57849343D52884297D49936942D49741560D52421469D57223333
735D64074914D73437597D85418917D99539734E15409321E33670278E55070878
728E77969674E99721455F20420255F41630324F63037392F83205588G02043798
721G19441777G34175070G46050614G56418434G66490897G75989658G83622203
714G88841548G91958517G93262703G92840724G90684352G86663312G80500664
707G71960392G61050719G47335184G29359847G06295654F79748266F51829761
700F22795631E93421358E67653740E49236035E38519107E34475779E36302308
693E42869534E52257527E62390067E71757496E79486467E85292414E89471539
686E92565447E95020269E97231058E99578241F02143866F04595243F06522204
679F07734991F08369859F08860880F09724244F11367870F14009567F17564475
672F21652869F25834981F29824736F33553442F37108069F40569961F43967875
665F47414230F51093159F55131495F59723424F65294442F72291347F80846665
658F90702724G01299111G11871524G21659667G30150303G37089275G42293293
651G45574779G46919461G46699754G45642133G44575934G44210269G45045301
644G47313670G50871250G55148769G59378198G63000459G65832476G67909682
637G69328397G70219884G70781141G71316244G72133768G73302332G74611932
630G75822329G76819064G77562907G78066302G78405179G78669883G78958421
623G79363879G79826074G80072147G79835073G79038149G77680530G75679255
616G72937652G69467323G65361493G60734832G55768591G50747721G45986564
609G41788070G38493929G36441611G35789870G36402029G37860186G39547120
602G40776149G40870148G39133788G34955964G28244153G19803083G11083669
595G03437906F97635861F93949901F92361817F92524999F93713671F95041691
588F95731749F95122895F92558676F87488029F79799239F70090261F59602005
581F49828697F42095050F37291709F35669105F36705775F39333832F42513866
574F45659731F48549821F50972021F52599195F53199331F52884780F52176442
567F51882350F52816864F55496456F60082761F66575357F74933606F85046143
560F96687777G09438496G22631795G35604823G48070941G60098769G71773939
553G83019185G93581192H02987149H10613156H15927274H18664376H18810403
546H16502100H11903913H05134802G96281735G85422402G72667113G58261449
539G42585979G26011570G08870420F91533887F74341766F57508277F41279706
532F26102568F12461066F00607528E90588428E82492035E76537882E72922018
525E71652563E72521833E75164655E79133809E83944884E89068963E93996184
518E98428799F02348177F05791719F08686028F11034125F13127009F15405291
511F18200749F21697935F25945222F30658149F35026222F37891916F38207873
504F35441593F29859959F22699241F15973087F11806020F11611763F15540280
497F22506882F30832439F39026171F46167204F51888607F56224761F59357901
490F61323249F61914808F60809168F57708158F52483541F45347359F36874299
483F27805814F18855232F10691380F03992505E99358462E97097124E97123489
476E99075900F02508616F07035442F12442222F18760529F26191506F34835551
469F44366232F53880250F62105761F68110499F72322492F76912172F84525453
462F96060432G09711989G22305854G31392197G36138239G36838421G34163257
455G28882325G21881624G14063821G06188367F98905245F92813326F88241504
448F85038058F82872195F81827089F82447123F85015209F88918837F92950072
441F96194506F98495217G00191432G01631872G02867579G03534647G02905756
434G00176176F94964002F87688965F79404397F71237874F64102747F58804589
427F56025935F56039785F58574194F63032119F68810401F75443398F82512929
420F89485508F95758536G00938931G05024161G08293203G11140617G14036613
413G17456603G21717177G26961340G33325064G40921472G49577891G58787201
406G68053107G77155692G86037654G94600636H02704445H10278918H17337903
399H23842451H29615951H34495013H38513311H41789314H44261221H45631143
392H45515348H43640906H40009645H34893862H28661260H21729530H14753014
385H08639089H04137223H01386972G99963195G99339717G99219212G99544028
378H00477347H02368170H05489498H09766243H14810033H20067624H24877432
371H28617248H30908045H31645631H30968368H29287691H27178355H25106070
364H23292373H21800539H20684072H20054477H20012855H20575026H21716523
357H23369218H25278813H26989652H28038695H28114134H27127242H25292172
350H23136996H21345445H20428086H20384285H20814490H21520086H22753895
343H24697308H26992744H29045414H30610367H31924537H33386350H35315842
336H38060889H42006772H47138304H52805431H58321117H63616463H68939369
329H74102258H78414930H81320136H82802337H83086587H82226949H80269756
322H77618638H74926461H72760247H71454304H70985711H71003569H71284654
315H71985751H73233762H74823392H76451761H77853321H78705718H78771173
308H78079849H76797810H75069465H73044004H70881587H68661167H66388368
301H64215123H62611643H62100233H62802736H64473148H66847680H69542037
294H71665926H72004241H69701000H64518636H56303742H44368579H27710434
287H05915626G79709013G50823160G21803444F95862660F76285460F65425775
280F63984983F70951234F83905139F99430856G13756160G23686955G27513668
273G25389709G18983660G10631598G02446443F95834678F91438060F89133061
266F88070237F87124966F85628563F83634037F81495875F79423661F77471741
259F75770113F74720155F75018466F77351025F81994208F88828985F97631009
252G08091283G19661696G31631310G43339735G54264523G64044441G72559614
245G79880913G85954271G90450161G93093546G93874862G92563152G88120836
238G78990200G64000218G42925559G16588388F86911727F56717257F29208921
231F07670520E95281388E94609468F06669707F29820095F59597575F90177464
224G16567296G36289749G49591390G58057490G63116535G65836484G67227498
217G67921633G68077293G68101619G68779936G70371254G72337305G74217090
210G76160433G78440965G80600992G81962197G82667512G83074305G83263359
203G83096381G82580049G82092193G81913826G81639560G80511000G78333677
196G75723548G73464951G71892195G70888710G70195558G69615178G69130063
189G68862828G68814386G68846587G68997043G69410937G69945478G70309736
182G70537318G70926745G71625592G72427860G72864885G72647287G72163717
175G72226572G73132823G74123864G73807063G71029674G65408106G57355339
168G47938836G38531402G30213298G23595416G19277752G17828101G18888325
161G20934877G22535686G23589510G25036981G27746664G31897842G37068464
154G42718858G48651884G54930889G61345233G67195649G71820271G75226481
147G78037335G80941135G84139308G86938984G88000542G86724408G84229722
140G82173468G80950205G79907981G79079700G79275925G80379175G81062554
133G80477675G79104377G77678561G76271165G74746569G73376154G72646443
126G72819186G73875190G75741336G78457698G82078343G86425676G91031948
119G95380476G99303439H03133035H07177979H11129416H14455688H17122976
112H19325047H20997639H22196787H23375757H24879824H26752789H29199737
105H32488184H36366151H39990100H42443235H43492981H43935490H44874856
98H46663946H48860391H51051283H53077517H54487303H54467266H52551976
91H49359146H46350449H44627166H44480577H45859288H48414226H51200684
84H52977119H53133832H52215278H51385661H51470661H52428517H53736992
77H55068527H56114196H56345926H55793528H55532198H56585460H58511788
70H59661300H59349702H58770235H59063765H59796921H59945690H59423875
63H58630747H57563072H56604373H56949437H58611483H60327454H62598495
56H67275636H73960942H79863736H83575217H86285885H89232431H92035341
49H94370150H97511445I02421089I07505516I09849182I08826855I06764063
42I05398218I04781982I05408132I08126814I12148066I15683429I18616265
35I22021983I24501061I22069088I15680757I12058636I12281789I13540627
28I15528965I19917357I25909160I30200740I31293725I30032496I26528771
21I20679339I15416826I16369972I25503421I34991285I38203800I38890203
14I41366679I44421005I44912869I43249629I43111476I46352888I50210747
7I51571178I51316317I52257932I56692375I64505186I70189046I68546686
##END=


$$ === CHEMSPECTRA PEAK TABLE EDIT ===
##TITLE=X8858
##JCAMP-DX=5.00
##DATA TYPE=INFRAREDPEAKTABLE
##DATA CLASS=PEAKTABLE
##$CSTHRESHOLD=0.93
##MAXX=3997.453
##MAXY=0.910299719483243
##MINX=373.96442
##MINY=0.3481406875635454
##$CSSOLVENTNAME=- - -
##$CSSOLVENTVALUE=0
##$CSSOLVENTX=0
##NPOINTS=38
##PEAKTABLE= (XY..XY)
400.8785259499905, 0.7760745300633737
416.4603767631256, 0.7732275147452244
460.37286541832464, 0.727027119449193
495.7861627209045, 0.7171048540835319
549.6143746208259, 0.6560779825637092
603.442586520719, 0.6085622320928733
643.1054794996367, 0.652466418173517
696.9336913995307, 0.5040996083344143
738.0131162705234, 0.5720160612559154
769.1768178967941, 0.5629149683674944
797.5074557388848, 0.7313072105017432
821.5884979046391, 0.7384217400163849
865.5009865598381, 0.6955447214963505
882.4993692650764, 0.6951926958463513
910.8300071071403, 0.6775642054568481
977.4070060359654, 0.5561674253238058
1004.3211119859261, 0.5780411968090186
1049.6501325332288, 0.5062086000050123
1079.3973022673963, 0.5185138595556649
1116.2271314620793, 0.48463714188900886
1175.721470930414, 0.552654565727698
1191.3033217435495, 0.5389092574301014
1211.1347682329942, 0.5869723567459295
1230.966214722439, 0.6237899079054516
1287.6274904065672, 0.6309285771841235
1357.0375531196246, 0.45311930831570774
1417.9484244800624, 0.3812831050441808
1453.3617217826636, 0.5784532437771962
1498.6907423299658, 0.7485260980805352
1539.7701672009584, 0.7993183149683357
1586.5157196403638, 0.7652500882809637
1670.0911012744327, 0.3481406875635454
2881.225869022683, 0.7605829852827761
2942.1367403831205, 0.742749633295347
3032.794781477725, 0.8190501948804876
3065.3750149960983, 0.8257281798986302
3089.4560571618526, 0.8276417271413118
3374.1789674745946, 0.685226561118131
##END=


$$ === CHEMSPECTRA PEAK TABLE AUTO ===
##TITLE=X8858
##JCAMP-DX=5.00
##DATA TYPE=INFRAREDPEAKTABLE
##DATA CLASS=PEAKTABLE
##$CSTHRESHOLD=0.93
##MAXX=3997.453
##MAXY=0.910299719483243
##MINX=373.96442
##MINY=0.3481406875635454
##NPOINTS=61
##PEAKTABLE= (XY..XY)
3409.5922647771695, 0.6937780398862387
3396.8434777482407, 0.6883485335539712
3385.511222611415, 0.6854702248815379
3375.595499366693, 0.6851481810660169
3367.0963080140737, 0.684600473608951
3350.097925308835, 0.6892359271841288
3340.1822020641125, 0.69009870459639
3119.2032268960124, 0.8261308088490158
3090.872589053948, 0.8274940264428022
3063.9584831039874, 0.825438262807768
3031.3782495856135, 0.8187589069250317
3008.7137393119624, 0.8354648961558159
2943.553272275215, 0.7423849120997149
2879.8093371305704, 0.7602866903228123
2783.4851684675527, 0.8380101339034095
2756.5710625175916, 0.8433129806555023
2748.0718711649724, 0.8432822841402249
2740.9892117044565, 0.8434921518948763
2725.4073608913213, 0.8449460288251138
2709.825510078186, 0.8460086006382225
1732.4185045269742, 0.8298240325147282
1670.0911012744327, 0.3481406875635454
1586.5157196403438, 0.7652500882809637
1558.1850817982795, 0.8034032006676852
1541.1866990930412, 0.7988895793981021
1497.2742104378417, 0.7449864163359976
1417.9484244800624, 0.3812831050441808
1357.0375531196246, 0.45311930831570774
1287.6274904065672, 0.6309285763363409
1230.966214722439, 0.6237899079054516
1211.1347682329942, 0.5869723567459295
1191.3033217435495, 0.5389092574301014
1175.721470930414, 0.552654565727698
1116.2271314620793, 0.48463714188900886
1079.3973022673963, 0.5185138595556649
1049.6501325332288, 0.5062086000050123
1004.3211119859261, 0.5780411968090186
977.4070060359654, 0.5561674253238058
910.8300071071149, 0.6775642054568481
882.4993692650505, 0.6951926958463513
864.084454667709, 0.6955075877671838
823.0050297967159, 0.7384066003132854
796.0909238467552, 0.7308736459613644
769.1768178967941, 0.5629149683674944
738.0131162705234, 0.5720160612559154
696.9336913995307, 0.5040996083344143
638.8558838232993, 0.6517875205856345
621.8575011180606, 0.6546270253970216
603.442586520719, 0.6085622312450907
566.6127573260355, 0.660490275999596
552.4474384050036, 0.6550362721390073
497.2026946129786, 0.7159360067770063
487.2869713682562, 0.7217900173961515
475.95471623143067, 0.7253053796467306
468.8720567709147, 0.7280505313325298
458.9563335261919, 0.7262143510416597
430.625695684128, 0.7670584935156718
416.46037676309606, 0.7732275147452244
400.8785259499605, 0.7760745300633737
386.71320702892854, 0.7995535746620357
381.04707946051576, 0.8065094967539895
##END=

##END=

