##TITLE=CHS-225F2
##JCAMP-DX=4.24
##DATA TYPE=INFRARED SPECTRUM
##DATE=8/4/2019
##SAMPLING PROCEDURE=Diamant-ATR
##ORIGIN=Angelika Moesle
##XUNITS=1/CM
##YUNITS=TRANSMITTANCE
##RESOLUTION=4
##FIRSTX=3997.453
##LASTX=373.96442
##DELTAX=-1.4165319
##MAXY=0.92049217
##MINY=0.75379938
##XFACTOR=1
##YFACTOR=8.5727514e-010
##NPOINTS=2559
##FIRSTY=0.86820418
##XYDATA=(X++(Y..Y))
3997+1012748574+1013060547+1013210519+1012936230+1012302135+1011701135
3989+1011473013+1011555195+1011701969+1011894562+1012270082+1012809550
3980+1013314602+1013588403+1013559202+1013305077+1012958410+1012610492
3972+1012379102+1012427911+1012791543+1013364036+1014065852+1014746810
3963+1014985569+1014423991+1013310569+1012329946+1011925919+1012120597
3955+1012757196+1013544114+1014072527+1014167641+1014134894+1014368160
3946+1014783799+1014970134+1014759811+1014416134+1014263173+1014303569
3938+1014368021+1014408000+1014436923+1014323732+1013921443+1013423413
3929+1013267601+1013578322+1014007240+1014108125+1013755896+1013232281
3921+1012942975+1013160945+1013851289+1014567427+1014832051+1014660734
3912+1014366839+1014110698+1013875206+1013637560+1013378498+1013114431
3904+1013041635+1013359865+1013864986+1014166390+1014222638+1014264424
3895+1014424547+1014720528+1015148334+1015571482+1015734733+1015565085
3887+1015221477+1014959704+1015047936+1015535883+1016085641+1016206203
3878+1015846604+1015439726+1015203678+1014973262+1014615958+1014303360
3870+1014290567+1014622355+1015100012+1015403919+1015234201+1014694038
3861+1014397988+1014713367+1015399400+1016084876+1016595907+1016670511
3853+1015834297+1014495327+1013688315+1013610027+1013821600+1013797405
3844+1013399704+1013037741+1013006176+1012938664+1012564534+1012509815
3836+1013280047+1014267762+1014763010+1014779766+1014672762+1014552618
3827+1014303360+1013953773+1013771262+1013945013+1014330684+1014562213
3819+1014494910+1014270334+1014106804+1014251353+1014669008+1015016300
3810+1015073383+1014938985+1014942601+1015313533+1015804539+1015930941
3802+1015550415+1015183724+1015423387+1016058039+1016484106+1016387323
3793+1015968278+1015593939+1015433886+1015467468+1015599849+1015720132
3785+1015755383+1015735915+1015712763+1015628703+1015415183+1015136862
3776+1014865007+1014581820+1014342087+1014316848+1014582028+1014896851
3768+1014915763+1014680549+1014597324+1014942253+1015564529+1016005754
3759+1015786184+1014909297+1014077950+1013945013+1014533081+1015366026
3751+1015789730+1015607914+1015302200+1015081657+1014624162+1013982071
3742+1014087058+1015246438+1016685320+1017470500+1017009947+1015515164
3734+1014115982+1013845657+1014684165+1015948393+1017114934+1018030618
3725+1018558058+1018373113+1017435458+1016328433+1015697327+1015623489
3717+1015826371+1016135632+1016523112+1016963780+1017394020+1017708147
3708+1017825997+1017745762+1017478427+1017020585+1016522903+1016371471
3700+1016779322+1017462922+1017978542+1018070319+1017754870+1017251000
3691+1016768754+1016394763+1016236517+1016441972+1016905516+1017351538
3683+1017643278+1017827388+1017979585+1018031105+1017781430+1017199828
3674+1016758533+1016870613+1017300643+1017512565+1017141494+1016446005
3666+1015960769+1015932471+1016245764+1016540285+1016582141+1016553843
3657+1016797400+1017272693+1017524037+1017347853+1016975044+1016683721
3649+1016546195+1016462900+1016428345+1016464221+1016403037+1016039475
3640+1015417894+1014841785+1014515838+1014360025+1014283823+1014457365
3632+1015107591+1016073057+1016678159+1016513864+1016191115+1016195078
3623+1016374739+1016583392+1016797191+1016692273+1015887000+1014810289
3615+1014295503+1014620755+1015334878+1015782986+1015756148+1015582954
3606+1015661451+1015957014+1016123882+1015977317+1015736124+1015838539
3598+1016392816+1016929851+1016880694+1016349083+1016120405+1016677811
3589+1017611364+1017986120+1017403267+1016579638+1016184232+1016131252
3581+1016140360+1016118459+1016066173+1015966123+1015823451+1015674870
3572+1015541376+1015442716+1015470040+1015795918+1016435854+1017026842
3564+1017262959+1017235079+1017065847+1016731487+1016311399+1015999913
3555+1015773043+1015434511+1015043764+1014920213+1015137696+1015384382
3547+1015381531+1015274736+1015502023+1016148703+1016718138+1016745810
3538+1016417290+1016328085+1016661194+1016940280+1016682053+1015881229
3530+1014813000+1013768689+1013048171+1012893957+1013289085+1013938407
3521+1014482464+1014684999+1014515768+1014168058+1013971989+1014174246
3513+1014732696+1015317704+1015583440+1015524272+1015443411+1015491385
3504+1015471639+1015172182+1014670051+1014187943+1013880073+1013917479
3496+1014457573+1015274875+1015710399+1015321459+1014399378+1013625323
3488+1013390805+1013630676+1014107430+1014583419+1014814669+1014654546
3479+1014215337+1013796084+1013602657+1013624766+1013865751+1014488096
3471+1015452658+1016245278+1016371123+1015962716+1015548815+1015419493
3462+1015484154+1015539499+1015450920+1015177119+1014714410+1014110003
3454+1013653273+1013804357+1014636191+1015598180+1016167962+1016446978
3445+1016771257+1017069602+1017026773+1016578247+1015923502+1015251166
3437+1014679437+1014350500+1014343547+1014495188+1014521469+1014356897
3428+1014182798+1014138440+1014256220+1014581333+1015028051+1015274597
3420+1015121705+1014745906+1014356479+1013982419+1013760694+1013943970
3411+1014404732+1014598576+1014252883+1013688524+1013287277+1013048310
3403+1012853005+1012809481+1013118602+1013789548+1014552131+1014962694
3394+1014738119+1014103606+1013638046+1013707296+1014258097+1015063232
3386+1015806764+1016055536+1015565502+1014598854+1013716683+1013336781
3377+1013531182+1014024761+1014352586+1014227853+1013768689+1013286026
3369+1012972872+1012933588+1013295204+1014021980+1014726368+1014967074
3360+1014768016+1014584323+1014678950+1014796522+1014626387+1014333257
3352+1014320742+1014605529+1014723865+1014273602+1013378359+1012492572
3343+1011839217+1011285566+1010802624+1010713976+1011287582+1012296851
3335+1013176380+1013509072+1013289572+1012808368+1012346285+1011985991
3326+1011687299+1011408839+1011064953+1010502541+1009664311+1008738615
3318+1008043196+1007719056+1007631312+1007595644+1007489822+1007063268
3309+1006074580+1004811951+1003957104+1003696234+1003500235+1002955344
3301+1002313044+1002057389+1002298443+1002720270+1002973838+1003075141
3292+1003369939+1004071477+1004993280+1005781588+1006204249+1006201260
3284+1005914804+1005696764+1005850699+1006322516+1006770972+1006935962
3275+1006863375+1006813315+1007048180+1007649389+1008436377+1009072211
3267+1009352061+1009404137+1009541386+1009915586+1010409443+1010879313
3258+1011370320+1011999201+1012709221+1013276153+1013545574+1013578183
3250+1013587569+1013767994+1014108473+1014377199+1014406400+1014341392
3241+1014407722+1014524807+1014471062+1014392147+1014715661+1015467746
3233+1016098991+1016143350+1015694199+1015139226+1014775594+1014739162
3224+1014998293+1015362133+1015648101+1015792442+1015773669+1015599779
3216+1015386746+1015285026+1015355319+1015588099+1015947698+1016363267
3207+1016756865+1017074677+1017272415+1017313784+1017155052+1016691091
3199+1015899028+1015128866+1014987724+1015675495+1016611968+1016991105
3190+1016650487+1016150928+1016024109+1016269126+1016617948+1016906767
3182+1017067655+1017043459+1016862617+1016644368+1016477710+1016372722
3173+1016290610+1016205369+1016190837+1016386211+1016763748+1017033725
3165+1016939932+1016571573+1016213156+1015945264+1015603812+1015103141
3156+1014559710+1014080662+1013667735+1013359308+1013233185+1013262108
3148+1013353329+1013497739+1013727807+1014005850+1014242453+1014345424
3139+1014210471+1013774321+1013120271+1012465734+1012010187+1011764892
3131+1011524047+1011090192+1010555452+1010242020+1010294652+1010461867
3122+1010387055+1010015984+1009598260+1009380359+1009417417+1009624958
3114+1009878944+1010090518+1010278730+1010561431+1010993200+1011405710
3105+1011476003+1011012529+1010203362+1009531026+1009357762+1009620022
3097+1009994013+1010260375+1010357992+1010207256+1009752334+1009158495
3088+1008732566+1008602340+1008640789+1008729438+1008896166+1009129363
3080+1009285940+1009333636+1009449400+1009696155+1009841191+1009700327
3071+1009442865+1009351644+1009487432+1009730224+1009950280+1010034965
3063+1009880474+1009453294+1008882052+1008471628+1008475174+1008800078
3054+1009147510+1009449470+1009865108+1010376974+1010763480+1010939525
3046+1010990975+1010930834+1010721415+1010464092+1010366127+1010583889
3037+1011141990+1011877597+1012503836+1012879704+1013131396+1013392126
3029+1013583050+1013600362+1013541402+1013573246+1013673297+1013681501
3020+1013561844+1013469928+1013559619+1013834254+1014163052+1014330476
3012+1014184328+1013844684+1013579365+1013376690+1012930321+1012142499
3003+1011283341+1010555035+1009859059+1009064076+1008208186+1007393039
2995+1006680794+1006074719+1005475874+1004720591+1003767709+1002809613
2986+1002071921+1001495603+1000761318+999708107+998600804+997832797+997467010
2976+997260999+997101710+997183614+997687831+998424411+998909091+998781229
2966+998144144+997496907+997266005+997382047+997399499+997044280+996510513
2956+996179908+996201600+996452179+996781464+997139742+997523815+997942443
2946+998391733+998779213+998969441+998976672+998942604+998856180+998465572
2936+997569773+996319937+995165355+994447200+994080161+993756717+993419784
2927+993292200+993472139+993801910+994160675+994633396+995309904+996046831
2917+996543192+996657913+996562103+996522750+996625999+996758589+996768671
2907+996632883+996517814+996594086+996779795+996831941+996715899+996691425
2897+996974682+997480151+997979988+998409393+998886703+999490345+1000181454
2887+1000909760+1001593151+1002035488+1002102583+1001931683+1001772742
2878+1001672969+1001466610+1001009602+1000337961+999645323+999154803+998948444
2868+998881071+998694806+998274509+997779052+997473268+997447890+997568243
2859+997662871+997674204+997613923+997441772+997097956+996685168+996474915
2849+996615014+996964810+997309877+997578881+997787048+997941192+998049933
2839+998119183+998155685+998216940+998373239+998610746+998871963+999158905
2829+999511065+999936924+1000438151+1001031156+1001719483+1002486099+1003304653
2819+1004121607+1004869311+1005549017+1006242629+1006974550+1007614764
2810+1008013229+1008216738+1008431858+1008769486+1009134091+1009397463
2802+1009580600+1009795789+1010075430+1010355907+1010600576+1010837249
2793+1011079346+1011292866+1011446314+1011545322+1011613947+1011656845
2785+1011632511+1011500824+1011323389+1011266932+1011487266+1011990371
2776+1012540338+1012754554+1012447935+1011839635+1011270200+1010826472
2768+1010416048+1010040249+1009794468+1009696433+1009644635+1009475751
2759+1009045651+1008332919+1007493229+1006757136+1006207726+1005689811
2751+1005043479+1004402222+1004050410+1003999933+1003980187+1003864423
2742+1003832301+1004050341+1004433996+1004823145+1005244554+1005852159
2734+1006628370+1007329213+1007791435+1008101182+1008376374+1008583011
2725+1008647881+1008579396+1008459530+1008433179+1008634254+1009036195
2717+1009494941+1009953965+1010409860+1010719190+1010715088+1010541685
2708+1010609684+1011120576+1011826911+1012349623+1012583723+1012676613
2700+1012747810+1012788692+1012771866+1012744333+1012782365+1012895974
2691+1013019316+1013125833+1013295968+1013597233+1013942996+1014147756
2683+1014119597+1013955581+1013832655+1013828345+1013890711+1013947446
2674+1013937364+1013809502+1013659113+1013752907+1014180991+1014594891
2666+1014570000+1014137605+1013705210+1013521517+1013456787+1013291032
2657+1013012642+1012760881+1012617305+1012572668+1012624675+1012797244
2649+1013096562+1013498990+1013931455+1014269708+1014439913+1014511110
2640+1014614428+1014798260+1015010947+1015212926+1015450225+1015752393
2632+1015994560+1016013819+1015851471+1015681127+1015543045+1015398565
2623+1015360116+1015574958+1015960282+1016274688+1016355340+1016175402
2615+1015836522+1015546243+1015448904+1015491316+1015551318+1015579547
2606+1015531016+1015349479+1015110233+1015013797+1015169749+1015496600
2598+1015865377+1016215520+1016495509+1016616766+1016569348+1016525058
2589+1016689840+1017028233+1017267061+1017221799+1016990827+1016773343
2581+1016659317+1016679272+1016911147+1017416199+1018101120+1018685711
2572+1018878095+1018666939+1018310955+1017970894+1017620403+1017400625
2564+1017621307+1018254151+1018833111+1018999422+1018855916+1018758855
2555+1018888107+1018997614+1018712619+1018192132+1018071431+1018530872
2547+1018996154+1019008321+1018763930+1018591153+1018461414+1018228147
2538+1017979932+1017996063+1018470452+1019323422+1020246754+1020889471
2530+1021045979+1020793453+1020430030+1020164086+1020002224+1019983869
2521+1020185570+1020445187+1020490589+1020352646+1020277277+1020352437
2513+1020543848+1020909148+1021508618+1022238593+1022826592+1022931787
2504+1022407060+1021575365+1021003011+1020926252+1021133654+1021381730
2496+1021619655+1021880176+1022231293+1022743853+1023292082+1023587228
2487+1023580067+1023535777+1023575130+1023506298+1023214558+1022848284
2479+1022529220+1022204038+1021872667+1021753218+1022121508+1022989148
2470+1023951694+1024466480+1024322626+1023741024+1023083498+1022662645
2462+1022688509+1023093510+1023473063+1023486204+1023264896+1023214141
2453+1023478486+1023822024+1023988752+1023988196+1024021917+1024243364
2445+1024591978+1024815719+1024662062+1024062939+1023185495+1022392111
2436+1022085145+1022412135+1023115202+1023781350+1024216526+1024498741
2428+1024734788+1024901099+1024926407+1024833587+1024680904+1024399733
2419+1023880845+1023294237+1023113464+1023601064+1024363230+1024641412
2411+1024065790+1022994085+1022130268+1021899366+1022138959+1022347891
2402+1022275512+1022151822+1022284064+1022694766+1023259960+1023833914
2394+1024157427+1024037561+1023632491+1023232288+1022913988+1022683712
2385+1022687675+1023013552+1023468196+1023713282+1023586463+1023288049
2377+1023170199+1023274561+1023327402+1023339500+1023743249+1024688552
2368+1025658537+1026031277+1025727092+1025188319+1024851873+1024720187
2360+1024552555+1024347100+1024297526+1024401123+1024446734+1024331387
2351+1024207210+1024316090+1024765589+1025473732+1026207948+1026649520
2343+1026571023+1026032459+1025366381+1024983003+1025118930+1025625373
2334+1026015355+1025946314+1025628988+1025437369+1025191865+1024379709
2326+1023044701+1021916122+1021580163+1021817462+1022007065+1022014504
2317+1022205359+1022721674+1023257387+1023484327+1023357925+1023051862
2309+1022799754+1022710966+1022651868+1022440502+1022138125+1021983008
2300+1022128461+1022614670+1023412157+1024275486+1024756829+1024658307
2292+1024294328+1024021500+1023781559+1023444765+1023229228+1023295975
2283+1023340543+1023130499+1023014109+1023377462+1024081086+1024826078
2275+1025546250+1026119161+1026249248+1025915026+1025526365+1025414425
2266+1025444044+1025363461+1025341142+1025782784+1026677749+1027599482
2258+1028365750+1029177907+1030054794+1030659897+1030751326+1030370591
2249+1029653200+1028788619+1028065389+1027754877+1027938570+1028416714
2241+1028847649+1029150096+1029557599+1030052569+1030201916+1029910871
2232+1029749219+1030135655+1030846232+1031531291+1031919397+1031513075
2224+1030113893+1028617094+1028213345+1028830128+1029283172+1028938105
2215+1028433470+1028707411+1029878749+1031228427+1032036691+1032227197
2207+1032220940+1032403729+1032899047+1033733800+1034925510+1036181465
2198+1036650987+1035528110+1033192594+1031236632+1030910198+1031890682
2190+1032840782+1032849612+1032146336+1031704416+1032324954+1033950936
2181+1035677873+1036485024+1036185080+1035661395+1035780010+1036038376
2173+1035040023+1032560028+1030209146+1029563023+1030232995+1030337634
2164+1028868924+1027171537+1027722407+1031364146+1035963911+1038724243
2156+1039443094+1039509632+1039015149+1037098748+1034265828+1032377656
2147+1032291650+1033104363+1033889821+1034664502+1035313407+1034937052
2139+1033139335+1031283493+1031330147+1033349380+1035273289+1035540347
2130+1034754193+1034177180+1033954621+1033598846+1033183486+1033112011
2122+1033257464+1033162905+1032826251+1032617180+1032533746+1032162953
2113+1031457731+1031030898+1031418517+1032378629+1033160959+1033262748
2105+1032789749+1032274476+1032251810+1032892580+1033957124+1035051008
2096+1035854961+1036206425+1036135924+1035785016+1035282954+1034809468
2088+1034572169+1034495966+1034226545+1033717113+1033438167+1033783234
2079+1034597825+1035321264+1035371046+1034672915+1033946347+1033937448
2071+1034413576+1034541577+1033958167+1032844398+1031578849+1030917637
2062+1031724718+1033876193+1035887778+1036126955+1034430471+1032311187
2054+1031375131+1031833391+1033001183+1034543037+1036289163+1037571677
2045+1037987038+1038183941+1038981497+1040343342+1041501610+1041633852
2037+1040700369+1039827375+1040197612+1041511622+1042390665+1042051854
2028+1040837061+1039499620+1038637890+1038626626+1039514916+1040731378
2020+1041288506+1040677842+1039255437+1037795210+1037232102+1038284340
2011+1040312889+1041498481+1041150006+1040481356+1040408143+1040409185
2003+1039999526+1039639927+1039993964+1041091672+1042206137+1042528817
1994+1041913633+1040634526+1038881655+1037251570+1036836418+1037957071
1986+1039600714+1040579181+1040603655+1040037350+1039151702+1037821283
1977+1036049292+1034655185+1034533094+1035405949+1036378576+1037212774
1969+1038098352+1038845639+1039065974+1038715413+1038100299+1037722553
1960+1038058304+1039077793+1040124746+1040517997+1040248854+1040034429
1952+1040561591+1041669659+1042490507+1042313975+1041195478+1039928747
1943+1039398318+1039573320+1039456304+1038553900+1037599210+1037457929
1935+1038066300+1038689549+1038843206+1038822069+1039416464+1040894074
1926+1042382460+1042816524+1042347974+1042152392+1042783776+1043534122
1918+1043548237+1042998618+1042755339+1043154152+1043805977+1044317425
1909+1044635099+1044746761+1044586081+1044339048+1044332095+1044502231
1901+1044374994+1043745418+1043059316+1042860883+1043112157+1043368646
1892+1043449854+1043524458+1043705092+1043886838+1043895738+1043702450
1884+1043543231+1043737005+1044264028+1044743493+1044918564+1044922249
1875+1045012358+1045216979+1045318559+1045149745+1044884496+1044963340
1867+1045562463+1046337631+1046882244+1047099589+1047164319+1047254984
1858+1047360597+1047346344+1047073168+1046519864+1045975946+1045888480
1850+1046305579+1046764394+1046864584+1046634516+1046352788+1046271927
1841+1046429200+1046691529+1046952259+1047171064+1047259990+1047087421
1833+1046648213+1046129395+1045784258+1045677602+1045647983+1045660776
1824+1045890010+1046341247+1046726710+1046791858+1046483223+1045909686
1816+1045316473+1044954232+1044891796+1045009437+1045169421+1045371261
1807+1045703327+1046150323+1046566309+1046867365+1047169812+1047672222
1799+1048382450+1049043801+1049446716+1049736439+1050277715+1051130128
1790+1051915239+1052461103+1052915538+1053376926+1053914447+1054636496
1782+1055491204+1056207968+1056576328+1056701826+1056912218+1057446540
1773+1058229843+1058923941+1059394924+1059934948+1060777489+1061765691
1765+1062576040+1063106330+1063499859+1063888451+1064348448+1065026068
1756+1065913872+1066704753+1067263271+1067857527+1068752562+1069889136
1748+1071077162+1072207200+1073153546+1073736539+1073741823+1072967907
1740+1071464641+1069541148+1067065395+1062950518+1056167433+1047957287
1731+1039874167+1031265625+1021427062+1010581316+998833931+986356293+974352211
1721+963855496+954098907+943378798+932021396+923066604+917782335+915152299
1711+914376157+915119620+917157278+920397353+924391738+927952129+930009602
1701+929950017+927807581+925057886+922859549+921162440+920255586+920604060
1691+922274401+925223919+929099967+933354387+938106697+943807717+949553582
1681+954239353+958146411+961638456+964829931+967927752+970977738+973710537
1672+976162025+978704178+981306126+983542425+985379564+987008119+988447835
1662+989740639+991088162+992519814+993854682+995054249+996415260+998109519
1652+999409276+1000080430+1000681569+1001486286+1002304075+1002949921
1643+1003603345+1004391515+1005254496+1006129854+1007062086+1008192264
1635+1009584493+1011062381+1012507729+1013990136+1015553891+1017065778
1626+1018362475+1019471517+1020507971+1021489151+1022352619+1022997839
1618+1023130220+1022100232+1019211552+1013974701+1005899786+995024630+982814745
1608+971878543+964393365+961094747+961419929+963900133+966589964+967845361
1598+967013528+964582481+961990963+961018057+962767174+967093764+972891775
1588+978839549+984088707+988417313+991908732+994712102+997019041+999031391
1578+1000831819+1002132410+1002326185+1001376988+999785144+997953568+996432642
1568+995824272+996050933+996616474+997165398+997479665+997304662+996386684
1558+995287724+994975196+995141507+995499576+996259100+997607248+999440146
1548+1001499497+1003667172+1005993997+1008369839+1010438506+1012017279
1540+1013169914+1013906842+1014400421+1014986264+1015915020+1017084620
1531+1018105361+1018915084+1019776467+1020825227+1021925022+1022930258
1523+1023796994+1024346127+1024425249+1024275208+1024259981+1024527038
1514+1024949213+1025296436+1025451692+1025442305+1025346913+1025248670
1506+1025257987+1025388421+1025563215+1025734532+1025871432+1025998877
1497+1026228598+1026550582+1026710149+1026462768+1025674251+1024318802
1489+1022629758+1020976660+1019533049+1018331327+1017300574+1016175611
1480+1014627778+1012524972+1009996794+1007371138+1005066562+1003398794
1472+1002437986+1001974373+1001665112+1001227294+1000559686+999906749+999729939
1462+1000201269+1001220342+1002720270+1004482457+1005830814+1006489106
1453+1006848148+1007066188+1006960019+1006301797+1005143738+1003948969
1445+1003300829+1003553563+1004726640+1006548065+1008811063+1011655524
1436+1015108494+1018569947+1021603733+1024358920+1026930135+1029131323
1428+1030846162+1032245692+1033549342+1034786732+1035853014+1036689228
1419+1037262139+1037463144+1037139491+1036037681+1033753198+1029923595
1411+1024442910+1017512495+1009492716+1000728431+991916867+984508447+979767888
1401+977931583+978610037+980935819+983673068+985852563+986993031+987102607
1391+986672229+986361091+986796545+988392004+990991796+994014179+996989701
1381+999720066+1002147706+1004228471+1005888036+1006992210+1007202672
1373+1005920158+1002527260+996784801+989431101+982422050+977865531+977001507
1363+980066302+985983484+992847708+999372913+1005187193+1010247999+1014499359
1353+1017877170+1020382543+1021987249+1022531862+1021899296+1020324139
1344+1018459258+1017115143+1016899397+1017987302+1020090664+1022736622
1336+1025606809+1028506683+1031212088+1033549829+1035543962+1037364692
1327+1039157959+1040990648+1042877708+1044799463+1046747638+1048717784
1319+1050507296+1051597148+1051414011+1049629157+1046160613+1041105022
1310+1034846457+1028330291+1023165193+1020989314+1022302976+1025964600
1302+1029935971+1032477151+1032802125+1030947812+1027265539+1022049546
1293+1015499937+1007863883+999533800+991015992+982785473+975074329+967714857
1283+960201451+952011258+942974771+933369614+923677894+914335483+905695167
1273+898053481+891614212+886475327+882676594+880258757+879296906+879850836
1264+881799637+884713904+887957595+891023502+893821866+896579278+899430205
1254+902209240+904634169+906561764+908067741+909446620+911177173+913746511
1244+917372885+921857025+926694437+931316104+935278853+938416861+940959849
1234+943453263+946394298+949837812+953311989+956123632+957828320+958540357
1224+958919841+959885168+962146358+965738106+969953521+973858145+976914388
1214+979146029+980927128+982736108+984921096+987459077+989918075+991739987
1204+992560140+992210970+990515946+987272812+982472597+976431446+969766143
1194+963387781+958476321+956201365+957175452+960954578+966022962+970439104
1184+972723308+972320394+969532181+965288468+960877194+957535538+956014821
1174+956414120+958360001+961326206+964809281+968343182+971522073+974035789
1164+975645154+976216883+975849288+974877078+973743215+972932449+972912633
1154+973989483+976221055+979445278+983301163+987301179+991018634+994181950
1145+996607157+998179255+998955119+999267439+999708107+1000812073+1002549926
1135+1004222353+1004980417+1004327618+1002136999+998521472+993829513+988566450
1125+983220649+978202603+973844865+970243731+967042660+963521205+959014329
1115+953262832+946442411+939092118+932068188+926261138+922075760+919148004
1105+916587844+913510116+909499184+904833367+900391152+897263642+896281072
1095+897754997+901517436+907064104+913673994+920574858+927138999+932991381
1085+937995800+942156496+945517341+948201888+950505629+952754930+955026480
1075+957132692+958887232+960285580+961474717+962623598+963790974+964891881
1065+965803184+966468289+966927383+967287399+967568988+967530191+966844506
1055+965599606+964500716+964447597+965944048+968892175+972790403+977025146
1045+981051166+984493777+987225046+989318326+990860458+991849981+992293639
1035+992228283+991544474+989929060+987045664+982609915+976315682+968058534
1026+958422229+948835010+941156752+936983611+936977075+940577097+946408482
1016+953029357+959370035+964818250+969230707+972821691+975856241+978432532
1006+980510934+981975472+982587318+981994036+979946783+976602903+972613732
996+968844827+965942866+964149043+963463984+963884698+965380037+967603473
986+969681944+970425407+968998136+965590707+961401018+957824566+955695062
976+955302298+956744517+959725810+962922430+963984331+960828454+953448959
966+944447792+937406967+934348221+934312692+934030269+930465706+923820288
956+918204440+918459260+925933661+937718522+949695697+959548165+967102385
946+973031179+977860317+981810482+985016906+987667453+989931633+991869796
936+993513230+994959204+996304363+997548775+998622427+999446543+999952220
926+1000148915+1000189589+1000262524+1000386631+1000380999+1000058737+999409623
916+998604906+997878338+997409719+997257453+997323644+997423834+997496421
907+997724334+998382694+999625716+1001452843+1003730581+1006133887+1008149365
897+1009255139+1009228927+1008420733+1007621717+1007365923+1007374754
888+1006912462+1005634050+1003863936+1002117740+1000535699+998751819+996275370
878+993035781+989464405+985988004+982687508+979596710+976991495+975085940
868+973778535+973097856+973568561+975608096+978689021+981519924+983000176
858+982798058+981191126+978605866+975270468+971269825+966931138+962988412
849+960278627+959428438+960780967+964285666+969404458+975392628+981728439
839+988125295+994176875+999216127+1002584620+1004017523+1003873879+1003073542
829+1002594772+1002694683+1002655330+1001620614+999692880+997946823+997396439
819+998163403+999493822+1000279349+999685232+997601130+994527852+990901410
809+986561471+980940200+973696631+965019534+955351315+945074726+934669301
799+925041269+917453954+913057836+912416162+915203819+920181886+925610704
789+929932635+932283030+932656395+931831306+931058572+931553333+934072125
779+938738220+944970364+951560647+957250264+961546470+964719660+966777759
769+966815373+963690228+957048633+947544987+936527785+925774025+917007723
759+911150266+908045075+907009802+907610664+909965300+914464597+921189764
749+929404222+937549082+943943296+947648653+948630319+947221821+943787692
739+938801490+932722447+925784663+918336126+911179537+905075602+900111093
730+895924741+892353156+889684254+888569580+889740502+893409635+898795414
720+904456108+909231570+912835347+915753229+918796818+922519905+926779192
710+930851100+933880158+935241656+934993510+934318880+934930796+937353569
700+940032971+940646556+938183943+933544616+928651929+925543261+925812752
690+929931453+936846988+944651300+951824367+957786603+962517221+966049035
680+968319890+969178353+968405757+965883906+962045473+958192717+955922140
670+956326237+959397151+963050779+965370372+967173025+969690635+973056278
660+976524058+979329861+981311896+982826703+984276363+985689728+986710678
650+986810172+985464179+982530097+978598148+974701659+971693320+969868140
640+968583401+966182807+961505310+956117792+953854099+957184769+964852736
630+973501257+980495776+985013290+987633523+989393069+990814222+991801241
620+992423100+993175671+994271920+995277225+995816554+996227673+997101502
611+998429209+999560291+999958269+999707342+999282039+999093827+999292121
601+999796477+1000421882+1001009811+1001516253+1002022139+1002556670+1002887485
591+1002800296+1002615282+1002910985+1003670718+1004168469+1003778417
582+1002464685+1000431685+997842601+995143801+993280798+993032096+994084681
572+995375955+996366729+997224010+997734971+997059298+994935217+992173425
562+989658944+987694082+986394534+985926958+986289964+987376687+989092847
552+991049574+992595182+993626908+994860544+996727302+998514241+999281483
543+999160643+999041333+999410319+1000046848+1000527634+1000699507+1000755408
533+1000753948+1000229150+998981539+997956766+998151514+998857154+998459175
523+996740234+994802418+993533671+993174559+993533671+994108112+994546555
513+994975057+995527040+995983074+996197081+996414565+996750455+996729110
503+995747165+993812826+991514925+989352186+987500308+985976253+984694365
493+983850017+984325728+986893397+990938260+994715022+996739956+996853634
483+996423881+997205237+999424711+1001377127+1001392145+999783823+998170773
473+997568660+997923462+998776293+999459058+999206115+998002654+996771452
463+996073113+995360172+994095944+992950957+993119701+994352781+994996888
453+994190920+992431374+990234219+987387533+984164353+982215691+982964021
443+985652461+988021490+988768568+988544340+988732066+990206755+993080627
433+996934843+1000867070+1003679200+1004859438+1005234542+1006105728+1008036869
424+1010601062+1012919752+1013875276+1012171353+1008688555+1007022525
415+1008395008+1010655155+1011277083+1010222413+1009549451+1009973224
407+1010142595+1009346638+1008571539+1008728951+1009434591+1009774861
398+1009980386+1011155548+1012114131+1010268649+1005527116+1000441697+997247510
388+996058373+995781929+995143106+993165312+990307223+987998754+986463784
378+984084326+978803673+971486266+967653881
##END=
