##TITLE=X9698
##JCAMP-DX=4.24
##DATA TYPE=INFRARED SPECTRUM
##DATE=19/11/2018
##SAMPLING PROCEDURE=Instrument type and / or accessory
##ORIGIN=Default
##XUNITS=1/CM
##YUNITS=TRANSMITTANCE
##RESOLUTION=4
##FIRSTX=3996.5625
##LASTX=399.65625
##DELTAX=-2.0390625
##MAXY=0.96445465
##MINY=0.2609894
##XFACTOR=1
##YFACTOR=8.9821839e-010
##NPOINTS=1765
##FIRSTY=0.89972872
##XYDATA=(X++(Y..Y))
3997+1001681469+1002383146+1002712684+1002876391+1002897758+1002834916
3984+1002877850+1003198960+1003833881+1004289566+1004223075+1003912118
3972+1003692802+1003378527+1002336429+1001109523+1001186167+1002272791
3960+1003247402+1004339203+1005454959+1006039247+1006432556+1006847563
3948+1006925933+1007088976+1007475649+1006684984+1005240620+1004917453
3935+1005484090+1006386370+1007322625+1007685541+1008211235+1009232098
3923+1009108937+1008709789+1009381273+1009323076+1007975131+1006928720
3911+1006634552+1007296215+1010491919+1015785489+1019215904+1018640707
3899+1014830786+1010331066+1009418898+1012504115+1014493020+1014432434
3886+1015892791+1016834621+1017088775+1017045310+1013913841+1012438221
3874+1015134974+1019313253+1022388582+1021214762+1019458645+1019563292
3862+1017650568+1014876706+1015960411+1022860526+1032128453+1029499187
3850+1018420661+1012166548+1011893549+1015483092+1020882305+1026314764
3838+1027573722+1023643957+1019959454+1017336691+1015350839+1015046120
3825+1015826830+1019494080+1025082747+1025108561+1022105496+1017709295
3813+1011513446+1009390762+1013000014+1017684543+1018993934+1021302157
3801+1023175995+1020588867+1017662446+1013967591+1010470883+1009504302
3789+1009862374+1010732271+1011919893+1013040626+1014754009+1015061913
3776+1012735840+1011750280+1014685128+1019408942+1021303816+1020623174
3764+1019197257+1018959759+1021240510+1022218903+1022069861+1026591546
3752+1035686808+1039219151+1035503393+1034379076+1032362700+1026479400
3740+1025128867+1030011875+1035567163+1034350609+1026742711+1019798999
3727+1017833386+1019518566+1021401695+1021393997+1019488241+1017926288
3715+1019559244+1025297750+1029764622+1026195650+1020253490+1018252574
3703+1019347958+1018637389+1015432062+1013970245+1016108125+1021981604
3691+1029403763+1030914619+1023705206+1017139406+1015789935+1018702885
3678+1024886259+1032768351+1034350808+1030805724+1029703506+1024528054
3666+1015798694+1010742092+1009667677+1010777660+1013210239+1014148153
3654+1013088006+1017135425+1026577810+1027836834+1017790120+1009448561
3642+1006289287+1004910950+1003717023+1003751729+1005384618+1009869010
3630+1016011905+1014214844+1006192403+1002662649+1004940877+1008792737
3617+1009004090+1008610914+1009662169+1009099381+1006876230+1003291133
3605+998896989+996803769+997843212+999273442+999329516+998457495+996595469
3591+995554367+997792913+999293549+995756894+992036291+990911245+990960815
3577+990768773+990166501+989978971+991781407+995968047+998392265+995815356
3562+992229395+990220583+989091556+988868192+989656999+989584137+988586499
3548+988963284+989745986+988431286+986227977+985133588+985258940+985723849
3534+985733272+986258303+987630203+987899288+987108823+986620091+986027640
3519+985156084+984424081+983843840+983545093+983632620+983205402+982565107
3505+983651997+985476331+985360403+984138539+983516824+982830675+981931315
3491+981606157+981485052+980936000+980656828+981217162+981273965+980547337
3477+980459013+980571889+979701263+978581857+978238649+978141368+977688469
3462+976884068+975797577+975346271+975918814+976255386+975663930+975234125
3448+975992472+977006832+977369814+977320045+976420221+974632317+973616763
3434+974298400+975192053+975557424+976022201+976219087+976193274+976681741
3420+977182152+976959784+976169318+975199684+974510748+974434104+974933719
3405+975135515+974349496+973569184+973365197+972958484+972392510+972047843
3391+971521154+970951663+970908862+971189825+971172505+970834805+970463793
3377+969874594+968954862+967961405+967424895+967610965+967741094+967293903
3362+966574043+965610978+964981300+964961857+964516391+963722475+963381988
3348+963328437+962964990+962173463+961545510+961363090+961790639+962735123
3334+963423861+963807414+964072982+963963158+963801906+963982469+964367548
3320+964822106+965233663+965504207+965834807+966410800+966667609+966129240
3305+965461738+965274407+965520797+965859890+965742568+965364389+965427762
3291+965754645+965699236+965076724+964436495+964264095+964338417+964566890
3277+964780300+964827149+964541607+963872313+963593739+963943848+964642672
3263+965092982+964817593+964424086+963930510+962906860+962048509+962296359
3248+963315430+964118836+964523956+964736171+964628405+964145446+963617495
3234+963524593+963826725+964078291+964407695+964439216+963553526+962759610
3220+962432328+961922494+961655666+961865226+962311555+962873083+963432885
3205+964092093+964715135+965048721+964888531+964548376+964637562+964569013
3191+964050486+964019961+964450497+964770213+964992449+965196502+965458619
3177+965499562+965167967+964932593+964978978+964737697+963912991+963216888
3163+963239317+963631763+963745767+963493073+963015091+962231593+961437942
3148+961418168+961707691+960964672+959757341+959191832+959046042+959153675
3134+959546718+959398008+958839533+959356003+960151180+959698215+958569453
3120+957532797+957015198+957052426+957045657+956611339+955718681+954773666
3105+954209219+953971190+953255843+951394945+949383346+948146883+947287803
3091+945828707+943488433+941215447+939095949+936999742+935432216+933913463
3077+932255623+931243254+930842248+930038378+928214707+926165416+924841427
3063+923757987+921946659+919420647+917061461+915217683+913830255+913156713
3048+913345703+914475660+916358921+918846511+921960329+924899557+926753156
3034+928256380+929884359+931082334+932508781+934175779+935319738+936282271
3020+937147589+937244009+936425274+935485436+934782564+933901320+932507653
3006+930850410+929365965+927994263+926729001+925988106+925708669+925173685
2991+924492645+924259062+924265565+923817312+922602483+921057983+919144860
2977+915762820+910019803+901925429+893478758+888215978+886360853+884723053
2963+882207725+879635328+876980049+874311897+871927428+869738120+867785116
2948+865866287+863840620+862180324+861214472+860352472+858978050+857374225
2934+855775046+853911095+851696638+849770575+848649577+848024212+847837147
2920+848493036+850087372+852750083+856160922+859699170+863393693+866773942
2906+869131867+870409074+871204715+872116351+872944376+873830530+875145894
2891+876930214+879691003+883701726+888013982+891673202+894818342+897682584
2877+899668369+900501835+901137884+902314823+903179013+902837597+902165449
2863+901894904+901669749+901476380+901258723+900529772+899597167+899240555
2849+899561665+900814186+903132163+905958913+908902255+911812551+914557148
2834+917346936+920399372+923088759+924857419+925930108+926516388+926604578
2820+926409019+926257522+926277563+926377233+926153936+925730567+925924468
2806+926753156+927744887+929238224+931170193+932796314+934212808+935725256
2791+937014341+938028568+939243729+940445951+941276364+942263650+943443574
2777+944200330+944386731+944463044+944908576+945601362+946306755+947019315
2763+947739706+948604891+949302919+949540151+950041691+951005220+951687454
2749+952054020+952657088+953305612+953518225+953670585+953984462+954043853
2734+953938807+954096940+954492239+955102806+955867325+956282133+956473645
2720+957009757+958027435+959043520+959357861+959306964+959622633+960452250
2706+961175295+961309605+961436084+961738216+962049239+962456018+962775668
2692+963016617+963339452+963424989+963146282+963132479+963422733+963398246
2677+963225713+963383315+963754792+964221758+964712547+964877383+964921246
2663+965261135+965578662+965687490+965937264+966252070+966273902+966034613
2649+965970643+966390893+966596273+966162951+965793930+965783909+965962481
2634+966031560+965969714+966280671+967004512+967989210+969043517+969465891
2620+969284333+969502056+970208180+970677270+970720602+970878204+971614189
2606+972511691+973234868+973777550+973692279+972843086+972584685+973581725
2592+974007682+973330624+972917806+973122855+973862158+974864573+975166770
2577+974986806+975296104+975796316+976206214+976334353+976257111+976768471
2563+977653166+978175078+978089873+977731934+977787344+978516560+979388978
2549+979692570+979706505+980137505+980760879+980744687+980292784+980283428
2535+980196697+979574318+979156855+978881931+978835347+979368872+979478961
2520+978757840+978144818+978496320+979974262+981700320+982358532+981864491
2506+981491489+981755331+982099733+982215264+982486140+983282379+984236816
2492+984977579+985010626+984413331+984663105+985827037+986055710+984931991
2477+984030972+983906748+983932362+984428328+985913635+987653761+988382114
2463+988288283+988386494+988875027+989014978+988347807+988096307+988454910
2449+988369108+988392002+988923336+989192355+989154066+989446177+990000538
2435+990389732+990536385+990237040+989840082+989915731+989994300+990305124
2420+991207338+992109419+993038773+993523988+992976993+992378304+992524625
2406+993351124+994607626+995399751+995692393+996485181+997696692+998602622
2392+998942578+999051207+998977350+998448603+997552694+996332290+994581946
2378+992516264+990721260+989253869+988668851+989219429+989678897+989612406
2363+988612379+986526525+985683039+986726862+987227008+987034966+988270300
2349+990653840+991925605+991717106+992039543+992802204+993397243+994668876
2335+995851986+995964331+995554698+995911443+996951616+997060113+996258499
2320+996407010+998160075+999854878+1000416339+1000965060+1001807019+1002417785
2306+1003590012+1005489996+1006910936+1008018994+1009883874+1012318311
2294+1014394477+1016243364+1018878802+1021482918+1022765765+1023410640
2282+1024309734+1024979427+1025013004+1024813132+1024679950+1025240880
2269+1025800616+1025318984+1024535022+1023164979+1019771725+1014214180
2257+1006321272+994777040+980396968+964505906+947243873+932285617+925367983
2243+928268192+938183914+950246142+959708634+965266178+967539828+964797221
2229+955970446+944066086+931999478+919009754+903577961+887012761+871712293
2214+856848730+840422154+822941801+806121584+790704723+776686504+764891768
2200+757795961+759271249+768713435+782030573+799186034+820468345+842451869
2186+862390946+882105068+904175588+925277802+939017844+945619876+950826914
2172+958605353+968201093+974204370+976172304+978061803+980698701+985371750
2157+989456197+990408777+991454126+994286583+998595654+1002375448+1004196399
2143+1004726406+1003955317+1002675987+1002707441+1005605659+1009856269
2131+1011349473+1010617868+1010498157+1011109122+1011834357+1012884285
2119+1014173436+1015524235+1017123281+1018217670+1018448333+1018511971
2106+1018587288+1018504605+1018771301+1019512661+1020423103+1021696792
2094+1022799675+1023369497+1023620599+1024345302+1025821386+1027048492
2082+1027941150+1028755040+1029034941+1029050337+1029796806+1030310025
2070+1029230301+1027260840+1026461151+1027986473+1029135143+1028385687
2057+1028450586+1029952285+1031556574+1033033255+1033493055+1034003154
2045+1036100290+1036316619+1032211004+1028475338+1030603662+1035698421
2033+1037685932+1036767859+1036942780+1038926973+1038475402+1035029857
2021+1033011091+1033532870+1035506578+1036777812+1036259418+1036880005
2008+1039178605+1040087853+1038220783+1035603793+1033210565+1031125574
1996+1031928514+1034875440+1036057754+1035882898+1036196842+1036003074
1984+1035388061+1036168573+1037837960+1038668041+1040399606+1044198711
1972+1046075137+1045267617+1045351827+1045133971+1043151039+1041699375
1960+1040671146+1039967810+1041516358+1044282256+1044266729+1041194319
1947+1039399978+1041291468+1043757890+1042421425+1039215567+1037841012
1935+1037973464+1038530081+1038999105+1038702017+1038938519+1040900548
1923+1042476502+1043006908+1043803943+1043827035+1043148451+1044003152
1911+1045890262+1046251452+1045054009+1044529841+1045432718+1046103207
1898+1046259946+1047127056+1047874123+1048722519+1050515466+1050905390
1886+1049686247+1048881647+1048661867+1049465273+1050905257+1052097724
1874+1053764589+1057031895+1061323315+1062333627+1059204480+1056809925
1862+1056321193+1056162463+1056548737+1057621625+1058254157+1058527090
1849+1059379800+1062320753+1067234485+1068607647+1065668353+1064541648
1837+1065267347+1065451957+1066744426+1070932326+1073741823+1072570060
1825+1070692440+1068244266+1066141291+1065826286+1066115146+1066279583
1813+1067402506+1068720722+1068056803+1066750929+1066907337+1068286802
1800+1069028560+1067760113+1066451187+1068510166+1070742872+1066017002
1788+1059099102+1055661587+1054400041+1053809780+1052536621+1049042833
1776+1046616757+1047627003+1046261406+1037008542+1025502533+1016471638
1764+1010623840+1004825280+996951616+989029311+980279181+973318547+970395311
1750+966586850+957898964+947777729+940024175+934411950+928193738+924555752
1735+929630272+936042119+932672621+925786906+920292601+917537054+916558462
1721+918809815+926459850+933219683+929925104+924279302+922759554+925800178
1707+930024376+930250261+928511198+924119112+909595240+885948168+852624134
1692+818423235+783733670+745070345+707275125+654185010+588226541+540043059
1678+505708878+479754878+462102822+457515143+468548379+490518565+516213202
1664+549700379+591856497+630599387+664769230+700079315+745418596+784140383
1650+799943851+814492076+821607592+816008307+809668061+807308079+809777420
1635+811100813+805547382+802640338+804267521+803369355+795265427+775654758
1621+744578892+707428081+647936604+563819463+488855316+426876183+380824640
1607+361206706+367758803+392048326+423012212+451676536+474998084+493588254
1593+508917954+521717959+528996418+520133179+481237698+414076676+349618379
1578+326335153+370447128+453552298+522093516+582954803+628872268+645852940
1564+643900135+636597089+640404223+663871794+684573997+700188011+709666760
1550+708343766+698921620+688729581+684948725+694539820+715489342+730342154
1535+742024611+753266313+753261867+741508805+718954131+683541588+637980470
1521+573369880+502676980+439607672+381707544+338350266+309327240+293070708
1507+290563410+299406475+314631494+338176240+370743851+406830898+436986435
1493+461485785+489250649+517873631+537821069+552390762+567302169+584191797
1478+602860104+623679364+643199983+650250998+634940510+602878287+555300195
1464+499793958+469575845+478157358+524459404+585840745+618689585+633819843
1450+643094340+646853099+645739466+643273111+641334573+639116266+631785748
1436+609066240+570063622+515225784+447782406+392314690+362177501+352563413
1421+361113207+390190912+429250863+461388038+488508592+512946361+535006131
1407+556742635+579150589+598000123+609449262+611162114+601162581+582434418
1393+564581328+558684292+567947574+589083896+612513842+633684405+652556832
1378+668317896+681264819+691113850+695989427+697590464+698217952+699122820
1364+703971454+712262714+719149159+722974542+721996613+713172493+695694130
1350+670538127+640103817+609075729+582700649+563705392+551205097+543854804
1336+541447077+543815255+550585837+560886075+573505584+587443973+600517375
1321+608890522+608740020+599423982+585761314+573807516+567073895+566688417
1307+571690937+579739789+589125437+599187612+608969754+616432525+619064843
1293+615855735+608747718+601588936+597489293+597220805+600047024+605915593
1278+614946819+625716644+636562516+646769487+655563746+662549198+668618568
1264+673871327+676307755+674710632+670238783+663652147+654251833+642687097
1250+633385127+631713616+638521028+649410764+657861284+659457478+655019007
1236+649223831+646414865+648645913+655647756+665192333+675084033+683493146
1221+686553412+681945195+675423259+671819979+664080824+643147693+608909699
1207+567834234+527510546+491937315+459788959+427669004+394695907+364298393
1193+341874048+331786557+335992308+353494128+380376122+411485964+443329866
1179+474545451+504058370+530723570+553828856+572196790+584787897+591884965
1164+592500509+582293207+555229655+508211300+447639137+389632238+350791369
1150+339371394+353609758+385494405+425750937+466924913+505002987+539219779
1136+569356437+594749208+615246561+630676429+640691357+645335607+645078998
1121+641642875+637629565+634889347+634807128+637678339+640401038+637647548
1107+626071929+607065059+586439102+571778929+568475989+575183597+583685878
1093+585978572+581104722+574011436+569619881+570470998+577719629+591603803
1079+611055343+633306492+654394173+670545360+680619879+687440297+695718816
1064+707280101+718912325+726370716+727917140+723595792+714127196+701068591
1050+686778833+674374525+667158211+667312893+674557875+685441107+696965829
1036+709655346+723989764+737832265+749258179+758431214+766193196+773316807
1022+780178036+786074276+789812330+790867302+789769263+787335888+784673775
1007+783661472+785218845+787814401+788505793+784254785+772535765+752703923
993+725381440+692659213+666464165+664641157+687960417+718506674+742507371
979+758720140+770323232+779729849+787586127+793518002+797967024+801800701
964+805637564+810347243+816398165+822999865+829314961+835085119+839525847
950+841755699+841499488+838792251+833775795+827132157+820617586+815917529
936+813297951+811203072+806495184+797095534+784136269+770044790+757043851
922+747135960+741566537+740229939+741203289+743039834+746723474+753754846
907+763666520+773622124+780294097+781033997+774608547+761435407+743280517
893+725352176+716246296+722265698+741591753+765328276+784862167+796974894
879+802793295+805395288+808551443+814660561+823146849+831709848+839211771
865+845813669+850704442+852501105+851508776+849543230+847369782+843764445
850+838115524+831395175+823985093+815659725+806438182+796000549+784404424
836+772506899+760774938+749036275+735939249+720023104+701611738+680674160
822+656167212+629001402+602794409+582151465+572113311+578070402+602281522
807+640581799+684714080+726403696+758975554+778694254+784734692+777607763
793+758453776+727646596+684370143+629634730+568095090+505749589+448934526
779+403642062+374678095+367992186+388158543+431627668+486442380+539668729
765+584423057+619532474+645280529+662978871+675081910+683590826+690207855
750+694624162+692791466+678942860+649955171+610876838+574843708+553392049
736+547823555+552046460+560681159+572147618+586437178+603205767+621656086
722+641563311+663326856+686490703+709327601+729521164+743921011+750031391
708+748113092+740397495+729970479+719469141+712672944+714824095+725867385
693+740245799+754733837+767885875+777255730+783437047+788058933+790448644
679+791310379+793093040+796713640+800220102+801348134+803294171+809865279
665+814548415+818109690+823968105+829091598+830560316+830574782+830510613
650+830965768+833906455+837620753+837595404+833527414+830332838+831097821
636+832242510+827073894+809820885+781791151+760695639+765424364+788383361
622+806737659+811391597+806977015+798211290+788069617+780676191+778251443
608+779987586+785297613+793590266+803480241+813976867+823351898+829886310
593+834712913+838595563+839771108+837490624+833128134+829795199+828096548
579+824644765+816957370+804184573+786761952+764450483+733440842+691002368
565+642601428+597335075+562824148+549424227+564195916+598822905+635663886
551+661339943+670808738+669479241+666745526+667641170+673342979+678310594
536+675314497+664189122+649285213+638863838+639701749+648204494+657683509
522+668412856+680869122+691818779+699068140+698970527+688859445+673804703
508+660968798+652888957+650701640+653638811+657562936+665321666+683242243
493+707996909+731091145+747588593+760085603+773092515+783869772+789601840
479+793673414+796892742+795665238+785581363+765103386+742196547+725499558
465+712889473+697843689+682150178+668086437+653340462+641914349+635873381
451+631344264+628397537+630265403+638720370+653636953+671632648+688302164
436+704942681+724591174+740769436+748838991+755460001+763946156+769820564
422+772841944+777544257+778904545+772173579+763765660+753555239+734375505
408+697849263+647119463+602058822+582198181+589227696
##END=
