##TITLE=TMG2Meequ
##JCAMP-DX=5.0
##DATA TYPE=LINK
##BLOCKS=1


$$ === CHEMSPECTRA SPECTRUM ORIG ===
##TITLE=TMG2Meequ
##JCAMP-DX=5.00
##DATA TYPE=INFRARED SPECTRUM
##DATA CLASS=XYDATA
##$CSCATEGORY=SPECTRUM
##ORIGIN=
##OWNER=
##XUNITS=1/CM
##YUNITS=TRANSMITTANCE
##XFACTOR=0.12501352010900002
##YFACTOR=0.003773477597641861
##FIRSTX=4000.433
##LASTX=249.7859
##MAXX=4000.433
##MAXY=120.75128312453954
##MINX=249.7859
##MINY=22.255970870891694
##NPOINTS=3890
##XYDATA= (X++(Y..Y))
3890B6327B6353B6456B6515B6507B6499B6515B6510B6494B6540B6543B6501B6520B6517
3876B6458B6415B6422B6470B6511B6442B6420B6491B6528B6485B6471B6511B6509
3863B6472B6431B6408B6421B6519B6508B6413B6399B6419B6433B6457B6437B6452
3850B6457B6442B6493B6528B6500B6429B6412B6478B6518B6504B6526B6586B6548
3837B6450B6495B6468B6394B6436B6471B6497B6388B6305B6362B6413B6451B6471
3824B6458B6421B6509B6571B6609B6422B6359B6442B6448B6474B6435B6459B6464
3811B6299B6320B6425B6550B6516B6314B6459B6547B6311B6310B6436B6464B6433
3798B6464B6398B6448B6416B6459B6566B6565B6643B6240B6215B6384B6194B6503
3785B6325B6208B6352B6512B6577B6585B6538B6638B6411B6165B6394B6493B6573
3772B6797B6189B5954B6313B6440B6573B6479B6001B6110B6378B6414B6480B6665
3759B6397B6176B6368B6605B6608B6074B6193B6416B6592B6608B6262B6302B6512
3746B6353B6283B6434B6520B6486B6343B6582B7254B6072B5895B5947B6063B6375
3733B6378B6419B6397B6382B6527B6609B6260B6347B6505B6349B6516B6754B5953
3720B6050B6453B6255B6325B6682B6413B6186B6392B6459B6511B6478B6359B6430
3707B6425B6517B6729B6211B5900B6225B6473B6799B6438B5883B6234B6426B6450
3694B6459B6460B6470B6602B6659B6129B6199B6495B6602B6705B6544B5970B6174
3681B6418B6489B6434B6212B6309B6479B6466B6443B6495B6439B6418B6391B6565
3668B6522B6523B6417B6450B6594B6607B6685B6478B6202B6267B6364B6420B6446
3655B6531B6604B6613B6692B6503B6296B6454B6582B6482B6231B6382B6476B6492
3642B6575B6569B6242B6279B6470B6394B6341B6451B6653B6649B5985B6424B6554
3629B5918B6192B6502B6903B6820B5569B6032B6389B6339B6264B6369B6422B6551
3616B6463B6289B6081B6477B6436B6022B6282B6413B6463B6512B6347B6308B6359
3603B6410B6448B6323B6369B6443B6360B6333B6398B6448B6433B6434B6630B6351
3590B6194B6482B6315B6223B6351B6458B6496B6486B6523B6544B6308B6294B6440
3577B6432B6442B6414B6384B6393B6436B6502B6540B6226B6269B6529B6014B6080
3564B6328B6394B6362B6352B6378B6478B6530B6368B6366B6610B6827B6291B5863
3551B6183B6438B6742B6368B6153B6138B6166B6398B6414B6394B6360B6363B6438
3538B6474B6389B6409B6519B6615B6287B6177B6377B6471B6631B6504B6240B6154
3525B6189B6216B6031B6249B6372B6448B6466B6458B6438B6390B6379B6342B6334
3512B6359B6411B6404B6282B6381B6549B6764B6273B5818B6049B6308B6381B6441
3499B6429B6393B6402B6474B6296B6233B6242B6276B6451B6369B6341B6288B6076
3486B6289B6521B6231B6218B6243B6181B6302B6375B6400B6414B6394B6319B6325
3473B6276B6314B6421B6344B6322B6433B6347B6392B6431B6516B6443B6351B6310
3460B6243B6344B6365B6361B6396B6414B6394B6423B6446B6420B6360B6328B6306
3447B6349B6432B6445B6400B6509B6433B6237B6250B6165B6249B6316B6360B6394
3434B6412B6365B6324B6332B6331B6320B6355B6388B6414B6336B6318B6349B6365
3421B6412B6375B6384B6397B6343B6333B6345B6378B6382B6429B6444B6430B6390
3408B6331B6370B6484B6540B6498B6387B6368B6370B6408B6446B6435B6442B6446
3395B6415B6361B6359B6410B6427B6449B6427B6420B6414B6344B6365B6427B6385
3382B6349B6315B6289B6354B6405B6451B6463B6423B6365B6394B6436B6468B6439
3369B6453B6496B6482B6403B6408B6480B6433B6445B6449B6425B6427B6397B6394
3356B6373B6372B6430B6519B6478B6392B6384B6442B6453B6447B6394B6383B6358
3343B6419B6440B6342B6278B6302B6357B6383B6371B6438B6405B6326B6292B6335
3330B6394B6393B6356B6295B6316B6391B6455B6410B6394B6410B6385B6379B6385
3317B6445B6382B6314B6368B6478B6512B6430B6417B6418B6436B6436B6382B6349
3304B6363B6375B6380B6361B6318B6349B6413B6412B6332B6330B6372B6371B6375
3291B6379B6396B6381B6353B6366B6404B6394B6362B6366B6432B6402B6380B6399
3278B6391B6386B6358B6349B6378B6363B6384B6390B6411B6411B6360B6329B6347
3265B6445B6443B6405B6436B6451B6418B6361B6374B6392B6424B6400B6372B6465
3252B6498B6445B6414B6453B6509B6493B6493B6460B6451B6477B6485B6467B6453
3239B6479B6504B6439B6393B6481B6466B6397B6405B6429B6449B6504B6537B6490
3226B6469B6447B6421B6427B6467B6468B6476B6460B6486B6501B6516B6506B6485
3213B6483B6468B6456B6466B6481B6483B6459B6460B6498B6499B6466B6427B6450
3200B6484B6455B6419B6455B6507B6520B6493B6460B6489B6503B6510B6541B6507
3187B6539B6549B6508B6504B6549B6565B6586B6584B6605B6625B6579B6526B6486
3174B6507B6511B6513B6478B6479B6525B6489B6440B6460B6500B6501B6488B6507
3161B6468B6492B6527B6478B6442B6463B6487B6503B6547B6590B6589B6558B6557
3148B6586B6625B6650B6639B6596B6555B6535B6513B6492B6457B6460B6466B6473
3135B6489B6446B6463B6502B6479B6429B6465B6528B6560B6567B6554B6596B6593
3122B6570B6574B6561B6580B6601B6592B6586B6592B6558B6536B6557B6577B6568
3109B6517B6499B6506B6498B6517B6518B6513B6527B6529B6468B6510B6579B6537
3096B6529B6519B6557B6575B6569B6557B6565B6637B6635B6577B6519B6499B6565
3083B6633B6614B6591B6565B6525B6524B6523B6488B6477B6503B6531B6546B6585
3070B6583B6562B6569B6587B6605B6540B6509B6540B6557B6558B6587B6608B6586
3057B6576B6585B6567B6557B6520B6502B6502B6486B6475B6512B6508B6485B6475
3044B6455B6491B6524B6521B6519B6513B6542B6545B6525B6521B6550B6547B6562
3031B6533B6502B6521B6584B6679B6637B6557B6561B6560B6563B6513B6495B6524
3018B6544B6533B6541B6553B6482B6464B6484B6440B6377B6391B6480B6498B6438
3005B6370B6380B6450B6499B6540B6574B6539B6492B6492B6530B6575B6582B6553
2992B6546B6547B6569B6606B6596B6568B6546B6544B6550B6547B6536B6526B6487
2979B6426B6397B6468B6471B6425B6427B6457B6492B6488B6496B6478B6452B6471
2966B6458B6419B6427B6442B6444B6404B6406B6429B6413B6398B6403B6408B6375
2953B6391B6424B6422B6377B6314B6277B6261B6246B6260B6274B6310B6318B6306
2940B6307B6305B6307B6245B6227B6225B6177B6154B6131B6139B6129B6103B6092
2927B6024B5951B5937B5920B5875B5832B5831B5873B5803B5753B5760B5724B5663
2914B5644B5616B5592B5618B5548B5475B5477B5476B5468B5501B5520B5487B5486
2901B5458B5451B5473B5443B5473B5505B5459B5451B5470B5449B5451B5441B5396
2888B5386B5382B5334B5263B5279B5314B5312B5360B5401B5368B5389B5444B5461
2875B5427B5362B5308B5331B5358B5292B5240B5241B5238B5208B5124B5092B5079
2862B5032B5015B4998B4949B4883B4880B4830B4750B4746B4729B4718B4702B4672
2849B4677B4706B4728B4736B4779B4844B4888B4929B4972B5038B5102B5191B5261
2836B5299B5322B5347B5355B5340B5335B5364B5342B5318B5298B5254B5248B5262
2823B5273B5291B5280B5236B5163B5122B5054B4969B4918B4853B4712B4623B4547
2810B4391B4254B4094B3905B3710B3554B3358B3150B2993B2903B2797B2673B2588
2797B2537B2504B2505B2531B2490B2414B2402B2380B2327B2291B2256B2211B2148
2784B2056B2002B1995B1937B1874B1850B1820B1813B1868B1854B1827B1844B1870
2771B1867B1892B1941B1956B2003B2092B2143B2146B2203B2299B2364B2424B2480
2758B2572B2615B2623B2659B2700B2741B2714B2680B2713B2704B2671B2654B2640
2745B2610B2586B2548B2497B2449B2387B2371B2363B2327B2286B2234B2194B2172
2732B2175B2169B2129B2149B2226B2217B2185B2199B2201B2221B2234B2212B2242
2719B2247B2255B2277B2286B2295B2361B2393B2459B2542B2615B2641B2697B2768
2706B2780B2804B2851B2874B2912B2968B2972B2978B2980B2983B3029B3092B3155
2693B3222B3277B3352B3458B3553B3618B3713B3793B3884B4000B4132B4268B4402
2680B4553B4688B4801B4908B4979B5048B5121B5146B5138B5163B5182B5158B5118
2667B5095B5078B5041B5003B4969B4955B4952B4930B4948B4966B4960B4992B5007
2654B5024B5060B5082B5064B5073B5084B5069B5030B5020B4988B4919B4858B4822
2641B4788B4743B4725B4713B4697B4695B4761B4868B4971B5059B5159B5201B5253
2628B5334B5393B5486B5553B5605B5650B5678B5718B5758B5796B5848B5912B5966
2615B5988B6003B6039B6069B6079B6095B6114B6109B6122B6142B6112B6102B6102
2602B6121B6127B6152B6152B6150B6166B6190B6210B6220B6237B6277B6284B6288
2589B6300B6312B6303B6286B6326B6367B6377B6354B6339B6353B6368B6383B6379
2576B6361B6337B6318B6313B6308B6306B6297B6282B6297B6318B6317B6313B6342
2563B6375B6396B6418B6431B6427B6408B6432B6455B6432B6411B6413B6413B6441
2550B6448B6465B6479B6501B6485B6440B6427B6450B6452B6429B6394B6367B6361
2537B6391B6383B6372B6393B6399B6402B6414B6402B6405B6438B6434B6437B6458
2524B6478B6492B6472B6460B6475B6480B6471B6430B6417B6406B6403B6415B6417
2511B6416B6371B6334B6349B6358B6338B6300B6303B6333B6349B6343B6376B6414
2498B6407B6404B6432B6443B6426B6430B6451B6464B6460B6465B6502B6516B6506
2485B6478B6450B6438B6469B6468B6426B6435B6431B6393B6340B6324B6368B6401
2472B6406B6416B6419B6394B6397B6407B6426B6425B6414B6419B6457B6500B6502
2459B6484B6482B6504B6491B6525B6538B6506B6493B6463B6427B6429B6437B6440
2446B6403B6357B6334B6295B6321B6376B6363B6365B6358B6308B6295B6300B6331
2433B6370B6377B6344B6349B6363B6362B6405B6493B6524B6506B6419B6385B6406
2420B6450B6480B6390B6273B6300B6314B6337B6367B6346B6306B6284B6325B6297
2407B6207B6238B6312B6346B6385B6459B6465B6389B6353B6430B6508B6480B6510
2394B6514B6505B6527B6571B6537B6493B6482B6505B6476B6435B6418B6374B6394
2381B6465B6506B6475B6425B6434B6420B6375B6374B6409B6468B6541B6561B6517
2368B6493B6486B6454B6516B6605B6576B6531B6520B6493B6476B6420B6422B6457
2355B6424B6345B6347B6417B6454B6366B6344B6304B6322B6306B6297B6381B6432
2342B6388B6351B6402B6396B6364B6357B6381B6402B6415B6370B6382B6492B6511
2329B6411B6376B6394B6456B6465B6436B6404B6403B6396B6396B6398B6427B6423
2316B6403B6411B6451B6427B6374B6404B6386B6403B6471B6514B6508B6527B6544
2303B6561B6578B6562B6504B6496B6551B6569B6513B6510B6539B6532B6514B6471
2290B6418B6416B6419B6407B6465B6518B6475B6430B6408B6403B6442B6491B6452
2277B6408B6406B6477B6530B6510B6487B6502B6515B6569B6597B6604B6529B6484
2264B6506B6582B6603B6591B6564B6521B6507B6513B6473B6491B6488B6529B6559
2251B6546B6541B6491B6433B6416B6482B6548B6508B6515B6523B6527B6596B6670
2238B6610B6516B6498B6572B6596B6555B6530B6557B6570B6565B6515B6479B6475
2225B6502B6525B6474B6440B6442B6470B6475B6479B6476B6447B6454B6465B6510
2212B6561B6586B6567B6536B6582B6653B6647B6611B6578B6649B6766B6764B6624
2199B6549B6572B6530B6546B6602B6581B6612B6537B6421B6446B6444B6407B6368
2186B6375B6459B6390B6346B6384B6406B6359B6318B6384B6545B6555B6513B6533
2173B6575B6578B6600B6587B6550B6510B6509B6505B6462B6412B6475B6421B6398
2160B6422B6439B6419B6431B6364B6430B6386B6449B6453B6512B6453B6537B6532
2147B6575B6479B6598B6519B6557B6521B6622B6505B6526B6502B6574B6515B6502
2134B6487B6466B6529B6462B6446B6413B6473B6379B6417B6394B6408B6343B6359
2121B6438B6458B6484B6473B6404B6388B6403B6480B6464B6451B6501B6525B6516
2108B6544B6563B6505B6487B6505B6505B6568B6607B6545B6445B6372B6375B6370
2095B6422B6448B6406B6357B6357B6399B6455B6518B6569B6604B6637B6634B6575
2082B6609B6580B6549B6578B6594B6653B6594B6476B6566B6630B6659B6618B6469
2069B6367B6374B6482B6472B6372B6462B6595B6681B6655B6651B6548B6486B6519
2056B6524B6454B6465B6511B6567B6528B6345B6385B6555B6411B6399B6578B6698
2043B6479B6402B6411B6508B6620B6490B6457B6694B6591B6606B6549B6497B6407
2030B6324B6393B6328B6246B6464B6628B6609B6696B6603B6476B6463B6365B6359
2017B6524B6574B6522B6530B6474B6348B6291B6487B6584B6396B6409B6351B6485
2004B6678B6631B6446B6500B6578B6538B6560B6581B6747B6545B6062B6177B6560
1991B6811B6720B6542B6409B6479B6394B6438B6619B6648B6745B6764B6705B6649
1978B6453B6287B6355B6680B6762B6611B6519B6487B6455B6628B6706B6632B6569
1965B6579B6650B6611B6466B6447B6469B6245B6132B6340B6390B6415B6394B6375
1952B6495B6543B6651B6701B6496B6393B6334B6308B6328B6417B6427B6217B6175
1939B6290B6283B6245B6151B6122B6342B6454B6473B6418B6426B6378B6370B6375
1926B6476B6507B6420B6411B6521B6525B6383B6360B6431B6553B6468B6342B6370
1913B6493B6393B6278B6385B6460B6454B6435B6496B6509B6364B6333B6353B6317
1900B6333B6349B6319B6326B6308B6402B6502B6429B6394B6491B6416B6352B6595
1887B6711B6534B6535B6563B6480B6500B6450B6470B6481B6350B6389B6380B6321
1874B6277B6382B6399B6366B6286B6346B6505B6602B6578B6450B6495B6505B6670
1861B6802B6798B6797B6793B6701B6568B6434B6359B6401B6364B6343B6467B6712
1848B6765B6793B6821B6641B6530B6707B6655B6469B6554B6521B6399B6484B6455
1835B6327B6620B6923B6807B6687B6587B6505B6254B6251B6148B6152B6342B6396
1822B6474B6589B6496B6639B6586B6511B6476B6254B6165B6377B6601B6452B6380
1809B6379B6331B6274B6288B6305B6264B6316B6427B6410B6460B6425B6411B6443
1796B6544B6670B6545B6446B6363B6216B6391B6656B6536B6672B6553B6300B6332
1783B6276B6369B6342B6217B6245B6384B6545B6521B6507B6371B6269B6404B6453
1770B6275B6083B6107B6283B6480B6656B6662B6795B6809B6553B6453B6336B6446
1757B6525B6429B6380B6426B6446B6379B6421B6512B6473B6424B6435B6445B6412
1744B6406B6330B6296B6280B6218B6253B6373B6423B6496B6476B6466B6475B6499
1731B6465B6419B6464B6451B6476B6458B6455B6511B6524B6502B6480B6451B6495
1718B6550B6486B6473B6478B6520B6495B6459B6454B6367B6304B6370B6427B6460
1705B6496B6526B6512B6496B6495B6546B6568B6545B6552B6527B6495B6467B6464
1692B6515B6549B6535B6485B6440B6447B6435B6412B6423B6435B6442B6484B6433
1679B6387B6403B6405B6407B6426B6460B6498B6495B6497B6527B6527B6504B6492
1666B6512B6516B6516B6533B6511B6492B6542B6566B6499B6483B6522B6551B6365
1653B6399B6474B6456B6459B6427B6424B6446B6453B6460B6467B6485B6464B6494
1640B6533B6456B6427B6465B6522B6535B6454B6466B6492B6486B6499B6495B6490
1627B6499B6471B6436B6410B6412B6456B6464B6464B6430B6425B6450B6470B6470
1614B6432B6413B6435B6476B6479B6484B6473B6453B6489B6519B6526B6505B6542
1601B6511B6419B6415B6402B6444B6451B6426B6394B6355B6278B6262B6271B6276
1588B6199B6180B6179B6174B6172B6143B6129B6197B6094B5966B5951B6015B6102
1575B5958B5938B5867B5869B5867B5988B5828B5576B5595B5543B5459B5241B4831
1562B4631B4440B4057B3718B3075B2338B1960B1263B0596A9938A9333A8782A8226
1549A7690A7430A7437A7528A7820A8421A9157A9761B0465B0969B1401B1740B1937
1536B1788B1390B0993B0463A9679A8779A7795A6747A5703A4718A3812A3181A2491
1523A1746A1414A1552A1751A2181A2907A3856A4949A6123A7372A8595A9745B0788
1510B1636B2362B3004B3591B4149B4236B4222B4627B4967B5301B5088B5174B5423
1497B5697B5782B5827B5860B5908B5929B5971B6114B6151B5964B5979B6063B6148
1484B6145B6146B6190B6260B6358B6237B6214B6337B6407B6372B6394B6421B6368
1471B6436B6473B6528B6539B6566B6485B6470B6523B6545B6565B6555B6534B6552
1458B6606B6651B6430B6217B6379B6462B6511B6487B6427B6420B6344B6390B6436
1445B6435B6419B6405B6348B6375B6330B6388B6276B6016B6060B6063B6014B5963
1432B5827B5716B5554B5375B5283B5217B5137B4807B4687B4628B4523B4428B4374
1419B4359B3858B3748B3723B3586B3400B3185B2966B2684B2362B2090B1747B1360
1406B1036B0684B0300A9910A9537A9260A8854A8397A7955A7502A7042A6613A6247
1393A5954A5648A5388A5132A4898A4653A4432A4244A4142A4054A4015A4031A4059
1380A4040A3999A3943A3869A3299A3034A2850A2579A2258A2076A1959A1873A1994
1367A2325A2835A3450A4120A4850A5627A6261A6885A7279A7388A7179A7084A6907
1354A6347A5363A4792A4202A3675A3037A2586A2209A1936A1762A1517A1403A1456
1341A1429A1578A1792A2002A2361A2770A3211A3669A4147A4598A5060A5545A5980
1328A6310A6629A6886A7101A7232A7191A7274A7243A7071A6753A6546A6446A6302
1315A5891A5613A5452A5251A5109A4864A4674A4618A4522A4563A4565A4532A4630
1302A4904A5112A5341A5474A5483A5328A4869A4446A4245A3999A4297A4919A5831
1289A6834A7909A9007A9912B0641B1271B1794B2174B2278B2440B2371B2320B2105
1276B1941B1580B1217B0712B0061A9826A9505A9184A9047A9169A9458A9759B0073
1263B0371B0654B0746B0767B0860B0691B0571B0385B0117A9693A9112A8105A7633
1250A7045A6387A5737A5027A4416A3955A3562A3277A3175A3198A3257A3468A3679
1237A3934A4152A4400A4602A4806A4986A5202A5560A6040A6601A7277A7939A8472
1224A8659A8552A8090A7472A6877A6418A5942A5737A5791A6172A7073A8509A9832
1211B1321B2577B3529B4152B4395B4488B4481B4536B4665B4900B5140B5306B5344
1198B5299B5415B5629B5966B6276B6454B6409B6233B5828B5192B4147B3060B2043
1185B0957A9895A8973A8213A7561A6762A6259A5845A5520A5303A5212A5241A5418
1172A5729A6158A6670A7280A7979A8683A9386B0012B0598B0863B1080B0991B0657
1159B0006A9056A7990A6895A5781A4886A4130A3686A3483A3364A3341A3387A3429
1146A3492A3633A3893A4311A4861A5558A6394A7315A8242A9174B0092B0980B1803
1133B2562B3134B3772B4297B4789B5239B5606B5831B6060B6240B6360B6420B6500
1120B6587B6556B6412B6227B5921B5521B4994B4414B3736B2981B2174B1426B0849
1107B0419B0157B0101B0233B0451B0664B0876B1031B1125B1182B1248B1369B1536
1094B1670B1807B1951B2054B2056B1983B1803B1426B0779A9885A8758A7516A6333
1081A5405A4866A4772A5124A5859A6774A7642A8339A8824A9118A9233A9191A9071
1068A8923A8783A8616A8470A8350A8212A8002A7715A7336A6838A6239A5566A4876
1055A4201A3538A3000A2618A2449A2543A2927A3584A4475A5520A6675A7835A8900
1042A9857B0678B1340B1851B2251B2567B2775B2847B2829B2761B2640B2467B2292
1029B2168B2055B1970B1949B1996B2047B2080B2101B2129B2079B1946B1718B1411
1016B1030B0639B0241A9928A9724A9650A9771B0109B0591B1174B1770B2397B2979
1003B3424B3803B4151B4487B4822B5175B5528B5799B5969B6099B6164B6154B6099
990B5965B5772B5541B5203B4777B4300B3741B3115B2490B1926B1458B1087B0840
977B0794B0943B1236B1633B2168B2730B3299B3892B4425B4893B5314B5683B5997
964B6237B6397B6494B6583B6558B6440B6305B6162B6000B5832B5754B5780B5828
951B5871B5910B5900B5808B5635B5392B5048B4603B4065B3423B2682B1825B0807
938A9672A8503A7269A5998A4777A3651A2617A1660A0833A0159I561I063H681H368
924H071G749G445G183G003G019G342H073I127A0325A1312A1770A1612A0905I850
909H684G571F646F066E898F147F754G667H786A0000A1181A2316A3405A4365A5176
894A5881A6503A7037A7547A8052A8553A9073A9608B0156B0675B1161B1610B2042
881B2421B2724B3012B3227B3355B3404B3393B3299B3125B2805B2424B2072B1756
868B1518B1433B1482B1715B2075B2544B3080B3587B3960B4267B4580B4760B4764
855B4732B4662B4469B4194B3783B3301B2827B2325B1862B1527B1272B1064B0941
842B0898B0892B0950B1152B1479B1944B2496B3113B3704B4195B4623B5042B5343
829B5586B5797B5986B6118B6243B6362B6470B6555B6580B6557B6565B6577B6563
816B6550B6500B6404B6310B6153B5976B5835B5641B5305B4898B4395B3732B2890
803B1918B0771A9455A7995A6523A5150A3869A2736A1851A1184A0698A0407A0341
790A0500A0878A1446A2265A3339A4565A5833A7097A8238A9237B0095B0730B1239
777B1672B1918B2039B2126B2146B2118B2117B2143B2156B2167B2215B2328B2417
764B2481B2642B2832B2977B3114B3200B3262B3302B3286B3236B3194B3102B2978
751B2897B2850B2827B2809B2804B2859B2960B3081B3232B3415B3592B3785B4034
738B4271B4464B4680B4930B5134B5315B5470B5620B5737B5829B5921B6017B6131
725B6174B6180B6274B6359B6378B6390B6408B6430B6468B6477B6481B6487B6464
712B6423B6406B6341B6205B6058B5921B5669B5254B4734B4167B3565B3086B2751
699B2589B2665B2944B3388B3936B4455B4893B5301B5668B5897B6052B6132B6246
686B6380B6389B6423B6525B6500B6417B6327B6143B5880B5613B5288B4923B4537
673B3919B3126B2538B2425B2810B3505B4224B4702B5024B5229B5384B5505B5470
660B5389B5387B5374B5323B5233B5124B4933B4674B4335B3859B3220B2390B1518
647B0943B0849B1276B2014B2840B3576B4087B4392B4498B4359B4037B3706B3311
634B2641B1818B0937A9983A8987A8007A7020A6014A4928A3806A2844A2066A1540
621A1399A1778A2702A4147A5931A7827A9674B1180B2353B3319B4011B4482B4808
608B5040B5286B5432B5508B5613B5695B5634B5506B5353B4949B4309B3597B2759
595B1980B1617B1866B2721B3826B4730B5340B5737B5960B6090B6283B6427B6493
582B6533B6527B6527B6545B6535B6545B6580B6579B6509B6489B6438B6356B6259
569B6101B5852B5498B4871B4059B2960B1417A9985A9160A9051A9637B0305B0281
556A9604A8498A7083A5681A4535A3763A3566A3979A4811A5825A6733A7136A6866
543A6009A4702A3285A1989A1075A0833A1250A2085A3125A4055A4738A5190A5331
530A5161A4845A4454A3839A3249A2737A2321A2070A2021A2188A2474A2864A3296
517A3844A4469A5050A5751A6611A7417A8067A8536A8838A9046A9127A9071A9011
504A8908A8863A8860A8852A8903A8993A9153A9423A9758B0030B0378B0824B1234
491B1663B2072B2496B2947B3417B3820B4158B4416B4607B4815B5015B5035B5031
478B5129B5108B4914B4761B4559B4488B4249B3839B3527B3244B2890B2627B2519
465B2403B2259B2292B2252B2158B1997B1767B1466B0979B0521A9998A9526A8886
452A8155A7571A7045A6624A6370A6148A6223A6522A6849A7311A8037A8790A9515
439B0285B0934B1308B1495B1430B1728B2181B2196B1854B1363B0579A9809A9383
426A9277A9716B0578B1533B2468B3320B3869B4313B4685B4857B5047B5263B5509
413B5679B5841B6025B6081B6151B6173B6191B6303B6372B6411B6460B6511B6491
400B6473B6474B6401B6314B6210B6074B5980B5835B5695B5598B5505B5285B5084
387B4898B4825B4923B5082B5298B5605B5865B5946B6048B6117B6097B6082B6090
374B5947B5668B5406B5163B4862B4577B4352B4329B4332B4298B4349B4606B4919
361B5225B5551B5750B5902B6175B6296B6389B6525B6467B6473B6570B6437B6441
348B6580B6598B6520B6435B6290B6346B6274B5898B5472B5159B4890B4702B4457
335B4333B4365B4294B3914B3415B2785B2029B1391B1027B0876B1150B1914B2599
322B3258B4026B4642B5194B5589B5756B6000B6232B6182B6190B6348B6231B6086
309B6095B6032B5875B5626B5287B5111B4940B4626B4441B4552B4614B4786B4981
296B5231B5678B5815B5777B6025B6289B6196B6171B6475B6563B6488B6545B6480
283B6371B6397B6409B6273B6170B6020B6135B6126B5884B5860B6024B5935B5687
270B5650B5730B5666B5754B5772B5806B5692B5497B5536B5536B5359B5190B5145
257B5215B5208B5436B5460B5430B5315B5270B5342B5419B5242B5046B5175B5569
244B5602B5253B5005B5287B5475B5257B5368B5208B5021B5400B5477B5291B5194
231B5165B5203B5045B4598B4214B4359B4284B3696B3281B2872B2577B2419B1971
218B1497B1189B1148B1021B0602B0048A9669A9641A9811B0147B0304B0624B1041
205B1516B1736B2215B2906B2976B3158B3923B4220B4270B4640B5120B5256B5115
192B4874B4859B5154B4869B4518B4240B3613B3748B3952B3704B3858B4077B4145
179B4502B4931B5063B5296B5561B5237B5632B6099B5786B5783B6150B6253B6417
166B6484B6366B6429B6606B6553B6577B6612B6224B6049B6002B6056B6755B6523
153B5566B5786B5742B4978B5081B5094B4484B4246B4203B4078B4376B4223B3506
140B3250B3021B2859B3129B3126B2601B2559B2340B1609B2535B3425B2839B2833
127B3086B2686B2494B2212B1602B1555B2057B1892B1510B1773B1636B1215B1588
114B2204B2371B1857B1360B1377B1678B1917B2538B2775B3388B3239B3158B3580
101B3620B3348B3215B3759B3835B2657B1557B1500B1372B1935B2918B2274B0739
88B1575B2663B3178B3491B3997B3749B3743B4469B3529B4231B5259B2629B2729
75B3427B3118B3302B3173B2408B2971B3177B1069B1117B2057B1665B1503B1265
62B0776B0509B0559B0509B1035B0963A8628A8518B0619B1146B1280B0332B0236
49B1528B2837B3137B2583B2025B3321B7221B5900B2919B3283B2851B2480B3742
36B3730B0709B2624B7272B6932B3882B3384B4535B5092B3202B2593B4670B4994
23B3066B2305B2585B2826B2059B6450B7319B5479B3660B2122B0746B1156B0479
10B3617B4826B3392B0821B5020C2000B8097C0157B4938A5997
$$ === CHEMSPECTRA INTEGRALS AND MULTIPLETS ===
##$OBSERVEDINTEGRALS= (X Y Z)

##$OBSERVEDMULTIPLETS=
##$OBSERVEDMULTIPLETSPEAKS=
$$ === CHEMSPECTRA SIMULATION ===
##$CSSIMULATIONPEAKS=
##END=


$$ === CHEMSPECTRA PEAK TABLE EDIT ===
##TITLE=TMG2Meequ
##JCAMP-DX=5.00
##DATA TYPE=INFRAREDPEAKTABLE
##DATA CLASS=PEAKTABLE
##$CSCATEGORY=EDIT_PEAK
##$CSTHRESHOLD=0.93
##MAXX=4000.433
##MAXY=120.75128312453954
##MINX=249.7859
##MINY=22.255970870891694
##$CSSOLVENTNAME=- - -
##$CSSOLVENTVALUE=0
##$CSSOLVENTX=0
##NPOINTS=45
##PEAKTABLE= (XY..XY)
428.2044429416301, 89.10312651311726
452.3150568526612, 74.11487349528379
539.1132669323733, 92.22756596396472
563.2238808434045, 78.77511832837149
600.836438544613, 91.68795866750193
621.0893542298791, 93.6765813614592
659.666336487529, 72.74132764974215
679.919252172795, 60.93411624672077
731.9981782206223, 71.13759967074436
752.2510939058884, 45.36097420125281
767.6818868089481, 40.87808281525428
779.2549814862432, 51.19099708960948
788.8992270506556, 71.88852171267509
821.6896619696577, 81.5712652282241
847.7291249935715, 43.01387113551957
871.8397389046027, 78.67323443323515
894.9859282591924, 84.62023512711873
922.9542403959886, 85.23908545313199
969.2466191051681, 86.050383136625
1011.681299588583, 39.02153183721448
1059.9025274106452, 78.83549396993375
1084.9775658781177, 80.876945350258
1121.6256990228849, 22.255970870891694
1136.0920673695036, 26.425663616285952
1191.0642670866546, 78.46569316536485
1223.8547020056567, 74.14883479366256
1262.4316842633066, 46.976022613043526
1289.4355718436614, 55.74181107236557
1314.5106103111339, 75.85067319019905
1356.9452907945488, 50.34196463014006
1382.0203292620208, 57.40214121532799
1422.526160632553, 59.38321695408997
1446.6367745435841, 49.715567348931515
1471.7118130110566, 71.87342780228452
1495.8224269220877, 52.82491288938841
1509.3243707122651, 54.7984416729551
1544.04365474415, 43.02896504591014
1569.1186932116225, 44.80249951680182
1716.675650347133, 43.0704732994842
1741.7506888146054, 65.77171452689764
2791.0446062226792, 93.18602927376575
2814.1907955772695, 94.07279650921159
2881.7005145281564, 83.50328575821673
2927.0284686808945, 82.31086683736191
2997.4314613011056, 93.09923928901999
##END=


$$ === CHEMSPECTRA PEAK TABLE AUTO ===
##TITLE=TMG2Meequ
##JCAMP-DX=5.00
##DATA TYPE=INFRAREDPEAKTABLE
##DATA CLASS=PEAKTABLE
##$CSCATEGORY=AUTO_PEAK
##$CSTHRESHOLD=0.93
##MAXX=4000.433
##MAXY=120.75128312453954
##MINX=249.7859
##MINY=22.255970870891694
##NPOINTS=100
##PEAKTABLE= (XY..XY)
2814.1907955772695, 94.07279650921159
433.0265657238365, 93.80487959977901
621.0893542298791, 93.6765813614592
2791.0446062226792, 93.18602927376575
2997.4314613011056, 93.09923928901999
1410.9530659552584, 92.37850506787039
539.1132669323733, 92.22756596396472
571.9037018513754, 91.8200303834194
602.7652876574953, 91.80493647302883
600.836438544613, 91.68795866750193
1699.3160083311905, 91.40117437008115
467.7458497557209, 91.37098654930001
387.6986115710979, 90.85779359602073
327.90428907174055, 89.5936786008107
425.3111692723064, 89.44651297450267
428.2044429416301, 89.10312651311726
325.97543995885826, 88.78615439491534
277.754212136796, 88.23900014325727
344.2995065312416, 87.6012824292558
348.15720475700664, 87.38619420619021
320.1888926202105, 87.23525510228454
288.36288225764974, 86.4843330603538
381.9120642324501, 86.2579244044953
372.26781866803776, 86.1598139869566
969.2466191051681, 86.050383136625
2901.9534302134225, 85.5824719145174
323.0821662895346, 85.39002455703766
273.896513911031, 85.25417936352257
922.9542403959886, 85.23908545313199
2945.3525352532783, 84.91833985733244
285.4696085883256, 84.82777639498903
894.9859282591924, 84.62023512711873
317.2956189508868, 84.55608600795881
270.03881568526594, 84.1674178154017
696.3144696322961, 83.99383784591018
2873.020693520185, 83.81648439882102
2877.8428163023914, 83.71460050368468
2884.59378819748, 83.66554529491533
2881.7005145281564, 83.50328575821673
992.3928084597583, 83.45800402704504
267.1455420159423, 83.23914232638181
292.2205804834148, 83.11084408806198
1238.3210703522755, 82.8240597906412
2921.241921342247, 82.51463462763456
2924.1351950115713, 82.3636955237289
2927.0284686808945, 82.31086683736191
821.6896619696577, 81.5712652282241
376.1255168938028, 81.54107740744297
366.48127132939044, 81.3373096171703
363.5879976600668, 81.16750312527643
1084.9775658781177, 80.876945350258
668.3461574954999, 80.86562491746508
338.5129591925943, 80.64676321680184
355.8726012085367, 80.60148148563015
360.6947239907431, 80.05432723397207
314.40234528156316, 79.50339950471637
1059.9025274106452, 78.83549396993375
563.2238808434045, 78.77511832837149
871.8397389046027, 78.67323443323515
255.57244733864718, 78.56757706050118
1191.0642670866546, 78.46569316536485
261.35899467729496, 78.28456624067805
334.65526096682925, 78.25815189749456
282.57633491900197, 78.14494756956529
307.65137338647446, 77.39025205003692
305.72252427359217, 77.39025205003692
259.4301455644122, 77.27704772210767
297.04270326562073, 76.3600926658807
1314.5106103111339, 75.85067319019905
1223.8547020056567, 74.14883479366256
452.3150568526612, 74.11487349528379
659.666336487529, 72.74132764974215
788.8992270506556, 71.88852171267509
1471.7118130110566, 71.87342780228452
731.9981782206223, 71.13759967074436
301.86482604782714, 69.87725815313198
1741.7506888146054, 65.77171452689764
1524.7551636153253, 64.86985338106123
679.919252172795, 60.93411624672077
1422.526160632553, 59.38321695408997
1382.0203292620208, 57.40214121532799
1289.4355718436614, 55.74181107236557
1506.4310970429415, 54.836176448931525
1509.3243707122651, 54.7984416729551
1582.6206370017999, 52.88528853095068
1495.8224269220877, 52.82491288938841
779.2549814862432, 51.19099708960948
1356.9452907945488, 50.34196463014006
1446.6367745435841, 49.715567348931515
1262.4316842633066, 46.976022613043526
752.2510939058884, 45.36097420125281
1569.1186932116225, 44.80249951680182
1542.1148056312677, 43.127075463448826
1716.675650347133, 43.0704732994842
1544.04365474415, 43.02896504591014
847.7291249935715, 43.01387113551957
767.6818868089481, 40.87808281525428
1011.681299588583, 39.02153183721448
1136.0920673695036, 26.425663616285952
1121.6256990228849, 22.255970870891694
##END=

##END=

