##TITLE=X7779
##JCAMP-DX=4.24
##DATA TYPE=INFRARED SPECTRUM
##DATE=30/10/2018
##SAMPLING PROCEDURE=Diamant-ATR
##ORIGIN=ComPlat
##XUNITS=1/CM
##YUNITS=TRANSMITTANCE
##RESOLUTION=4
##FIRSTX=3997.453
##LASTX=373.96442
##DELTAX=-1.4165319
##MAXY=0.97512805
##MINY=0.31775725
##XFACTOR=1
##YFACTOR=9.0815877e-010
##NPOINTS=2559
##FIRSTY=0.96947652
##XYDATA=(X++(Y..Y))
3997+1067518755+1067622979+1067714471+1067439406+1066833290+1066116059
3989+1065538560+1065388327+1065868625+1066811172+1067670038+1068024387
3980+1067926792+1067580515+1067042330+1066479860+1066256250+1066479532
3972+1066855146+1067156792+1067452992+1067775903+1067905264+1067636697
3963+1067100349+1066673541+1066581918+1066723619+1066870766+1066799424
3955+1066347479+1065674550+1065282987+1065488220+1066046817+1066461548
3946+1066500993+1066396769+1066694937+1067681458+1068772728+1069123599
3938+1068674017+1067860503+1066846482+1065755541+1065208232+1065695028
3929+1066673475+1067276703+1067328093+1067149704+1067013714+1066932527
3921+1066701369+1066111859+1065319151+1064943930+1065411496+1066407467
3912+1067391756+1068143838+1068540914+1068239071+1067001900+1065269533
3904+1064070232+1064027242+1064849617+1066132074+1067587407+1068659512
3895+1068816242+1068018349+1066875623+1066392175+1066842085+1067413546
3887+1067416631+1066772712+1065664705+1064362296+1063500542+1063973424
3878+1065651710+1067226100+1067691762+1066815438+1065129801+1063892565
3870+1064390124+1066464174+1068391141+1068977895+1068268540+1066987330
3861+1065994377+1065745236+1066135421+1066683648+1066866041+1066372026
3853+1065549652+1065520839+1066501453+1067857878+1068930443+1069166785
3844+1068331809+1066710558+1065030106+1064046276+1064165989+1065239407
3836+1066606399+1067664787+1068172782+1068137800+1067769537+1067385128
3827+1067240474+1067370229+1067505301+1067390641+1067203457+1067316607
3819+1067503397+1067365635+1067272765+1067876977+1068946063+1069603306
3810+1069287352+1068082734+1066909621+1066898660+1067648314+1067632956
3802+1066356274+1065162158+1065571310+1067403636+1069636647+1071213203
3793+1071607785+1071181700+1070556420+1070024797+1069614989+1069375758
3785+1069380812+1069531176+1069542334+1069213646+1068720091+1068501535
3776+1068682155+1068976254+1069148014+1069175514+1069063808+1068715693
3768+1068149942+1067766255+1068027800+1068789858+1069340054+1069189822
3759+1068446141+1067558791+1066876280+1066394341+1065834037+1064988560
3751+1064302899+1064549414+1065341860+1065776937+1065485201+1064518501
3742+1063415220+1062574535+1061748551+1060579703+1059220653+1058471197
3734+1058978470+1060597752+1062795060+1064875738+1066161674+1066402611
3725+1065918572+1065270780+1064841281+1064809450+1065181848+1065738345
3717+1066139031+1066086853+1065490058+1064671359+1064396162+1065173316
3708+1066560522+1067766058+1068293021+1068117388+1067672860+1067484692
3700+1067681983+1068095927+1068571433+1068988396+1069375758+1069927399
3691+1070656509+1071157153+1070936760+1070057679+1069014386+1068179608
3683+1067692484+1067503266+1067485742+1067474060+1067231876+1066885796
3674+1067074227+1067508057+1067147866+1066052396+1065931239+1067697800
3666+1069947876+1071237553+1071280411+1070564755+1069603175+1068686618
3657+1068356881+1069232942+1070658544+1070987756+1069452877+1066670850
3649+1064287016+1063596891+1064447552+1066209848+1068161559+1069525860
3640+1070049344+1070160394+1070182775+1069895698+1069084744+1067912681
3632+1066474215+1064580261+1062697989+1062475496+1064086771+1065877879
3623+1066914478+1067240539+1067280903+1067411840+1067651661+1067682114
3615+1067378433+1067171100+1067623701+1068582525+1069431612+1070054988
3606+1070588514+1070689391+1070084720+1069167704+1068498647+1068106296
3598+1067647854+1067007216+1066460498+1066432867+1066895904+1067191184
3589+1066798046+1066123804+1066309741+1067638469+1069055341+1069580860
3581+1069192250+1068785001+1069103647+1069727286+1069867936+1069687119
3572+1069798956+1070056826+1069838139+1069119201+1068582066+1068504948
3564+1068457561+1068356947+1068569464+1069308091+1070398771+1071397237
3555+1071738000+1071123812+1070102244+1069739034+1070246110+1070685256
3547+1070211522+1069113820+1068552597+1069305072+1071082923+1072889455
3538+1073741823+1073347438+1072246848+1071194498+1070516712+1070151074
3530+1069966450+1069863013+1069763187+1069733389+1070075925+1071033502
3521+1072223155+1072733644+1072185219+1071400387+1071472320+1072265291
3513+1072582230+1071805405+1070649355+1070146808+1070457971+1070975483
3504+1071157613+1070995763+1070888454+1071072094+1071311914+1071303185
3496+1071123156+1071100709+1071342565+1071602535+1071619665+1071424671
3488+1071262625+1071283758+1071401175+1071440685+1071307255+1070987887
3479+1070473264+1069828819+1069416188+1069793246+1071025954+1072302439
3471+1072685732+1072040369+1070924552+1069910072+1069267990+1068990431
3462+1068875180+1068792746+1068922173+1069555132+1070710656+1071992129
3454+1072789759+1072777355+1072266275+1071837564+1071629772+1071295113
3445+1070661235+1070059123+1069938031+1070382297+1070947983+1071045184
3437+1070621265+1070246438+1070349284+1070693066+1070816324+1070669701
3428+1070575191+1070731527+1070907881+1070643973+1069823306+1068996338
3420+1068891391+1069632447+1070664582+1071315787+1071250351+1070589630
3411+1069810901+1069460293+1069800991+1070621790+1071416533+1071819253
3403+1071839796+1071651365+1071282314+1070614898+1069624374+1068553844
3394+1067807210+1067615300+1067852365+1068247406+1068673492+1069094195
3386+1069341498+1069196516+1068803575+1068752448+1069365323+1070102178
3377+1070231539+1069895239+1069795806+1070065096+1070140310+1069591558
3369+1068608778+1067823683+1067690778+1067913665+1067888463+1067828671
3360+1068605693+1070237775+1071493782+1071359432+1070139063+1068859231
3352+1068283110+1068629584+1069551128+1070220973+1069998347+1069108044
3343+1068281207+1067866738+1067680277+1067475569+1067165587+1066799883
3335+1066589335+1066783672+1067366882+1067936702+1067972931+1067325337
3326+1066456954+1066041960+1066278893+1066695462+1066619001+1065847492
3318+1064882039+1064387039+1064488245+1064777355+1064725374+1063858633
3309+1062071987+1060091202+1059039705+1059274669+1060091595+1060556732
3301+1060299256+1059529848+1058538864+1057381633+1056173734+1055391593
3292+1055433007+1056048705+1056606318+1056757010+1056556437+1056115978
3284+1055470089+1054845728+1054753515+1055416927+1056227225+1056293579
3275+1055527977+1054669899+1054306558+1054402644+1054674428+1054854720
3267+1054654016+1054018694+1053425771+1053390133+1053668546+1053520676
3258+1052777257+1052033445+1051711715+1051502545+1050889341+1049868101
3250+1048982982+1048759832+1049182571+1049722266+1049878865+1049717934
3241+1049753704+1050186746+1050484914+1050076090+1049207577+1048570614
3233+1048332040+1048070495+1047438980+1046496827+1045600091+1045159042
3224+1045282037+1045564125+1045425903+1044739191+1043986387+1043650350
3216+1043592527+1043333936+1042842218+1042598722+1042864992+1043284777
3207+1043300266+1042698089+1041651449+1040437315+1039311982+1038556422
3199+1038343051+1038524721+1038748462+1038738617+1038376720+1037721446
3190+1036995880+1036296960+1035484563+1034627994+1034161479+1034238991
3182+1034392374+1034146515+1033564749+1032962309+1032400627+1031726057
3173+1030920157+1030155080+1029575152+1029224216+1029076936+1028956501
3165+1028633524+1028171472+1027846394+1027645231+1027252749+1026512153
3156+1025498723+1024346743+1023328916+1022745247+1022488493+1022099227
3148+1021296805+1020104330+1018648341+1017159404+1015877997+1014801888
3139+1013851662+1013195010+1012987940+1012992534+1012805744+1012257254
3131+1011427595+1010520883+1009755741+1009164393+1008573504+1007865134
3122+1007111345+1006438351+1005835845+1005024301+1003622655+1001618504
3114+999428613+997341831+995299481+993378487+992013136+991438196+991207563
3104+990593900+989367493+987867596+986335407+984682258+983022612+981818257
3094+981210435+980725806+979913408+978904375+978142383+977777664+977482646
3084+976808339+975562242+973853371+972009429+970442586+969359323+968708775
3074+968531370+968933500+969595534+969943255+969934394+970045510+970515307
3064+971149644+971714214+972090944+972273861+972398694+972489792+972223521
3054+971358814+970268398+969597175+969463088+969394437+969064502+968656794
3044+968294766+967587380+966196498+964500359+963126673+962081608+960898453
3034+959429665+957936528+956553785+955127002+953519992+951802458+950143664
3024+948561727+946765893+944392231+941425318+938244969+935419428+933679316
3014+933713970+935549840+938371049+941213719+943529296+945029194+945573418
3004+945401592+944987451+944521330+943812238+942683754+941231309+939720779
2995+938330619+936997559+935562441+934098313+932997264+932676650+933191536
2985+934094769+934730616+934742167+934228331+933423875+932534359+931906454
2975+931892343+932357283+932697258+932494914+931882038+931206615+930620387
2965+930078854+929576503+929200101+928955489+928722101+928422357+928051994
2955+927548199+926864638+926115510+925409567+924706841+924049073+923649897
2945+923513382+923275136+922669480+921881497+921268688+921044816+921380328
2935+922396318+923762260+924676060+924638584+924035422+923687439+924011466
2925+924768798+925494496+926035372+926606046+927363116+928146767+928717638
2915+929020465+929165579+929324606+929539027+929507327+928835448+927604709
2905+926333278+925329758+924450022+923469605+922350178+921164004+920011302
2895+919006010+918210743+917630487+917287098+917143757+916926316+916258638
2885+915070757+913658938+912308552+911083523+909924126+908674617+907099570
2876+905146350+903136554+901534270+900565864+900075459+899688687+899146367
2866+898544255+898252453+898610609+899674642+901200858+902863720+904480312
2856+906043807+907647732+909343411+910932962+912042150+912592281+912955884
2846+913438939+913899153+914043610+913834439+913502143+913306821+913264422
2836+913079732+912504071+911728689+911180002+910941297+910640963+909973088
2826+909099127+908374414+907854015+907308216+906584356+905703831+904747502
2816+903904585+903459663+903501602+903781918+904006577+904162454+904490616
2806+905189339+906150460+906998824+907463239+907694200+908142863+909125774
2796+910558857+912123009+913608008+914995214+916294998+917531710+918864376
2786+920480377+922350966+924260606+926031106+927556338+928719081+929524063
2776+930259737+931273888+932557724+933770414+934709548+935523652+936441128
2766+937531151+938736687+939886763+940693648+940965826+940810802+940474108
2757+940078213+939616030+939072528+938463328+937840542+937270393+936768633
2747+936341498+936094260+936099577+936145388+935890341+935325508+934827293
2737+934704100+934897782+935143378+935237233+935097370+934701081+934113081
2727+933554155+933281584+933349185+933621035+934031303+934654220+935509804
2717+936480901+937411634+938171198+938681949+938999151+939342146+939957515
2707+940873744+941783343+942267776+942191905+941777239+941299632+940871578
2697+940511124+940226477+939958171+939574550+939018709+938372689+937684271
2687+936837613+935726653+934457520+933235904+932115427+930983793+929720632
2677+928244165+926460867+924341663+922096903+920117692+918621470+917454920
2667+916303596+914987273+913520126+912017275+910568177+909167779+907821395
2657+906644081+905771105+905262585+905116946+905166433+905031427+904519823
2647+903976649+903916858+904438110+905252149+906078461+906804290+907457792
2638+908151329+908907349+909605547+910296590+911374996+913102179+915148597
2628+916981185+918506942+919934250+921246241+922255471+922980053+923555518
2618+923947868+924096460+924177975+924413399+924705069+924719377+924290010
2608+923526114+922566043+921494726+920478867+919672179+918936243+917950576
2598+916694568+915572911+914942905+914721527+914601157+914448102+914296360
2588+914118825+913844612+913538831+913431653+913757715+914515901+915390584
2578+916102105+916798465+917782294+918975557+920111588+921249129+922551670
2568+923867600+925128464+926727991+928785567+930464903+930795888+929893836
2558+928696635+927866516+927556469+927800425+928438437+928951945+928888216
2548+928255520+927309297+926313916+925622479+925505259+925767723+925906011
2538+925669669+925213064+924785403+924490517+924281281+924110308+924075983
2529+924270648+924532456+924657486+924728237+924824258+924707957+924354723
2519+924429151+925566823+927414178+928966384+929756664+930301873+931380344
2509+933141590+935010013+936357709+937097649+937543358+937886944+938103072
2499+938279360+938664622+939352384+940222736+941170271+942097263+942833658
2489+943425597+944297064+945794664+947826119+950111636+952346879+954016108
2479+954682999+954687462+954956161+955913672+957117830+958159219+959329576
2469+961038906+963010044+964536851+965399786+966140776+967367708+969013572
2459+970473630+971412042+972107418+972889100+973689815+974433758+975378012
2449+976673070+978013612+979088999+979993348+980922769+981838734+982633805
2439+983325571+983940284+984460618+985006745+985830038+986992453+988246098
2429+989347213+990274927+991088309+991839997+992624698+993440903+994132800
2419+994689888+995309654+995993216+996482506+996710513+996933335+997439163
2410+998345678+999494442+1000490348+1001157961+1001757776+1002387519+1002625108
2400+1002230132+1001664578+1001488814+1001741565+1002209655+1002819446
2391+1003533789+1004194707+1004542821+1004232117+1003029141+1001173385
2383+999216161+997351479+995254064+992669000+989773824+986900437+984248363
2373+981803424+979297251+976506955+973618341+970880814+968298375+966228395
2363+965443760+965977351+966951139+968016090+969826757+972813097+976550338
2353+980387011+983825493+986340789+987411582+986811177+984970975+983081615
2343+982207260+982289957+982684146+983238214+984389932+986341118+988498783
2333+990064641+990947725+991565129+991970934+991949341+991754741+991955182
2323+992725969+993954870+995867727+998680666+1001736905+1003933359+1004937403
2313+1005339730+1005785111+1006538112+1007756249+1009583784+1011846198
2305+1013979645+1015496017+1016461272+1017384130+1018708460+1020515058
2296+1022464340+1023861523+1024187519+1023806064+1023675849+1024236415
2288+1025155663+1026125775+1027124175+1027928829+1028276681+1028503047
2279+1029199275+1030271512+1031079906+1031391463+1031511242+1031613957
2271+1031557776+1031279560+1030932693+1030740127+1030962227+1031739577
2262+1032719929+1033200227+1032917745+1032328628+1031914160+1031724285
2254+1031755723+1032047197+1032301128+1032342608+1032882435+1034624778
2245+1036726262+1037536232+1036891787+1036302802+1036747330+1037494424
2237+1037404048+1036513679+1035869234+1036278255+1037633105+1039112000
2228+1039748241+1039218259+1038318242+1038282209+1039535329+1041441950
2220+1043086698+1043868971+1043635779+1042861251+1042576472+1043505696
2211+1045137055+1046253725+1046556290+1046870144+1047411677+1047081612
2203+1045178403+1042663894+1041063776+1040888866+1041340155+1041169773
2194+1040051659+1038928229+1038472740+1038064966+1037062431+1035849413
2186+1034878316+1034105888+1033970620+1035405738+1038526821+1042347678
2177+1045514310+1046587203+1044683010+1040901336+1038045276+1037967305
2169+1039973819+1042371568+1044552729+1046696415+1048682255+1050207027
2160+1050722438+1049084516+1045168361+1041047762+1038862334+1039168509
2152+1041222607+1043449252+1044491691+1044544722+1044656035+1044864877
2143+1044465701+1043256949+1041258442+1038656511+1036992926+1038497221
2135+1043290881+1048888275+1052932872+1054858527+1054982309+1053701427
2126+1051651071+1049656240+1048446241+1048507410+1049677505+1050959174
2118+1051541596+1051835958+1052589089+1053360598+1053010253+1051472288
2109+1050033757+1049877355+1050886060+1051857419+1051833463+1051144455
2101+1050768118+1050875559+1050819115+1050427289+1050298650+1050718697
2092+1051192301+1051222688+1050894723+1050546084+1050327069+1050169485
2084+1049770243+1048691575+1047084434+1046076583+1046579393+1047986945
2075+1049000047+1049285942+1049263430+1049002410+1048523490+1048398460
2067+1049052881+1050103262+1050851537+1050852062+1049980726+1048580131
2058+1047456963+1047382274+1048491724+1049718787+1048974778+1045267466
2050+1040855919+1039676110+1042994025+1048279337+1052687997+1055559087
2041+1057352952+1057930845+1056670112+1053909679+1051377450+1050461746
2033+1050928852+1052282520+1054735597+1057660177+1059298559+1059254388
2024+1059270731+1060629322+1062390567+1062906175+1061898390+1060443976
2016+1059858666+1060972907+1063338562+1064865171+1063897159+1061740478
2007+1060899793+1061187525+1060359572+1057961627+1055853711+1055615793
1999+1057021508+1058485964+1058514842+1057045333+1055317494+1054454231
1990+1054629207+1055509338+1056547905+1056788513+1055442196+1052944095
1982+1050950576+1051374496+1055499296+1062855442+1070230817+1073640880
1973+1072190995+1068365151+1064701681+1061995854+1060349006+1059844292
1965+1059945235+1059792377+1059296656+1059115182+1059567258+1059968535
1956+1059052962+1056052446+1051740462+1048422154+1048317536+1051531292
1948+1055709188+1058044324+1057609115+1055594528+1053815497+1053294047
1939+1053951027+1055080233+1055797792+1055564075+1054528724+1053199536
1931+1052080110+1051637420+1051922724+1052251148+1051966829+1051276704
1922+1050676627+1050099652+1049511258+1049604390+1050781704+1051970504
1914+1051727730+1050027194+1048266211+1047594070+1047727763+1047951701
1905+1048299552+1048895429+1049201604+1048719797+1047729141+1046804577
1897+1046152126+1045665396+1045246070+1044916070+1044674543+1044319866
1888+1043750505+1043510749+1044307527+1045852645+1046838969+1046458038
1880+1045304877+1044366662+1043899490+1043620552+1043325994+1042990875
1871+1042638954+1042278764+1041929271+1041762105+1042012033+1042631538
1863+1043243429+1043399437+1042900106+1042004026+1041300578+1041226282
1854+1041726598+1042410947+1042864861+1042840052+1042383578+1041783305
1846+1041305829+1041061545+1041009630+1041015340+1041043233+1041123764
1837+1041031748+1040272972+1038657299+1036544526+1034492791+1033122255
1829+1032939207+1033797350+1035003740+1035873369+1036087724+1035800583
1820+1035398978+1035323041+1035848625+1036683142+1037145587+1036943505
1812+1036370272+1035799204+1035398387+1035299479+1035547832+1035933685
1803+1036222140+1036472330+1036926113+1037618338+1038317060+1038835228
1795+1039154989+1039316970+1039438784+1039787882+1040470197+1041217422
1786+1041607738+1041412678+1040905077+1040647536+1040845221+1041169904
1778+1041316921+1041350524+1041343764+1041164719+1040798490+1040521915
1769+1040433246+1040258204+1039640210+1038425879+1036734335+1034827123
1761+1032978783+1031355497+1030005635+1028931758+1028066066+1027214748
1752+1026066312+1024493760+1023091983+1022587860+1022681780+1022609257
1744+1022112419+1021460886+1020970284+1020662468+1020301687+1019659933
1735+1018557571+1016947018+1015338302+1014251429+1013568524+1012939437
1727+1011968078+1010277584+1007803242+1004806204+1001139322+995776629+987373843
1717+975622361+961892718+947156406+931038137+912961922+892835483+870451354
1707+845097818+818243466+794429929+775271370+757963843+741928533+731889401
1697+730154605+734577310+741486696+747722956+751911682+752918155+749608378
1687+740994387+723253226+691794170+654953848+624442327+598421769+573151193
1677+547389522+520849385+496374109+478498763+467996265+464057500+467030123
1667+475226626+486342065+501941838+525388653+555226983+585047001+611166729
1657+633154307+652209297+674142335+705478855+733006792+746012182+753658357
1647+766190274+787394398+810325638+829068350+844151333+856712260+867229459
1638+877223634+889145432+901742588+910535689+915346019+918281626+920433121
1628+921918514+922599778+922352935+921124296+919000366+915974515+912010843
1618+907956992+906276802+908698376+914262035+921989660+931636179+942560103
1608+953381574+962758213+970405569+977045009+983323930+989157076+994128074
1598+998132701+1001559500+1004879712+1008000993+1010420597+1012032135
1589+1013261496+1014541459+1015984584+1017401719+1018517798+1019203985
1581+1019396091+1018930167+1017723252+1016074041+1014448261+1012570452
1572+1009477262+1004221091+996887392+989496986+983855028+980277602+978713779
1562+978732221+980353014+986432347+998739801+1009372973+1015264531+1019301580
1553+1022818952+1025956116+1028733482+1030883534+1031987668+1032059535
1544+1031519906+1030730873+1030075993+1030573946+1032138951+1033100400
1536+1032799803+1031770950+1031084763+1031002788+1030666422+1029398141
1527+1027086502+1023986290+1020192803+1015238738+1008908886+1001940496
1519+994426374+985520581+975191944+963667287+949918873+932845588+911653015
1509+881342723+832449141+777076393+740906571+721702923+712230264+713169791
1499+728434904+758804659+796008979+828333267+853036254+874517741+896605080
1489+917896757+934176941+944617482+950613396+953204497+953220774+951426647
1479+948031285+942676534+934956260+924511716+911323344+897404351+885553698
1469+875456612+864576728+850137796+830648450+807779035+783912074+757813413
1459+723572922+675541486+626610362+598099645+588713030+589730266+595029689
1449+598880014+597004568+590386853+585015234+587352404+600865985+624686676
1439+656793787+697497167+742024488+774194671+783776477+771915979+741954589
1429+703590348+674033254+665320880+678678453+706435185+736744361+762823266
1419+783938392+798028160+801748467+795196778+779145651+754313696+726173081
1409+706844206+708205488+733585276+774794945+815433808+843859991+860426135
1400+869879302+874697048+875427997+873048887+869296289+864976561+858358386
1390+845008295+819147224+779290962+733748373+694780838+671487307+669211372
1380+686781298+714559951+740346727+756764542+763674978+766411980+769858338
1370+773857648+774944259+771355676+766257153+766154045+776425057+796075596
1360+818744110+840358305+861159315+882494835+904330473+924966746+942552883
1350+956382025+966787058+974483114+980128420+984109484+986562102+987657244
1340+987809708+987398718+986286380+984012283+980287906+974919832+967549378
1330+957765753+945336813+930163388+912209119+891753861+869564069+846594565
1320+823806075+802495627+784111924+769084072+756280371+743863639+730505279
1310+716268232+703081959+694492647+694127993+703504041+721114988+743490716
1300+767018752+789191150+808819178+825680996+840179194+853026344+864754855
1290+875220795+883629881+889277681+892356103+894004461+895631817+898160437
1281+901619461+905287591+908306025+910214156+910972341+910676536+909351943
1271+906889743+902977921+897047377+888384687+876264285+859742967+837357723
1261+807624930+770385104+727515329+682106958+637235986+595520817+559393918
1251+531402649+513914731+508336403+514645974+531551668+556809971+587441993
1241+620020606+651094465+677566312+696903325+707248895+707490554+697236212
1231+676832738+647585888+611865058+572683890+532955315+494885960+459755001
1221+428228048+400998837+379040367+363176621+353600262+349891736+351381559
1211+357498958+367915937+382402157+400520442+421511064+444510299+468778702
1201+493642193+518395619+542460823+565540131+587512219+608305747+627945128
1191+646580203+664390409+681469602+697777614+713204774+727698181+741242937
1181+753755427+765199290+775781137+785798152+795336575+804311216+812670618
1171+820348691+827128059+832725453+836990247+839997393+841998787+843350683
1162+844550903+846281105+849184092+853497913+859010510+865347581+872135613
1152+878919444+885188585+890665085+895491757+899921288+903780080+906412858
1142+907247374+906320776+904292800+902147736+900868758+901112516+902973261
1132+906002459+909463321+912627656+914962595+916226806+916528912+916233960
1122+915643072+914728090+913207059+910837204+907606187+903663845+899056319
1112+893580017+887115684+880233864+874374596+871292761+872189431+877115471
1102+885009409+894310308+903648356+912138104+919342114+925222187+930054241
1092+934177007+937772219+940900390+943616522+945952051+947914132+949630616
1082+951354254+953186973+954978607+956684196+958561349+960723674+962744299
1072+964074733+964713140+965125377+965577650+965853700+965647876+964919882
1062+963609662+961258381+957380884+952182732+946619401+941935807+939353697
1052+939740009+943104589+948533505+954730648+960610130+965643742+969898690
1043+973625627+976814114+979257543+980788813+981194749+980169834+977531345
1033+973215293+966996754+958465263+947248094+933064406+915782081+895719633
1023+873621924+849925278+824240233+795835119+764282537+729303352+690562119
1013+648482230+605447455+565926115+535263672+518004220+516280746+528460152
1003+549045460+571052728+589960045+606010385+622512931+641232146+658795509
993+668021850+663770249+647435196+625650029+606324042+596619306+601427668
983+620516656+648282117+678248101+706939635+733036458+755128063+771754852
973+782501042+787998019+789154265+786701582+781224361+773222130+762988397
963+750545281+735814612+718798164+699636324+678627850+656222325+633063143
953+610117332+588515082+568941858+551289957+535143828+520662136+508997781
943+501629559+498669800+497891498+496765869+496244518+501169968+515425457
933+537450938+561866751+584628331+605125857+624204672+642209282+659030736
924+674706577+689480890+703601309+717171334+730128943+742367352+753884657
914+764789875+775144437+784847860+793838975+802358192+810759665+819143286
904+827373656+835170720+841861222+846151021+846065305+838723730+820691883
894+790200905+750170651+708507922+674186768+652711779+645254756+650642521
884+666497406+688902800+712799953+733575825+748230360+755662836+756742358
874+753765797+748881433+742956205+736386664+730821693+729386968+734783265
864+747190283+764126200+782246454+799185653+813992652+826560864+837192132
854+846424643+854673914+861969415+868235079+873685062+878754509+883741194
844+888571345+892896193+896511094+899681993+902983696+906865984+911287311
834+915609796+919095139+921748132+924332343+927341063+930350112+932600385
824+933944274+935046964+936740412+939281370+942273355+945192946+947786805
815+950031171+951968967+953691293+955390647+957244697+959094481+960313799
805+960126353+958060048+954060081+947899233+937958877+920337561+889393194
795+840668090+777025856+714423436+677537762+682542823+722890476+774909670
785+816896033+841581562+853697370+860232716+863527004+860952835+848567147
775+823977769+786496284+736192655+673892472+603104969+532826347+477108275
765+449006907+453464890+485401487+533674449+587067822+638161403+683562094
755+722264868+754435313+780942142+802970215+821552652+837245229+850238936
745+860939052+870233060+878887743+886960726+894145637+900467481+906394416
735+912391314+918498738+924341334+929523341+933966261+937933084+941851207
725+945956711+949931475+953080452+955027569+956074931+956796953+957428730
715+957691982+957125312+955547312+953043107+949587233+945306097+941261106
705+939120768+939576322+941694280+944189361+946704592+949569972+952922278
696+956353475+959199427+961095744+962190296+962709710+962592688+961877492
686+961154551+961079598+961420821+960966186+958597381+954336328+949273313
676+944759313+941663104+939761996+938054569+936912500+940095474+949957334
666+960662439+967300894+970603582+972714780+974844617+976682718+976915779
656+974497553+969553792+962955044+955426614+947707915+941284143+938027004
646+938871496+943242680+949661857+956539871+962496865+966584320+968840040
636+970325760+971966505+973561241+974423388+974520787+974389982+974460799
626+975018412+976266018+977867908+978964823+979176225+979226696+980167274
616+982177988+984429574+985829053+985415701+982379808+976500851+968665720
606+960463901+953101192+946862307+941677478+938046562+937075793+939384019
596+944080412+948881094+951201396+949467585+943631355+934193677+921052626
586+904044119+883973139+862146098+840220543+821981757+812924091+815558379
577+826342571+838298038+845908706+847025245+841445572+830080927+815653152
567+802565460+795135477+795715865+804049211+818102488+835363023+853294780
557+869554356+883025932+894336889+904389674+912619518+917639609+919642448
547+920938622+923659414+928196385+934136183+941026404+947794681+953229044
537+957553563+962005869+966884194+971465336+975448567+979111708+982275059
527+984109944+984088679+982476550+979308605+973593335+964447657+952855136
517+941535843+932647181+926443737+922442523+920798300+921969445+925514710
507+930066646+934586225+938547009+940689316+939773547+937368579+936970847
497+939822969+943642053+945308656+943958795+941273117+939438166+939107838
487+938990881+936947482+931730756+924355839+917401101+912302645+907677267
477+901004748+891962703+882815843+875580264+870248878+865918452+862296527
467+859264179+855854575+850233619+840966783+828730474+816600359+808436935
458+806873111+811591753+820265338+830985538+841661830+849818757+855066002
448+859123857+862833860+865328219+866116465+866227646+867152735+869890065
438+874950783+881992747+889436708+895338637+898531128+898986027+897601642
428+894753918+888863278+878078496+863822415+849537588+835858810+821995080
418+811381861+806583082+803117428+796292380+786156964+776382921+769618123
408+765339547+762117389+759770178+758975566+759443066+758865304+754361936
398+747618928+746606746+754338768+765716408+777029138+788096599+798106328
388+804926782+809034780+814087622+820876310+825092601+824560454+821100707
378+815427048+805428083+791440307+782105279
##END=
