##TITLE=X7823
##JCAMP-DX=4.24
##DATA TYPE=INFRARED SPECTRUM
##DATE=30/10/2018
##SAMPLING PROCEDURE=Diamant-ATR
##ORIGIN=ComPlat
##XUNITS=1/CM
##YUNITS=TRANSMITTANCE
##RESOLUTION=4
##FIRSTX=3997.453
##LASTX=373.96442
##DELTAX=-1.4165319
##MAXY=1.0205418
##MINY=0.27911124
##XFACTOR=1
##YFACTOR=9.5045361e-010
##NPOINTS=2559
##FIRSTY=1.0071319
##XYDATA=(X++(Y..Y))
3997+1059632925+1060222792+1060428487+1060130480+1059728121+1059512644
3989+1059317736+1058951875+1058641702+1058712692+1059084573+1059435508
3980+1059663779+1059846145+1059900203+1059594169+1058880007+1058141890
3972+1057967676+1058500852+1059153305+1059243485+1058794468+1058371916
3963+1058335418+1058607964+1059034404+1059575857+1060040677+1059926040
3955+1058938204+1057652236+1057135867+1057789951+1058955638+1059732762
3946+1059800867+1059422841+1059231946+1059822816+1060884276+1061386347
3938+1060908483+1059838871+1058544750+1057314219+1056789322+1057287630
3929+1057988747+1058001290+1057461090+1057003420+1056920766+1057014206
3921+1056915498+1056364637+1055448042+1054728612+1054794460+1055702526
3912+1057213630+1059102007+1060814917+1061352357+1060105270+1057704036
3904+1055661387+1054890910+1055172361+1056168475+1057497589+1058487055
3895+1058843885+1058859312+1058976960+1059377312+1059747437+1059655752
3887+1059046570+1058212503+1057364640+1056478773+1055884265+1056272326
3878+1057400009+1058030890+1057438138+1055812272+1053835346+1052335405
3870+1052294015+1053965284+1055930421+1056655996+1056037157+1055243100
3861+1055245859+1055800106+1056216387+1056124702+1055538472+1054837605
3853+1054778907+1055680076+1057003671+1058327516+1059361383+1059719091
3844+1059183156+1057977710+1056557413+1055275710+1054615104+1055195439
3836+1056794088+1058328896+1058958522+1058489940+1057344070+1056276465
3827+1055836604+1055953875+1056014957+1055569828+1054888026+1054604568
3819+1054705660+1054969676+1055956007+1057961154+1059807515+1060258789
3810+1059211251+1057361253+1055934058+1056008058+1057038413+1057416565
3802+1056516149+1055424462+1055526055+1056889786+1058985238+1061097872
3793+1062386600+1062560186+1062007068+1061332038+1060900581+1060619758
3785+1060104894+1059162085+1058043307+1057171236+1056864701+1057122070
3776+1057539104+1057728619+1057676443+1057651985+1057858683+1058081812
3768+1057937700+1057611975+1057663399+1058054093+1058062120+1057294402
3759+1056282109+1055941458+1056449298+1057022484+1056563810+1054309572
3751+1050924327+1048574266+1047856905+1047788675+1048358600+1049954615
3742+1051620930+1052215876+1051468477+1049325051+1046238879+1043765400
3734+1043465575+1045253676+1048010361+1050595278+1052191544+1052632534
3725+1052330764+1051770435+1051361679+1051586062+1052586629+1053947223
3717+1055220398+1056112787+1056190173+1055080049+1053408655+1052795835
3708+1053599424+1054517399+1054543236+1053817285+1053170099+1053149906
3700+1053527180+1054033264+1054798850+1055896557+1057152799+1058254394
3691+1058773648+1058464981+1057784432+1057316226+1056894050+1056255143
3683+1055454188+1054568321+1053657997+1052801103+1051910846+1051106317
3674+1051114218+1051931980+1052630778+1053072896+1054262915+1056404648
3666+1058241350+1058832472+1058228557+1057056223+1055817038+1054643199
3657+1053889529+1054346572+1055878119+1056840495+1055724099+1052464717
3649+1049211794+1048581791+1050071321+1051921131+1053419190+1054626894
3640+1055917252+1057348209+1058186666+1057584256+1055700269+1053584875
3632+1051794704+1049914605+1048030115+1047708279+1049323985+1051344245
3623+1052799849+1053472370+1053222275+1052211361+1051356286+1051225657
3615+1051247481+1050956122+1050868388+1051697689+1053419316+1055377303
3606+1056707796+1056949488+1056380441+1055512886+1054530443+1053446156
3598+1052551635+1052131717+1051989989+1051754819+1051342301+1050799593
3589+1050196933+1049954050+1050717817+1052423954+1054256643+1055513639
3581+1056036529+1056291390+1056802366+1057374799+1057486802+1057230562
3572+1057035528+1056822434+1056227173+1055386710+1054910226+1054934558
3564+1055007931+1054983849+1055098236+1055597923+1056529569+1057555660
3555+1057968930+1057249250+1055811519+1054774392+1054581365+1054567945
3547+1054081427+1053375417+1053319604+1054499840+1056696759+1058830967
3538+1059541366+1058421459+1056557539+1055345445+1055155178+1055533079
3530+1055981218+1056128465+1055618367+1054355477+1052969296+1052608452
3521+1053671292+1055041419+1055305812+1054427972+1053560041+1053370400
3513+1053341177+1052861557+1052293639+1052489300+1053550132+1054665775
3504+1055076663+1054744917+1054139372+1053584248+1053097479+1052764103
3496+1052825560+1053347448+1054076535+1054670541+1054939199+1054994009
3488+1055255391+1056003292+1056834725+1056946603+1056081556+1054932049
3479+1054404142+1054767494+1055730998+1056887278+1057831466+1058237337
3471+1058122198+1057763737+1057242853+1056463220+1055643828+1055217137
3462+1055183398+1055176500+1055198951+1055730120+1056975827+1058353855
3454+1058974075+1058619001+1057972191+1057718836+1057760351+1057526812
3445+1056794966+1055973441+1055741784+1056368024+1057190928+1057194691
3437+1056234573+1055133730+1054566189+1054476386+1054535836+1054608582
3428+1054772636+1055125453+1055520913+1055580489+1055159442+1054646962
3420+1054614351+1055309323+1056486047+1057551270+1057992134+1057800737
3411+1057327138+1056835979+1056480027+1056424966+1056676817+1056981094
3403+1057038162+1056681708+1055959519+1055130595+1054409535+1053799600
3394+1053415051+1053578604+1054249620+1054892416+1055238835+1055531950
3386+1055807255+1055674181+1055118680+1054809887+1055164083+1055649472
3377+1055509123+1054872849+1054581741+1055028124+1055647089+1055663645
3369+1055047941+1054519782+1054583999+1054881880+1054927660+1055118429
3360+1056094977+1057329396+1057537222+1056513641+1055403140+1055042422
3352+1055156307+1055268937+1055411042+1055762604+1056226170+1056480153
3343+1056269943+1055728113+1055300795+1055120059+1054741029+1053867830
3335+1052978201+1052836472+1053655614+1054939073+1055943967+1056300295
3326+1056282610+1056406654+1056809515+1057186914+1057183528+1056694376
3318+1055950113+1055442649+1055632916+1056565064+1057699897+1058225547
3309+1057724605+1056570081+1055599052+1055433367+1056060360+1056842125
3301+1057030386+1056454315+1055523171+1054545996+1053513509+1052599923
3292+1052312954+1052922764+1054099989+1055287625+1056139502+1056469115
3284+1056185282+1055604947+1055419822+1055899065+1056444031+1056400132
3275+1055947228+1055688354+1055734509+1055784428+1055791953+1055917001
3267+1056011194+1055789320+1055461086+1055575723+1056181644+1056690362
3258+1056639566+1056124451+1055397998+1054463843+1053282604+1052209229
3250+1051960138+1052951611+1054691738+1056034146+1056232817+1055706164
3241+1055456320+1055760848+1055951994+1055629028+1055329140+1055556910
3233+1055964160+1056004923+1055659255+1055115419+1054444152+1053906963
3224+1053946847+1054610087+1055477517+1056287502+1057137874+1057922524
3216+1058167351+1057720466+1057075413+1056715071+1056616488+1056568576
3207+1056518783+1056497085+1056471749+1056274082+1055713438+1054977327
3199+1054685717+1055202839+1056117428+1056660386+1056429732+1055654238
3190+1054908971+1054505358+1054227169+1053854535+1053639559+1053912230
3182+1054555277+1055180263+1055543866+1055612974+1055439011+1055125829
3173+1054811768+1054538219+1054180010+1053720207+1053497831+1053858549
3165+1054662138+1055471622+1056046940+1056365892+1056393359+1056042926
3156+1055265174+1054273576+1053626014+1053677688+1054057471+1054155928
3148+1053832586+1053249743+1052556778+1052048185+1051962207+1052001967
3139+1051740647+1051375601+1051392910+1051736445+1051936872+1051866321
3131+1051887392+1052312453+1052980459+1053391221+1053215126+1052608954
3122+1051997451+1051666709+1051636294+1051782663+1051967538+1052087066
3114+1052036897+1051681635+1051007985+1050346124+1050220513+1050745536
3105+1051342489+1051413416+1051139052+1051099356+1051235566+1050950792
3097+1050234560+1049882308+1050353650+1051015636+1050889209+1049855781
3088+1048785981+1048474805+1048745594+1048830130+1048344239+1047514311
3080+1046654344+1045817832+1044904435+1043946575+1043293306+1043349308
3071+1044005461+1044624176+1044724953+1044379913+1043939927+1043692153
3063+1043694724+1043731912+1043594197+1043368435+1043117086+1042519693
3054+1041378464+1040174774+1039554116+1039524578+1039541134+1039150503
3046+1038317063+1037246259+1036042506+1034690001+1033442727+1032841070
3037+1032985746+1033204673+1032850853+1031977528+1030884336+1029485926
3029+1027564124+1025328009+1023335405+1021946778+1021100357+1020653661
3020+1020625566+1020889896+1021003342+1020759581+1020609135+1021093835
3012+1022129708+1023241275+1024232811+1025277025+1026538535+1027964162
3003+1029336045+1030445730+1031264182+1031940842+1032653185+1033543881
2995+1034689186+1035976784+1037116634+1037910314+1038414768+1038809225
2986+1039203996+1039545336+1039645173+1039317379+1038482559+1037208507
2978+1035832924+1034936835+1034833925+1035112240+1034989387+1034065204
2969+1032550024+1030968370+1029802182+1029207988+1028953064+1028730437
2961+1028545877+1028703158+1029382201+1030329525+1031103640+1031565324
2952+1031948493+1032522682+1033418708+1034676456+1036210449+1037789406
2944+1039186813+1040308350+1041158534+1041838267+1042645305+1043991790
2935+1045938301+1047854711+1048927208+1049070441+1048983836+1049344868
2927+1050308686+1051609203+1052802733+1053609082+1054194433+1054878619
2918+1055563557+1055768875+1055221151+1054225037+1053416682+1053140123
2910+1053119930+1052919001+1052587757+1052516391+1052752689+1052910723
2901+1052728232+1052339544+1051968855+1051669531+1051437435+1051285484
2893+1051136293+1050886010+1050608322+1050478446+1050558592+1050807370
2884+1051175049+1051613906+1052124380+1052701015+1053132848+1053127455
2876+1052723340+1052253754+1051912540+1051707409+1051709792+1051950668
2867+1052152663+1051925270+1051277520+1050735753+1050838098+1051587692
2859+1052496198+1053102747+1053373661+1053665397+1054284613+1055032765
2850+1055345696+1054962527+1054169599+1053354973+1052670662+1052130338
2842+1051693299+1051261654+1050782849+1050300658+1049878545+1049605185
2833+1049637419+1050055204+1050663885+1051078786+1051118107+1051053576
2825+1051303294+1051905516+1052501968+1052787306+1052736761+1052485663
2816+1052232056+1052208476+1052557530+1053216004+1053958261+1054570077
2808+1055006676+1055350713+1055619747+1055705787+1055492567+1054927660
2799+1054072145+1053201079+1052707913+1052751310+1053089577+1053352590
2791+1053379055+1053257895+1053158058+1053210736+1053476383+1053904078
2782+1054293518+1054395989+1054146271+1053767241+1053520282+1053349078
2774+1052945591+1052241839+1051617292+1051487103+1051904889+1052685086
2765+1053617234+1054427721+1054842999+1054859053+1054751063+1054726480
2757+1054719582+1054534080+1054085691+1053515766+1053094469+1052960265
2748+1052999398+1053062987+1053198946+1053503099+1053830705+1053884261
2740+1053600804+1053284987+1053314211+1053777902+1054396742+1054765863
2731+1054666528+1054167091+1053522288+1053019967+1052801855+1052790567
2723+1052904452+1053258899+1053936312+1054681704+1055105008+1055085317
2714+1054794334+1054453057+1054189793+1054031508+1053983095+1054132725
2706+1054563680+1055143388+1055563181+1055614981+1055324500+1054857172
2697+1054416558+1054170352+1054137993+1054191674+1054254386+1054418942
2689+1054725978+1054934307+1054763355+1054330518+1054055840+1054116922
2680+1054294396+1054356731+1054280098+1054082179+1053792075+1053598044
2672+1053674803+1053884888+1053958512+1053862813+1053704905+1053477638
2663+1053186529+1052981838+1052935557+1052933425+1052908340+1052943333
2655+1053092211+1053301167+1053477136+1053530190+1053410160+1053151160
2646+1052853154+1052666774+1052757957+1053108767+1053404892+1053296902
2638+1052738266+1051970548+1051348133+1051239266+1051797024+1052671791
2629+1053244726+1053294645+1053151662+1053092336+1052961520+1052589388
2621+1052222775+1052208100+1052467100+1052651222+1052702144+1052867954
2612+1053229675+1053632912+1054075156+1054739399+1055629279+1056489559
2604+1057017342+1056945976+1056126333+1054757209+1053412794+1052689978
2595+1052789062+1053414550+1054148403+1054868585+1055590899+1056074784
2587+1056020726+1055555530+1055124073+1055024487+1055249998+1055582872
2578+1055761225+1055712686+1055556283+1055358364+1055141130+1055033015
2570+1055078544+1055144391+1055342561+1056112034+1057473382+1058643709
2561+1058840875+1058155310+1057202592+1056292017+1055421578+1054761097
2553+1054555904+1054696253+1054794083+1054595538+1054113535+1053580234
2544+1053410285+1053916871+1054908721+1055723848+1055747177+1054920009
2536+1053807752+1053126201+1053126201+1053538844+1054065874+1054615857
2527+1055044931+1055086195+1054706538+1054219643+1053880122+1053661885
2519+1053585753+1053893040+1054608958+1055256269+1055337293+1054955754
2510+1054755829+1055300293+1056496959+1057614107+1057978337+1057550016
2502+1056615108+1055359493+1054202962+1053955125+1054933304+1056355482
2493+1057128592+1056850278+1055820675+1054676687+1054209108+1054896429
2485+1056380943+1057791331+1058580120+1058729499+1058387594+1057800737
2476+1057355985+1057169606+1056865830+1056255644+1055941584+1056654617
2468+1058147157+1059304942+1059370288+1058648977+1057928920+1057557039
2459+1057322623+1057021606+1056745298+1056609966+1056590776+1056711810
2451+1057038538+1057377935+1057345324+1056866959+1056286875+1055882509
2442+1055568825+1055113788+1054412294+1053585126+1052994882+1053045804
2434+1053773386+1054757460+1055538347+1055969804+1056153424+1056276088
2425+1056512386+1056842250+1056957138+1056610217+1056013702+1055592279
2417+1055437130+1055319107+1055140253+1055062239+1055302927+1055960523
2408+1056832844+1057408789+1057363636+1056956386+1056601186+1056309075
2400+1055898940+1055425466+1055084063+1054955378+1055017965+1055217012
2391+1055492944+1055820926+1056035777+1055566818+1053760217+1050648458
2383+1047030364+1043617526+1040422486+1037091361+1033475274+1029693753
2374+1025852468+1021845310+1017480005+1012919165+1008675835+1004873682
2366+1001263301+998382134+997267557+997449359+997144329+996195311+996743726
2356+1000206294+1005456651+1010485885+1014248592+1016455985+1016804286
2347+1015082847+1011867426+1008735411+1006984247+1006466373+1006511087
2339+1007007388+1008210639+1010101525+1012032044+1013099775+1013167190
2330+1013172458+1013896842+1014912585+1015378910+1015337144+1015709150
2322+1017283028+1020012684+1023242968+1026225227+1028377934+1029443220
2313+1029588523+1029335230+1029419389+1030584825+1033114242+1036400403
2305+1039278748+1041053178+1042032109+1042974354+1044296757+1045887505
2296+1047289615+1047990921+1047963265+1047971793+1048882682+1050659809
2288+1052457442+1053621498+1054150410+1054279471+1054210864+1054290633
2279+1054841995+1055598927+1055807255+1055150036+1054187786+1053709295
2271+1053965786+1054564307+1054908219+1054876236+1055075283+1055956258
2262+1056846013+1056671424+1055499215+1054363128+1053717698+1053180258
2254+1052649591+1052351585+1051995695+1051431791+1051798780+1054199199
2245+1057495582+1059302810+1059067641+1058465608+1058891797+1060041430
2237+1060901584+1061043062+1060762239+1060508005+1060338558+1059842884
2228+1058686102+1057334663+1056856298+1057741914+1059398007+1060867971
2220+1061274218+1059708932+1056087828+1052278212+1051052698+1053492312
2211+1057967927+1061852797+1063966560+1064993152+1065670816+1065474528
2203+1063589788+1060453195+1057660012+1056605451+1057374297+1058859187
2194+1059888538+1059904592+1058808767+1057050454+1055428350+1054006298
2186+1052377924+1051567687+1053346194+1056901827+1059090844+1058643835
2177+1057245111+1056304810+1055375171+1054136989+1053823430+1055719459
2169+1059346458+1062919901+1065082078+1065633440+1065304579+1065131745
2160+1065114813+1064063262+1062114807+1061109913+1061311594+1061341570
2152+1061071910+1061632553+1062962795+1063541249+1062356623+1059771267
2143+1056859684+1054464219+1052511751+1050511684+1049069124+1049868073
2135+1053412041+1058018724+1061807017+1064268079+1065378077+1064775292
2126+1062508386+1059729877+1058090968+1058418699+1059845142+1060530582
2118+1059706549+1058472255+1058057479+1058225045+1058039669+1057286752
2109+1056433244+1055911482+1055903079+1056294149+1056714193+1056980843
2101+1057275213+1057543494+1057265555+1056303932+1055434496+1055413300
2092+1055993509+1056342437+1056032641+1055398249+1055234822+1056029631
2084+1057210118+1057592409+1056921267+1056338675+1056933057+1058394116
2075+1059456454+1059400139+1058771641+1058586516+1059142519+1060084952
2067+1061464235+1063774161+1066574242+1068023762+1066622530+1063024128
2058+1059673061+1058752075+1060446673+1062758104+1063028267+1060369287
2050+1056898566+1056029004+1058916882+1063312100+1066659405+1069018246
2041+1071638470+1073741823+1073023271+1069531730+1066541130+1066400279
2033+1067678597+1067992783+1067387488+1067054990+1067029279+1066905360
2024+1066936841+1067027397+1066279873+1064711200+1063933449+1065087596
2016+1067458854+1069767401+1071048979+1070227329+1067319634+1064589414
2007+1063781184+1063562571+1062402905+1061459845+1062082447+1063307334
1999+1063604839+1062930060+1062067397+1061663031+1062364525+1064402533
1990+1066771408+1067831990+1066708696+1063776418+1060191436+1057120691
1982+1055414052+1055805875+1058764868+1063417080+1067149434+1067974722
1973+1066798625+1065405796+1063437900+1059912745+1056604322+1056332654
1965+1058385838+1059615867+1059222915+1059167353+1060700530+1062717592
1956+1063310720+1061632929+1058444411+1055564686+1054716321+1056262417
1948+1058664279+1059697142+1058565947+1056352848+1054503101+1053527431
1939+1053204340+1053297906+1053701644+1054223406+1054429979+1053910224
1931+1052828696+1051908714+1051530625+1051096471+1049855154+1048239447
1922+1047488411+1047798584+1048274880+1048611266+1049187524+1049742022
1914+1049609575+1048954048+1048636037+1049006538+1049456119+1049409399
1905+1049093080+1048733177+1047813133+1046077960+1044499191+1044120851
1897+1044764211+1045615837+1046164628+1046117657+1045239441+1043758063
1888+1042671832+1043100593+1045024590+1046922500+1047142994+1045753866
1880+1044257437+1043740065+1044123108+1044796570+1045334449+1045658857
1871+1045736871+1045349939+1044415659+1043317199+1042461183+1041900038
1863+1041458046+1040908126+1040222122+1039618834+1039273857+1039250340
1854+1039572302+1040012225+1040085096+1039510782+1038475912+1037445181
1846+1036807778+1036572985+1036481740+1036518991+1036796804+1037113436
1837+1036991587+1036005757+1034161153+1031905911+1029670612+1027749061
1829+1026622130+1026458013+1026463845+1025690233+1024070136+1021981771
1820+1019493681+1016616527+1013342595+1009360020+1004343955+998150351+990617035
1810+981730524+971707549+960668205+948681600+935680254+921046898+904182507
1800+885776785+867606860+850923831+835712522+820871527+804875819+787582981
1790+771171306+756942065+743348595+727968529+709660073+688890180+665842971
1781+640101538+612736120+586084426+561363063+538140574+515578441+494835984
1771+479542993+470826870+466283338+463903050+463163615+463861723+465618029
1761+467957398+470459442+473038652+475827163+478896811+482495339+487245882
1751+493680990+501713210+511138823+522437919+536391229+553509101+574648618
1741+601481487+633025892+663566470+690125477+716858885+747042633+773562695
1731+791114282+804032095+815938053+827368217+838820142+850978767+863141530
1721+874095021+884110846+894797311+906699005+917669993+926471405+934103555
1711+941361064+948179905+954476043+960760642+967483033+973984740+979427935
1701+984101343+988685825+992856724+996349833+999739530+1002868786+1005093863
1691+1006522124+1007579758+1008339888+1008592365+1008219732+1007628861
1683+1007751463+1008478857+1008963556+1008865851+1008170691+1006856252
1674+1005008700+1002674129+999277407+993966848+986926885+979060005+969625455
1664+956473414+938767493+920022563+905548244+896902546+892905547+893203993
1655+901749540+924440107+949659841+964547180+974285443+985047413+997233505
1645+1006666298+1012024581+1014885744+1016533998+1017613770+1018595836
1636+1020127258+1022375162+1024446532+1025817726+1026615796+1027131726
1628+1027672740+1028265680+1028684971+1028949239+1029239594+1029349340
1619+1028836608+1027404585+1025080110+1022108010+1018399987+1013951464
1611+1009804459+1007860958+1009161349+1012869247+1017478814+1021996257
1602+1025829453+1028509566+1029884146+1030296163+1030361571+1030416632
1594+1030002546+1028024616+1023611650+1016926574+1009411507+1003378256
1585+1001074351+1003496531+1009542512+1016536695+1022200008+1025973753
1577+1028659510+1031068521+1032869478+1033535916+1033242613+1032727875
1568+1032454765+1031806764+1030046946+1027146275+1023208915+1017528921
1560+1009595691+1003961351+1005043317+1008997170+1013136587+1016886187
1551+1020105873+1022837473+1024783420+1025406587+1024785301+1023766925
1543+1023104249+1023102995+1024618676+1027432366+1029557857+1030207864
1534+1030000288+1030133864+1030883709+1031361761+1031050146+1030144776
1526+1028985173+1027630034+1026235198+1025393230+1025262914+1025313272
1517+1025562489+1026338171+1027213815+1027366456+1026331837+1023961080
1509+1020640617+1018819905+1021325931+1025172923+1027288819+1027674998
1500+1027019095+1026010251+1025164520+1024400816+1023164829+1021075648
1492+1018176733+1015337896+1014311179+1015641860+1017750230+1019055639
1483+1019049305+1018064981+1016577645+1014394774+1010708324+1004805890
1475+996290570+985292804+973811906+964427024+956946762+949706561+941896184
1465+934358792+928581280+924566910+921066276+916903028+912188670+909453746
1455+910081930+912777408+916687739+921430380+926772860+933338471+942412741
1445+954490718+968614918+982467513+993388645+1000343445+1004192005+1006307085
1435+1007393630+1007396891+1006322011+1004718407+1003399829+1002554537
1426+1001748753+1000844826+1000113105+999663775+999495644+1000201089+1002538796
1417+1005685862+1007898961+1008127796+1005882840+1000860127+992945398+982485511
1407+970934752+961706023+958668703+962252368+969720589+978224496+985647627
1397+990934733+994395734+996760595+998224476+998494137+997118491+993868829
1387+989575267+986060898+984277563+983562460+982666560+980830735+978147862
1377+975040932+971552024+967057220+960427580+950563016+937281036+922526959
1367+910086884+902705519+900648572+902738568+906866759+910714127+912932118
1357+913115487+911478647+908754948+905696118+902529549+898898411+894009651
1347+886927170+877153475+864988643+851078416+835808346+819746478+804589603
1337+792559851+785032179+782925941+787380234+798803876+815547735+834061823
1327+850350332+861374437+865859960+864420599+858958465+851946347+845903000
1317+842369316+840862540+839385176+835974156+829657323+820378738+808567662
1307+795072650+781103474+767657063+755143616+743776101+733854594+725430018
1298+718135320+711523554+705317533+699424381+693947384+689037929+684644027
1288+680612412+677032760+674291691+672848881+673063167+675094527+678814779
1278+683776096+689304078+694737552+699676294+703972051+707404644+709351406
1268+708908347+705462146+699054820+690090295+678872787+665645680+650895742
1258+635299634+619356478+603187812+586668837+569727812+552576640+535735076
1248+519829704+505202744+491613100+478400949+464984295+451161269+437099091
1238+423247249+410235368+398717784+389200894+381908485+376799889+373700829
1228+372264133+371831296+371562137+370735659+368914446+366082726+362745863
1218+359660004+357392001+356246665+356388017+357680883+359470928+360759248
1208+360644799+358618424+354583673+348718710+341346751+332946915+324238505
1198+316070514+309049898+303292706+298669624+295287891+293661084+294511582
1188+298520652+306113544+317256426+331425025+347785088+365389636+383335931
1179+400927653+417727326+433399158+447554871+459876514+470411373+479701059
1169+488648118+498290087+509600753+523374237+540220912+560534327+584150144
1159+609721878+634283138+653422274+662083023+655810464+632288276+592741909
1149+542273595+488505668+439255593+400771971+377235391+370904385+382006002
1139+408323599+445246920+486818658+527261647+562002723+588044546+604087914
1129+610174093+606815751+594888785+576807032+557070065+540717966+531242529
1119+529995128+536879817+551030982+570933509+594244672+617893663+638936353
1109+655864898+669258694+681111974+693457103+707292201+722187505+736506300
1099+748193457+755867937+759617412+761101926+763036647+768214383+778278120
1089+792843058+809622600+825561240+838237299+846585241+850490242+849823051
1079+844003146+832403723+814914095+792168279+765598988+737308634+709586638
1069+684400392+663306091+647541351+637703690+633110240+631693518+630861332
1060+628622459+624015964+616728980+606557881+593204409+576378209+556089942
1050+532950421+508122009+482900583+458390433+435428010+414419279+395126499
1040+376868527+359123662+342120458+327366569+317898908+317271539+327096156
1030+345218828+366739914+386852808+402653105+413761401+423467681+438756501
1020+465682967+502461267+538326076+560997390+565518221+556267667+541862456
1010+528741645+518496797+509554880+500304421+490601590+481138914+472331138
1000+464063278+456153974+448784053+442506415+437969938+435747244+436309424
990+439718813+445120587+450899447+455654129+458908558+460902542+461973534
980+462204877+461722592+461546843+463866802+470759298+482477968+497251548
970+512472295+525648480+534553586+537317482+533186719+523839277+513995815
960+509924848+516349075+534179698+560788435+592070768+624376933+655283309
950+683505809+708598927+730662188+750068100+767348396+783200493+798292148
941+812897096+826894242+840237742+853147089+865559132+876699881+885728058
931+892683422+898250160+902637163+905265790+905584491+903690344+900149072
921+895673019+891104778+887364459+885059864+884033962+883392169+882224288
911+880472559+879037588+878791946+879351586+879022286+876237820+870889383
901+863919846+855770323+845607063+831877571+813238186+789445584+762581422
891+737886900+722327227+720755293+732614594+752216857+772250200+787343799
881+795314153+796378811+791778588+782948643+771444103+758769110+745673760
871+732016324+717885602+704595783+694059136+687318748+684030204+683198772
861+683989693+685663847+686985560+686224803+682225485+675447908+667658665
851+660754223+656224237+655204167+657930311+663042325+668379976+673035950
841+678423394+687287329+701927083+723072431+749625041+779060637+808373193
832+835027584+857130918+872884245+880272509+877530812+863830168+839403864
822+805307214+763541539+717125535+669040457+620790760+572797429+526711539
812+486764381+458230110+444739174+447273796+465065131+496233046+537156626
802+582498503+627085393+667109561+699083166+719786585+729298458+732783289
792+736434557+741264745+743815233+744831917+753865111+780893076+824576100
782+872600662+912790766+940711747+958044093+968000405+972968809+974133806
772+971883205+966291446+957212598+944644403+929823287+915673438+905423322
762+900478623+899470594+899177102+896573246+890442166+881255892+869882232
752+857227306+844766035+833052226+819032378+798069646+770668295+744347844
742+726349248+716287518+707483410+694252665+677465284+664319074+662983627
732+676264604+699517194+724202247+743442223+755024777+760389206+761180629
722+756140984+741418577+715633183+685081630+661281378+651731125+652964164
713+652010569+636449830+606733285+579377714+574469576+597707303+636257054
703+671730855+693568291+699793502+691008898+668392142+636855513+608186318
693+598917703+621395113+674081418+741187484+803594680+850500150+881267431
683+899793748+910206538+915965174+919373873+920970327+919753843+914124708
673+903158987+886324949+860881083+823568134+781737929+747536112+719460797
663+692846102+669764213+655109472+650012885+651930298+658397514+668674471
653+682900577+700365685+719052982+736530130+750807911+761203017+768442967
643+772525129+770758976+760268298+743113300+726914344+719321388+722788535
633+734682390+751043268+769230377+787593642+804153631+816553695+823493193
623+825623889+824586950+822021410+819878423+820274135+823903705+829236088
613+833929877+836495479+836737797+835674456+835164610+836827852+840745081
603+845168018+847864750+848054767+846884314+845943762+845760707+845951539
594+846368447+847706904+851026490+856894181+865137583+875015630+885264053
584+894361778+900919048+903742960+902126689+896261757+886825326+874287296
574+858694449+839671706+817204706+793966226+776698096+772792971+784315258
564+806052857+829210125+846924826+856953632+860073732+857539987+850618487
554+840734859+828336738+812580402+794028750+777083460+767426221+766739025
544+771362828+776177839+778277681+776720422+770921149+760492994+745587531
534+727061904+707750813+693555874+690847603+701729478+722238365+744245185
524+759876537+765578857+762107007+753323030+745850042+746164730+755888256
514+771440967+788020772+802620076+814207522+822033765+824722595+821780221
504+814129884+802251707+787078340+773225933+766847329+769906786+778380152
494+785752487+788616095+788822480+790661189+797158820+809177346+825979089
484+845293504+864272474+881507743+897076132+910561989+920643410+927041706
475+931139231+933979260+935399494+935587943+935013189+932467216+925621785
465+913662397+898200680+882565941+871349813+869501446+878606884+892665675
455+903782656+910372787+914581751+917004872+916880891+915554662+916740981
445+922692079+931617848+939813024+945546637+949980047+954875831+960416982
435+964947031+966918689+966768745+966652478+968665338+972692501+975839755
425+974780239+969461025+963010553+957825668+955045905+956153019+960445641
415+964422885+964429533+958204259+946954893+934983276+925775680+919782377
405+915902713+913156689+910057472+903808305+892162413+878625948+872123551
395+874636036+880974693+888947995+899107743+908661508+912114231+908801481
385+905644256+909004980+916649735+923140405+925465821+920873249+907144698
375+889593236+880954750
##END=
