##TITLE=X7616
##JCAMP-DX=5.0
##DATA TYPE=LINK
##BLOCKS=1


$$ === CHEMSPECTRA SPECTRUM ORIG ===
##TITLE=X7616
##JCAMP-DX=5.00
##DATA TYPE=INFRARED SPECTRUM
##DATA CLASS=XYDATA
##ORIGIN=ComPlat
##OWNER=
##XUNITS=1/CM
##YUNITS=TRANSMITTANCE
##XFACTOR=1
##YFACTOR=9.0593721e-010
##FIRSTX=3997.453
##LASTX=373.96442
##MAXX=3997.453
##MAXY=0.9727426713889338
##MINX=373.96442
##MINY=0.6841729844081164
##NPOINTS=2559
##XYDATA= (X++(Y..Y))
2559A056733518A056775692A056721610A056507650A056307572A056191052A056195197
2552A056553771A057419216A058435658A059012929A059017995A058788113A058462831
2545A057797857A056740229A055757408A055365543A055569963A055981171A056299874
2538A056501399A056635552A056605879A056286321A055891232A055970249A056749045
2531A057638111A057692851A056539691A054776955A053471879A053326475A054218370
2524A055340870A055906956A055902811A056076835A057033207A058313019A058960557
2517A058713635A057879770A056702069A055520684A055007166A055438244A056158682
2510A056465015A056295400A055958933A055809714A055933537A055922944A055315277
2503A054342917A053894732A054425290A055492195A056602260A057658704A058456646
2496A058429737A057282958A055603583A054454502A054189421A054334890A054754783
2489A055586214A056460015A056815365A056520348A055982948A055884521A056376523
2482A056847143A056777073A056139865A055166913A054045070A053147057A053270683
2475A054587405A056095257A056834971A056501597A055332580A054006318A053584846
2468A054663396A056255793A056864381A055993738A054504439A053680049A053899930
2461A054787417A055776422A056158682A055191848A053488590A053401940A055100725
2454A057207954A058923910A059763302A059278208A057499024A055335475A053857296
2447A053404506A053832492A054970914A056366523A057202822A057001692A056207040
2440A055630822A055570029A055794910A055968210A055905904A055683719A055589635
2433A055629572A055540553A055510354A056039333A056902475A057211967A056453107
2426A054978349A054026253A054631684A055909654A056146839A055008153A053893548
2419A054155800A055542395A057192624A058383747A058819957A058747650A058510202
2412A058250384A058006948A057817858A057734630A057783514A057778777A057343291
2405A056450080A055688193A055465220A055598649A055894587A056317770A056679239
2398A056656343A056265596A055981632A056272504A057080775A057770487A057753381
2391A057064261A056330731A056038675A055980842A055500748A053902825A051317804
2384A049384006A048978522A049109056A048851870A048308614A048314667A048985035
2377A049505790A049051092A047640680A046616343A047315068A049412495A051874219
2370A053914536A054920122A054699648A053761238A052925860A052651699A052986389
2363A053739986A054550363A055096711A055225600A054924004A054416013A054234687
2356A054779258A055830307A056868000A057396123A057064393A055903535A054495294
2349A053599452A053497143A053995396A054823932A055876889A057153740A058381642
2342A058797785A057929707A056642658A055934655A055704379A055311724A054334035
2335A052971652A051758883A050933703A050682569A051373400A052377735A052427541
2328A051342214A050872910A052501427A055096645A056860434A057024456A055973802
2321A054586681A053484050A053104883A053807359A055047235A055519761A054588458
2314A052753876A051251024A050777378A051070356A051951328A053133438A054036978
2307A054380222A054515230A054774126A054803536A054007568A052373064A050306495
2300A048001754A046094536A046234807A048366380A050579734A051944486A052696570
2293A053250550A053561884A053412862A052952111A052438989A052076599A052098377
2286A052525507A053228048A054208040A055195533A055504564A054875185A053775120
2279A052818024A052210817A051733947A051048381A050158131A049726263A050277348
2272A051250235A051687168A051485972A051592426A052554653A053752356A054487662
2265A054673002A054789061A055276524A055846821A055907877A055541737A055249944
2258A054945386A054056716A052584260A051540120A051673812A052419711A053192783
2251A054057045A055077894A055960578A056330468A055993935A055029010A053998094
2244A053735184A054381735A055110528A054999666A053907496A052669266A052439515
2237A053711893A055821425A057361450A057446718A056571074A055816885A055500617
2230A055188098A054670304A054350483A054624907A055287709A055930773A056593773
2223A057440468A058104849A058084716A057620149A057440665A057638177A057554224
2216A056914318A056363431A056550415A057202098A057577844A057433428A057144003
2209A057082289A057146174A057042089A056773192A056660881A056942215A057419348
2202A057617912A057334277A056921950A056922477A057440007A058010304A058078729
2195A057549948A056861420A056430408A056267635A056368891A056948991A057858848
2188A058375852A058079782A057298420A056407907A055441600A054540560A054041583
2181A054034872A054363313A054970519A055865967A056904383A057794304A058259200
2174A058262095A058098533A058057149A057982342A057474220A056555679A055789910
2167A055658323A056037030A056325534A056131377A055708918A055565028A055806227
2160A056150786A056402249A056588707A056789574A057074788A057375201A057291380
2153A056463502A055260010A054560956A054723794A055318303A055851953A056160458
2146A056179275A055889324A055522328A055468707A055909983A056699503A057544224
2139A058131035A058154194A057459416A056207435A054795114A053626690A052988495
2132A052936452A053182256A053320554A053306079A053408322A053648665A053706103
2125A053584846A053868349A054845710A055830833A055941235A055289354A054758533
2118A054823800A055113752A055005456A054324429A053523263A053147188A053155873
2111A053216074A053599320A054876435A056636407A057570607A057101566A056037622
2104A055371464A055258234A055364622A055493577A055621084A055740302A055815109
2097A055738920A055447390A055107764A054894923A054627868A054111522A053730117
2090A054113166A055256918A056463239A057089394A057052484A056703845A056476661
2083A056619959A057033470A057276313A056952742A056227896A055732801A055856230
2076A056397972A056891883A056922937A056289939A055316922A054838670A055449824
2069A056823129A057936681A057972078A056995770A055751552A054827748A054270610
2062A054019806A054229028A054931570A055802476A056483767A056842735A056827076
2055A056457252A056069005A056171314A056858986A057600280A057789107A057364476
2048A056752203A056362707A056346587A056671672A057115909A057280064A057012548
2041A056789179A057238943A058281701A059129054A059148529A058402038A057341317
2034A056304151A055427849A054874264A054889725A055536803A056485675A057213612
2027A057442507A057448758A057802989A058551849A058906541A058257555A057181045
2020A056711609A056970374A057229995A057014324A056539428A056279083A056500478
2013A057104856A057692193A057857861A057558501A057155451A057020772A057216836
2006A057644296A058220185A058717714A058755414A058224593A057517446A057163215
1999A057350989A057801015A058039187A057883849A057625808A057666599A058084058
1992A058579745A058755743A058506123A058108007A057772593A057366384A056898791
1985A056815826A057301183A057777132A057649296A057126897A056807536A056780034
1978A056683581A056420539A056273030A056441988A056925701A057671731A058463817
1971A058946872A059073195A059103329A059009113A058443751A057400400A056373365
1964A055904193A056243489A057178018A058029384A058209855A057792265A057220389
1957A056737663A056370799A056057163A055616281A055035260A054750375A055161123
1950A055987948A056548902A056544889A056262767A056132364A056327178A056701872
1943A056969322A056951623A056717070A056515742A056552652A056757072A056836287
1936A056605616A056156971A055630887A055015720A054321402A053823478A053858349
1929A054323902A054649185A054438186A053911970A053494512A053287591A053204889
1922A053242523A053334699A053258445A052904608A052472741A052328193A052715321
1915A053490695A054124878A054150340A053576490A052716110A051764739A050790142
1908A050026478A049870022A050463149A051360767A051796451A051389980A050526442
1901A049983252A050225108A051044565A051833558A052213647A052300823A052250951
1894A051847572A050973179A050158789A050052532A050513678A050791984A050549535
1887A050229385A050324654A050704610A050927452A050926597A050936334A050921465
1880A050665463A050328338A050321759A050688162A051021405A050908570A050248202
1873A049321568A048569616A048168013A048003333A048011688A048111563A047947408
1866A047275592A046454097A046087957A046346788A046899189A047304541A047340465
1859A047096306A046795564A046514298A046170790A045681683A044979733A044043757
1852A043074950A042443795A042363132A042732233A043259895A043620508A043648339
1845A043452933A043149165A042560446A041434327A039768769A037701081A035399301
1838A033199237A031361168A029561917A027110259A023739469A019777327A015580501
1831A011193269A006557272A001774753I97034540I92389990I87817681I83511769
1824I79884450I77242716I75666768I75174962I75782761I77432595I79966231I83039241
1816I86014483I88171320I89202302I89386589I89187235I88847413I88509893I88385741
1808I88433441I88154346I87164879I85804075I84865007I84915668I85992442I87743400
1800I89804311I92083130I94572882I97004604I98997550A000472374A001649680
1793A002751850A003869547A004994088A006113759A007335476A008823063A010533033
1786A012156614A013390438A014204631A014853682A015676888A016831364A018174009
1779A019453624A020593428A021669676A022670853A023464058A023979614A024231077
1772A024199035A023850659A023178120A022075950A020376047A018166904A015903875
1765A014118244A013142134A013045483A013630386A014512807A015375950A016170273
1758A017048351A018113479A019228019A020066687A020383942A020240842A019990958
1751A020017078A020402233A020922461A021465256A022292081A023736903A025821631
1744A028275394A030747974A032997054A035028752A036994526A038916350A040682309
1737A042279574A043760385A045019209A045891366A046468571A047100516A047995635
1730A048952665A049594940A049771068A049605861A049330319A049218865A049491118
1723A050096877A050787773A051443272A052137787A052903819A053595306A053986448
1716A053948946A053536685A052898753A052201738A051700327A051670917A052130813
1709A052772298A053242852A053405559A053404439A053539119A053952170A054455358
1702A054774126A054830051A054683068A054397065A054072638A053850848A053804596
1695A053890587A054036122A054222778A054457134A054725900A055069078A055579503
1688A056179341A056565810A056564166A056357904A056208553A056154339A056100980
1681A056012160A055930379A055917549A055977684A055998672A055867875A055689641
1674A055709510A055934458A056052425A055887547A055724248A055949590A056526532
1667A057030970A057133279A056851486A056383432A055915641A055598254A055484102
1660A055421270A055202638A054860184A054657409A054798470A055250799A055761750
1653A056023871A055978737A055920378A056155787A056691147A057321974A057806476
1646A057934115A057678047A057271379A056953202A056728518A056508439A056331916
1639A056278162A056279873A056232765A056244279A056492122A056840103A056952215
1632A056842472A056898988A057264076A057594622A057558830A057233811A056889054
1625A056631670A056411262A056215527A056115587A056155984A056272175A056309151
1618A056147497A055852677A055612860A055502788A055447390A055416730A055480484
1611A055697799A056105784A056688318A057263023A057615478A057803976A058055109
1604A058384208A058609089A058659882A058586390A058359206A057921088A057337041
1597A056754638A056358759A056396393A056975440A057824898A058544151A059025693
1590A059303341A059174451A058470594A057593306A057223415A057478102A057825754
1583A057886810A057836412A057894771A057954182A057962867A058173669A058691791
1576A059208072A059435519A059395057A059117211A058510070A057723116A057273813
1569A057536855A058287426A058990296A059419005A059719813A059948181A059883112
1562A059412031A058886079A058875421A059510919A060246554A060490647A060271029
1555A059997526A059924167A060215960A061026403A062037383A062521162A062378324
1548A062476159A063387529A064377390A064280871A062997045A061463402A060471831
1541A060158588A060375772A060858761A061164371A060948109A060241817A059324592
1534A058615734A058642775A059617504A061037982A062096992A062421551A062233645
1527A061998565A062035146A062294109A062538400A062733148A062972899A063123303
1520A063013033A062808810A062630708A062113440A061050680A060132534A060260239
1513A061345764A062434380A062872696A062886118A063088695A063750840A064562664
1506A065029862A065022757A064772873A064375482A063673467A062700909A061843951
1499A061430308A061456691A061691047A061765723A061369910A060707831A060505648
1492A061228388A062593863A063999736A064951437A065068351A064371534A063581685
1485A063402266A063564381A063265943A062443460A061938167A062430630A063653729
1478A064684579A064878209A064483317A064198629A064202774A064060924A063552144
1471A062949082A062441223A061998631A061842898A062304833A063127119A063558131
1464A063236862A062525307A061978104A061833753A061956457A062031001A061832240
1457A061409583A061033377A060974360A061307406A061873755A062438525A062851247
1450A063057180A063078695A063031850A063012309A063014480A063083498A063317590
1443A063575500A063501613A063007046A062393852A061943891A061715193A061766117
1436A062269042A063305616A064620101A065637135A065827015A065128684A063938680
1429A062726240A061823555A061489917A061846780A062708804A063677085A064315873
1422A064092636A062540505A059875151A057072025A054901700A053234562A051579201
1415A049796859A047931881A045871760A043554189A041155890A038903520A036798462
1408A034492800A031745796A029256373A028207298A028635218A029384604A029928715
1401A030937919A032885666A035317190A037589430A039454276A040826002A041496041
1394A041213722A039995953A038409675A037281846A036968209A037219408A037665421
1387A038247560A039149982A040332749A041421300A042139895A042466033A042312142
1380A041597692A040709153A040351171A040796263A041674802A042723877A044175278
1373A045990188A047460077A048057810A048096430A048186238A048568563A049258932
1366A050318798A051643218A052798681A053394637A053602676A054154814A055661679
1359A057907995A059894033A060611115A059889296A058618234A057981289A058328546
1352A059061287A059653756A060197538A060784546A061133054A061151147A061203124
1345A061471758A061570645A061096670A060242278A059584936A059419071A059524538
1338A059569672A059491839A059437099A059517037A059667441A059633492A059155108
1331A058205513A056977677A055834386A055351068A055900706A057077683A058208999
1324A059413479A061187202A062988295A063509970A062614720A061757893A061983959
1317A062569652A062412603A061883953A062164891A063384173A064618851A065226255
1310A065133816A064477922A063848608A064145797A065519562A066935896A067081036
1303A065575223A063454967A062403194A063266337A065454032A067654491A068852851
1296A069028453A069101681A069746324A070443537A070266947A069017202A067093800
1289A065109867A063723930A063039087A062393786A061209308A059529472A057727064
1282A056279544A055611413A055853993A057128870A059741919A063378318A066737200
1275A068670143A069115958A068544017A067219070A065550814A064568388A065001176
1268A065942548A065557196A063337986A060688817A059626781A061663874A066520147
1261A070979029A071589525A069036875A066793848A067012676A069202279A071307206
1254A071718217A070541569A068725738A066701803A064687737A062999085A061277470
1247A059128330A057935036A059860084A064523385A068881734A070881786A071076534
1240A070559004A069492888A067873846A066198023A065088550A064887222A065361856
1233A065583513A064839983A063776565A063672874A064562532A065059732A064177575
1226A062530570A061488667A061594857A062162062A062402602A062438196A062785256
1219A063376673A063761827A063888216A064013750A064085070A063800053A063160673
1212A062525307A062137850A061952576A061861386A061700785A061219638A060584206
1205A060571178A061557881A062803876A063530432A064019803A064677868A064963411
1198A064436867A063971510A064697869A066304740A067268020A066448433A063941706
1191A060838036A058760151A059149647A062000868A065025849A064990189A060841194
1184A055301263A052720058A055049208A060396037A065656939A069415779A071751640
1177A072401218A070712829A067456518A064986833A064712936A065720627A066801348
1170A068100570A069581249A070079699A069491441A069721323A071779602A073741823
1163A073214029A070440905A067788117A067309010A069322813A072030077A072501158
1156A069770273A066595941A066134796A067732719A068322359A066879313A065108683
1149A064764781A065956298A067371316A067456518A065821751A063703205A062835720
1142A063841436A065691085A066377902A064350678A060167865A056370536A055255207
1135A057495471A062583402A068765806A072849928A072643666A069373145A065944587
1128A063792158A062569915A061967971A062483594A064235079A066175127A067294930
1121A067823843A068359795A068419996A066919776A063752419A060265897A058432500
1114A059584081A063284102A067320918A069535061A069655069A068703763A067344472
1107A066044856A065851621A067290193A069147868A069597039A068238472A066155389
1100A064522003A063866702A063923087A063774130A062885262A062011132A062164299
1093A062885065A063017178A062776769A063383121A064690829A065232374A064534702
1086A063745050A063939337A064764057A065339815A065544432A065615884A065404226
1079A064763399A064046515A063602015A063356869A063283180A063581356A064114282
1072A064326137A063920060A063421741A063850516A065555156A067521983A068264329
1065A067568236A066532385A065957417A065758655A065686612A065685559A065718850
1058A065704639A065470809A064864195A064190273A064069806A064734253A065810237
1051A066560808A066473303A065814974A065390081A065719903A066576335A067217294
1044A067084983A066366191A065737338A065607725A065871425A066271120A066694302
1037A067141960A067537181A067691072A067489876A066977740A066178548A065090787
1030A063939995A063245876A063429373A064314886A065328433A066041501A066407772
1023A066471395A066172035A065744904A065693059A066032553A066239012A065968997
1016A065252441A064365547A063786565A063811304A064221854A064553716A064501542
1009A064129020A063830252A063876900A064084083A064108624A063693994A062796968
1002A061969814A061946588A062521886A062998558A062919672A062060806A060627827
995A059233534A058190578A057294077A056335468A055150596A053269169A050049308
988A045384363A040067207A034497734A027990377A020025039A010610274I99102030
981I84689931I68735175I53200246I37433265I20863867I05375520H92010128
974H79144567H65301646H51824141H41226543H33759985H28080834H23331870
967H19505329H16649108H14596750H13361677H12996459H13448788H14862819
960H17343030H20817906H25586411H31750787H38886603H46982014H56360395
953H66391447H76162220H86445523H99518070I15790476I31458110I44019047
946I54528548I64161616I72968516I80641403I87447528I93911593I99734238
939A004378986A008254543A012100888A015650505A018601337A021416634A023961850
932A025666885A026516211A026762213A026520751A025583525A023202200A018830232
925A013889480A009529618A004839276I99000511I91332691I81079784I69180070
918I57815387I46681244I33813051I20151128I08848093H99750386H90615638
911H80649656H71452140H64771944H60461032H57660472H55963596H55860037
904H58554209H62675636H65904905H69173124H74656473H83128881H92052499
897H99702291I06718692I13723447I20888277I29102905I39994139I52282692
890I62176302I69456402I75868753I82370123I88814450I94571171I99534358
883A004176079A008499294A011911338A014369838A016474041A018471395A019547643
876A018778650A015787421A010734952A004795918I99881616I97336663I97346795
869I99363032A002598289A006322192A009998001A013344185A016391667A019327235
862A022176942A024850784A027461464A030311303A033529321A036810765A039583429
855A041460316A042439913A042683282A042362803A041887249A042199438A043905130
848A045889787A046952613A047179337A047540016A048673570A049996542A050865936
841A051136609A050592235A048869042A046573314A046545615A048922795A050864093
834A051854744A052343523A052668279A052994153A053202850A052916056A051868758
827A050179579A048210121A046612066A046926164A049225181A051210364A051763883
820A051278197A050843303A050889226A050723296A049819427A048278217A046340077
813A043585836A038978130A032258260A024202785A013807699I98938534I80905037
806I64293729I52176568I45387023I44394662I50973799I68593588I91424143
799A006348510A013163253A015659190A014836247A009862072I99923263I87058426
792I75601369I67723800I63681390I64372418I70585021I80167559I89763322
785I97819783A004316416A009762657A014366614A017739839A019380067A019099853
778A017043416A013868821A010897594A008756875A006625895A003512027I98976167
771I93460908I88083157I83192211I77947626I71231967I63373543I57783279
764I55899879I55221747I54107800I52358881I50451927I49041646I48210676
757I47082452I44382029I39332192I32088081I22945503I11823992I00431479
750H92779120H90006260H90358451H92574174H95668501H98139107H98821253
743H97501833H94756868H91352786H87413607H82996768H79537748H78388075
736H78867051H80014487H81803803H84647457H88637824H93530678H99447803
729I06862121I15399006I23861149I31828527I39641618I47150219I53729422
722I59123095I63142674I65304644I65453271I64148852I62678568I62572970
715I64139246I66188183I67500892I67508326I66110415I63384597I59269157
708I53590138I46747958I40109080I34966146I31815302I30788597I31687531
701I33996812I37557614I42601332I48771235I54982325I60426396I64856196
694I68338046I71102025I73298996I74866194I75729140I76032118I76122716
687I76351742I76826573I77308049I77451478I77180146I76653470I75771313
680I74101610I71352632I67490036I62518164I56527285I49921369I43303611
673I37163183I31861094I27732627I24950555I23394345I22741873I22571731
666I22426394I21998539I21315604I20636156I20123363I19722550I19373779
659I19149227I19078959I18960729I18471621I17410901I15808569I13887404
652I11954395I10302587I09196930I08793288I08864739I08744140I07871786
645I06380974I04893255I03777532I02810501I01484765H99487476H96876467
638H93927609H90932301H88123978H85624159H83333169H80945528H78232868
631H75378028H72972887H71579055H71241206H71456416H71608465H71367859
624H70658804H69444193H67782779H66040308H64829184H64662200H65627323
617H67247484H68607235H68777114H67275907H64187436H59935738H54973669
610H49573219H43850645H38013327H32538597H28082150H25229285H24315481
603H25453311H28628761H33556815H39427621H45097955H49680462H52796041
596H54248297H53671092H50571107H44647139H36093083H25648059H14321273
589H03045148G92580124G83663217G77098422G73563805G73312870G76101653
582G81313736G88071306G95369630H02331949H08425926H13442669H17220852
575H19349333H19217878H16401593H10850411H02733025G92459393G81000626
568G69928000G60992078G55723150G55210159G59746610G68366723G78793325
561G88193286G94458919G97278953G98396125H00747842H06720562H16681544
554H29024179H41555049H52838543H62615830H71481089H80301346H89705650
547H99856116I10470886I20943938I30569044I38888482I45872051I51680881
540I56318851I59665693I61829110I63265182I64457686I65578805I66497675
533I66958689I66696502I65596898I63922720I62262425I61097093I60430475
526I59830308I58710768I56556826I53041750I48114091I42112027I35797313
519I30066844I25414793I21700561I18504781I15599281I12957809I10415159
512I07498738I03684302H98901652H93888462H90039485H88733027H90585109
505H95136364I01112703I07041869I11851231I15094843I16777969I17146082
498I16700331I16198132I16353602I17538079I19885586I23587383I28773873
491I35009240I41243358I46607489I51091898I55134439I58840184I62025240
484I64694147I66968031I68835576I70378824I71929047I73674084I75346354
477I76418325I76417601I75158514I72907394I70217302I67521814I65075354
470I63211494I62246108I62074782I62170117I62029846I61510144I60855040
463I60521599I60773456I61305066I61338226I59936170I55917578I47796573
456I34688629I17617623H99465830H83381527H71539119H65361715H65877930
449H72893935H84130124H96125831I06369921I14468359I21490352I28643536
442I36487485I44827648I52966417I60136181I65929615I70387312I73667176
435I75747891I76512081I75942705I74209445I71835489I69818528I69211716
428I70394681I72854168I75647622I78014998I79720230I80971685I82052078
421I83064440I83945611I84491169I84386821I83396170I81480794I78701420
414I75193911I71272627I67356081I63840479I61179532I59883995I60227174
407I62095442I65213915I69279089I73796723I78093687I81677911I84434718
400I86384768I87506676I87926240I87993086I87950715I87725965I87152905
393I86179953I84795069I83043452I81236700I79874713I79176909I78766490
386I77911374I76127387I73659149I71495798I70846220I72362757I75674136
379I79638053I83079836I85402736I86760316I87849196I89405932I91683369
372I94368856I97052107I99696144A002504994A005339174A007568845A008779311
365A009359937A009984250A010740150A011201493A011081618A010414012A009445271
358A008676344A008581799A009049524A009528566A009771146A009883060A009676930
351A008574101A006247122A002977587I99314082I95560703I91588364I87040990
344I81609420I74961266I66545046I55926394I43502241I30579769I18566956
337I08204569H99553664H92383110H86388481H81261205H76899500H73599701
330H71830846H71767619H73070591H74915239H76126955H75704759H73536407
323H70308915H66601196H62535299H58474928H55557848H55137297H57757780
316H62812881H69202928H76212749H83656609H91363642H98853228I05599481
309I11496671I16856657I21825963I26065226I29349301I32299410I36140754
302I41737663I48906507I56579261I63752842I70211644I76061528I80896089
295I83964625I84955933I84213061I82284789I79443964I75720784I71519944
288I67909534I65845268I65300104I65478470I65652230I65673810I65933694
281I66772757I67857492I68457856I68367785I68143956I68407195I69149673
274I69746748I69643386I68951964I68087241I66955596I65014627I62092547
267I58722085I55661773I53316174I51683644I50829712I51179469I53047672
260I56006464I59005457I61094462I61966223I61922931I61398361I60522915
253I59191389I57405889I55373532I53374072I51612916I50089142I48617805
246I47112059I45892316I45671447I47049292I49888275I53417167I57170217
239I61409743I66331152I71537972I76660905I81613697I85791641I87948281
232I87421868I84980869I82259722I80661272I80682853I81931610I83724348
225I85658804I87516347I88866098I89255002I88800502I88102829I87516150
218I86987106I86632940I86888021I87910844I89275662I90220520I89855564
211I87505755I83653488I81256768I83495189I87789324I90250653I90793712
204I91222289I92859952I95415629I97715698I99148941A000058929A000910229
197A001618428A002051349A002639870A003789872A005005470A005323120A004461491
190A003000484A001596585A000576262A000224728A000872529A002494796A004597222
183A006671029A008415671A009432310A009227758A007780107A005655574A003200824
176A000116564I96341407I92921205I91310650I91859235I93533544I95093899
169I95886512I95672881I94600646I93479988I93494726I95223315I97863602
162I99653905I99461064I97926106I96670045I96581092I97352651I98289548
155I98977812I99372770I99584098I99586006I99182824I98286916I97067831
148I95726764I94252994I92426966I89941161I86623137I82883245I79803525
141I78304357I78169481I78194088I77531812I76583730I76042974I75610251
134I74449459I72538820I70579955I68668000I66408327I64688818I65709076
127I70060121I74753227I75468335I70558835I61868915I52322563I44322092
120I39755704I39479833I42370398I45979558I48548920I49785835I49981044
113I49362718I48102249I46263259I43893711I41302835I38848085I36521500
106I34286698I32625745I32582321I35532100I42211309I51223814I59498249
99I64917911I67853939I69926166I71886282I73424925I74485382I75147395
92I74327149I70839049I66099954I63113002I62984441I64490649I66277333
85I68134679I70401721I73552367I78183890I84011865I89160852I91811798
78I92546249I93521504I95471553I96917428I96066983I92709219I88044997
71I83418474I79750692I77409107I76128769I75311878I74427879I73067404
64I70793586I67437730I63901469I62289861I64162866I68264292I72331966
57I76195417I80194007I83007990I83624144I83903042I86903088I93211420
50A000173277A004552154A005462076A004500309A003683353A004200423A006128036
43A008222304A008404947A005522408A000698111I95779005I90641137I83560522
36I74161350I63971539I54242347I46760130I45344520I50063417I56026729
29I59445680I59849520I59204613I58590696I56768680I53391705I50832738
22I51053409I52720021I52278350I47057121I39825116I38562871I44303472
15I50378962I53797650I56161474I56846843I51751740I40384689I30403640
8I30114478I37303454I43963518I46356883I44213401I37763087I29686427
1I24963451
##END=


$$ === CHEMSPECTRA PEAK TABLE EDIT ===
##TITLE=X7616
##JCAMP-DX=5.00
##DATA TYPE=INFRAREDPEAKTABLE
##DATA CLASS=PEAKTABLE
##$CSTHRESHOLD=0.93
##MAXX=3997.453
##MAXY=0.9727426713889338
##MINX=373.96442
##MINY=0.6841729844081164
##$CSSOLVENTNAME=- - -
##$CSSOLVENTVALUE=0
##$CSSOLVENTX=0
##NPOINTS=28
##PEAKTABLE= (XY..XY)
417.87690865519926, 0.8564227769375892
458.9563335261919, 0.8717741918856278
497.2026946129786, 0.8724034377529496
519.8672048866297, 0.8448610259820644
541.115183268178, 0.8511097387592859
718.1816697810787, 0.8567189522718428
745.0957757310398, 0.8613920164743835
823.0050297967159, 0.7747006970111213
838.586880609851, 0.7897667245252029
951.9094319781075, 0.869594628353954
1011.4037714464421, 0.7839633777279151
1090.7295574042219, 0.8051363189152346
1172.8884071462076, 0.6841729844081164
1199.8025130961687, 0.7005729039048927
1228.1331509382326, 0.7467780670169479
1249.381129319781, 0.783329661060462
1368.3698082564501, 0.8432360246659943
1416.5318925879592, 0.7957644419627707
1433.5302752931975, 0.8062897880669345
1491.608082869429, 0.8730348297855218
1510.022997466771, 0.855562265231173
1606.3471661297885, 0.9035243939089301
1654.5092504612976, 0.7753554540702767
1736.6681002032838, 0.7365237438063393
2359.9421327287077, 0.9325578161647148
2868.4770819937544, 0.9182854838640631
2927.97142146208, 0.8922258566682104
2952.052463627834, 0.883447284336136
##END=


$$ === CHEMSPECTRA PEAK TABLE AUTO ===
##TITLE=X7616
##JCAMP-DX=5.00
##DATA TYPE=INFRAREDPEAKTABLE
##DATA CLASS=PEAKTABLE
##$CSTHRESHOLD=0.93
##MAXX=3997.453
##MAXY=0.9727426713889338
##MINX=373.96442
##MINY=0.6841729844081164
##NPOINTS=48
##PEAKTABLE= (XY..XY)
2952.052463627834, 0.883447284336136
2935.054080922596, 0.8954154206053225
2927.97142146208, 0.8922258566682104
1736.6681002032838, 0.7365237438063393
1654.5092504612976, 0.7753554540702767
1606.3471661297885, 0.9035243939089301
1510.022997466771, 0.855562265231173
1491.608082869429, 0.8730348297855218
1433.5302752931975, 0.8062897880669345
1416.5318925879592, 0.7957644419627707
1386.7847228537917, 0.8720306708632136
1368.3698082564501, 0.8432360246659943
1291.8770860828772, 0.8233096557974464
1262.1299163487097, 0.7892898274006752
1249.381129319781, 0.783329661060462
1228.1331509382326, 0.7467780670169479
1199.8025130961687, 0.7005729039048927
1172.8884071462076, 0.6841729844081164
1090.7295574042219, 0.8051363189152346
1076.56423848319, 0.8300179795112916
1035.4848136121968, 0.8715793438164382
1028.4021541516809, 0.8701722575427987
1011.4037714464421, 0.7839633777279151
980.2400698201718, 0.8780449578923523
951.9094319781075, 0.869594628353954
913.6630708913212, 0.8795257158858462
838.586880609851, 0.7897667245252029
823.0050297967159, 0.7747006970111213
777.6760092494133, 0.8745012830304698
764.9272222204845, 0.8770776343770027
745.0957757310398, 0.8613920164743835
718.1816697810787, 0.8567189522718428
696.9336913995307, 0.8884175367107311
679.935308694292, 0.8938274929576974
668.6030535574664, 0.8889570186955372
617.607905441751, 0.8980652045042865
607.6921821970286, 0.9000304885195535
596.3599270602031, 0.9028398940252332
570.8623530023451, 0.886160130524288
555.28050218921, 0.8739474962971178
541.115183268178, 0.8511097387592859
519.8672048866297, 0.8448610259820644
497.2026946129786, 0.8724034377529496
458.9563335261919, 0.8717741918856278
417.87690865519926, 0.8564227769375892
405.12812162627006, 0.8613947578403809
396.6289302736509, 0.8502790287633298
383.88014324472215, 0.8426253151799263
##END=

##END=

