##TITLE=JPK-849 X19178
##JCAMP-DX=4.24
##DATA TYPE=INFRARED SPECTRUM
##DATE=17/9/2021
##SAMPLING PROCEDURE=Diamant-ATR
##ORIGIN=Lara
##XUNITS=1/CM
##YUNITS=TRANSMITTANCE
##RESOLUTION=4
##FIRSTX=3997.453
##LASTX=373.96442
##DELTAX=-1.4165319
##MAXY=0.822936
##MINY=0.27156794
##XFACTOR=1
##YFACTOR=7.6641887e-010
##NPOINTS=2559
##FIRSTY=0.76429105
##XYDATA=(X++(Y..Y))
3997+997223678+996961981+996683019+996558042+996762422+997352777+997946631
3988+997954175+997238610+996305522+995831123+996050279+996526389+996619014
3978+996230162+995816346+995664772+995611810+995502232+995386354+995294896
3968+995330437+995819068+996890977+998075652+998649675+998374057+997742251
3958+997407916+997480009+997543236+997321513+996965947+996563019+995922658
3948+995152577+994815831+995132745+995716100+996181322+996508580+996746557
3938+996835915+996809085+996758845+996578573+996070811+995458603+995373678
3928+996013650+996779610+996830782+995998096+995104359+994991048+995659717
3918+996469228+996835138+996844470+996992234+997469121+998123325+998868132
3908+999798576+1000909914+1001859645+1002094434+1001344572+999922542+998408509
3898+997422148+997393062+998220072+999214754+999288325+997917701+996379403
3888+996152392+997029097+997903780+998296286+998598580+998650219+997989249
3878+997446335+998053410+999316633+1000101569+1000170396+1000024810+999615504
3869+998965189+998838035+999199667+998929337+997544714+996172223+995888362
3859+996770666+998571205+1000903226+1002476441+1001105351+997953864+996366571
3849+996568152+997589588+998740744+999627559+1000085315+1000202515+1000177395
3839+1000027143+999582996+998858333+998103105+997545103+997453334+998122003
3829+999395181+1000566713+1001149602+1001515589+1002029651+1001901408
3820+1000328969+998643220+997946553+997369186+996416500+996012172+996648722
3810+997858284+998993575+999597306+999851693+1000590200+1001848213+1002156572
3801+1000311471+997842108+996604782+996490148+996706039+996973413+997481487
3791+998277933+999060847+999535557+999739470+999889956+1000122956+1000347790
3781+1000187116+999434611+998920238+999758602+1001645699+1003244112+1003537773
3771+1002486785+1000987995+1000057940+999866625+1000154608+1000886349
3762+1001824959+1002163105+1001244171+999779911+999334287+1000396552+1002372074
3752+1004085432+1003794648+1001497857+999969204+1000157564+1000498898+999587041
3742+998480913+998686382+999987013+1001433153+1001796262+1000019832+996961825
3733+995128546+995504410+997325168+999566587+1001370159+1002152606+1001972334
3723+1001399011+1000867373+1000566947+1000607932+1001085208+1002164738
3714+1003885873+1005489575+1005192414+1002604374+1000240856+999875646
3706+1001087852+1002508016+1002859538+1001953592+1000923757+1000554037
3697+1000568269+1000838054+1001855990+1003839911+1005771959+1005544403
3689+1002422080+999147794+997955108+998399565+999471474+1000602565+1001626334
3679+1002531814+1002949985+1002060059+1000375398+999894700+1000764094
3670+1001786852+1002420291+1003209038+1004315010+1005230133+1005529782
3662+1005246232+1004810718+1004524990+1004175412+1003542750+1003180496
3653+1003711745+1004839026+1005471066+1004419455+1002384672+1001318675
3645+1001437819+1001954369+1002265606+1002348431+1002663246+1003421662
3636+1004093442+1004023682+1003448570+1003296529+1003770073+1003658706
3628+1002135496+1000803680+1000738352+1001383457+1001982444+1002091478
3619+1001758855+1001589937+1001863300+1001996132+1001423742+1000499675
3611+1000198860+1000838443+1001668563+1001883520+1001697338+1001760254
3602+1002159450+1002486707+1002610440+1002984904+1003859509+1004676953
3594+1004708994+1004152392+1003814247+1003858653+1003465213+1002040617
3585+1000639273+1000426882+1001196886+1002120487+1002520226+1002230921
3577+1001722769+1001749989+1002618683+1003926547+1005101345+1005736962
3568+1005279984+1003366445+1001169356+1000285107+1000631729+1001295888
3560+1001696561+1001747189+1001572128+1001388668+1001472504+1001891531
3551+1002352709+1002525670+1002280694+1001561396+1000534905+999789088+999744059
3541+1000171718+1000597744+1000774282+1000707089+1000513207+1000349967
3533+1000373687+1000607698+1000843653+1000818067+1000569124+1000383409
3524+1000371899+1000451924+1000656305+1001042046+1001407877+1001473204
3516+1001337106+1001533087+1002408004+1003464513+1003684681+1002824775
3507+1001820993+1001377547+1001110483+1000498975+999857759+999793754+1000267064
3497+1000748074+1000853919+1000651794+1000479844+1000539183+1000714399
3489+1000753829+1000542916+1000231368+1000093948+1000269397+1000677303
3480+1001117483+1001380113+1001307476+1000877795+1000231057+999553677+998951735
3471+998483635+998266189+998478425+999121896+999772056+999868491+999411435
3461+999045292+999250606+999785744+1000093870+999930008+999447676+998939447
3451+998643531+998668495+998957956+999289258+999403425+999238241+999000186
3441+998933381+999048403+999174080+999202077+999098721+998810659+998367991
3431+997940643+997629017+997369731+997160606+997164184+997502640+998111193
3421+998801327+999303645+999292991+998626344+997644571+997009499+997039907
3411+997392518+997613463+997703754+997866994+998021524+997888303+997364287
3401+996615903+995948089+995656062+995804292+996082943+996056890+995638097
3391+995219537+995246679+995725044+996287479+996652766+996855591+997046984
3381+997272051+997476665+997565634+997457145+997213724+997073970+997220956
3371+997569445+997893747+998095795+998249002+998432229+998601924+998645864
3361+998558839+998533641+998783206+999280081+999756891+999994090+999980247
3352+999769179+999360418+998866187+998622611+998883530+999486561+1000068050
3342+1000470745+1000655371+1000453013+999848193+999342453+999513859+1000268386
3332+1000998339+1001386801+1001597248+1001767176+1001769898+1001504779
3323+1001081553+1000686013+1000456279+1000433104+1000505897+1000489254
3315+1000303616+999978303+999524358+998987820+998595780+998619811+999059447
3305+999645213+1000171873+1000608398+1000873362+1000795514+1000418794
3296+1000095192+1000152353+1000632118+1001379647+1002192658+1002857516
3288+1003194106+1003176608+1003017334+1003066252+1003538006+1004289423
3279+1004894554+1004996355+1004621580+1004114284+1003781816+1003697513
3271+1003794882+1003927558+1003896372+1003654195+1003412718+1003397631
3262+1003646263+1004078355+1004479027+1004509747+1004129139+1003867908
3254+1004223163+1004897820+1005104845+1004613881+1004088931+1004322864
3245+1005364831+1006491490+1006941469+1006578826+1005892892+1005483975
3237+1005525349+1005674590+1005536237+1005152207+1004924885+1005120632
3228+1005648615+1006336805+1007150982+1007994868+1008550537+1008556059
3220+1008127933+1007643580+1007383982+1007382349+1007485006+1007486561
3211+1007316400+1007144294+1007207210+1007512148+1007795854+1007828595
3203+1007695141+1007715051+1008103358+1008754373+1009345661+1009662264
3194+1009815160+1010054771+1010340966+1010270739+1009575783+1008525184
3186+1007667144+1007323088+1007480962+1008021932+1008865040+1009903741
3177+1010881547+1011437372+1011380833+1010895157+1010393227+1010217000
3169+1010456766+1010914133+1011231280+1011216115+1011027133+1010971294
3160+1011213937+1011686548+1012065522+1011936113+1011252978+1010523259
3152+1010271361+1010505061+1010932409+1011461169+1012173934+1012951715
3143+1013428992+1013399128+1013107100+1012988578+1013179505+1013471765
3135+1013707410+1013959152+1014290454+1014599669+1014740822+1014602935
3126+1014101705+1013323380+1012666843+1012593427+1013134709+1013774137
3118+1013948809+1013648849+1013384352+1013541681+1013996482+1014443272
3109+1014811515+1015146627+1015314067+1015106809+1014516299+1013649782
3101+1012459818+1010845617+1009038701+1007644591+1007210321+1007818252
3092+1009062888+1010270117+1010805021+1010427835+1009412543+1008215114
3084+1007051981+1005879049+1004670109+1003535518+1002592708+1001912607
3075+1001580294+1001571817+1001506645+1000688735+998441717+994493551+989365453
3065+984415372+980910186+978822364+977045467+974883064+972873401+972165380
3055+973432025+976340479+979828945+982888274+985128604+986632371+987470191
3046+987581480+987100315+986580731+986734639+987852510+989532971+991139161
3036+992489254+993875199+995446548+996937406+998069508+998890296+999608194
3026+1000391652+1001359737+1002524037+1003758719+1004927373+1005950986
3017+1006784217+1007492938+1008219002+1008942500+1009526632+1010047071
3009+1010715430+1011480223+1012108763+1012621814+1013293283+1014222560
3000+1015169103+1015857448+1016292106+1016666415+1017048345+1017337806
2992+1017489303+1017571739+1017660631+1017790585+1017882898+1017677818
2983+1016945377+1015726949+1014184686+1012352806+1010179592+1007602050
2975+1004440764+1000377031+995075817+988321154+980211186+971307651+962459954
2965+954383739+947328726+940981501+934673784+927849204+920389941+912609098
2955+905215707+899280820+895780144+894896051+895829839+897299465+898218555
2945+898120720+897143458+895519847+893028786+889125649+883624487+876976679
2935+869809211+862406642+854693382+846589325+838336571+830427329+823154948
2925+816412883+810202612+805183471+802355664+802236598+804623835+809037612
2915+815013795+821994771+829339478+836576940+843454714+849738323+855200911
2905+859844110+863924408+867681570+871114197+874035250+876318743+878081796
2895+879628259+881263146+883227625+885751583+889007826+892898365+896931456
2885+900510135+903445654+906036728+908578573+910939291+912596033+912873517
2876+911278837+907986585+904026909+900734036+898880769+898255962+897915251
2866+896753440+893877882+888610109+880555981+870056520+858497284+847843838
2856+839685886+834617128+832258587+831619160+831640624+831932574+833208318
2846+836802318+843572458+853201202+864408528+875706457+886046099+895002285
2836+902598657+909061527+914607873+919302479+923152188+926317440+929050989
2826+931448881+933462511+935147949+936766427+938617128+940762267+942921638
2816+944772571+946327356+947820157+949330146+950800238+952285262+953884065
2806+955551383+957160762+958604101+959764279+960622708+961423120+962447433
2796+963594623+964484238+965008410+965458856+966088329+966891852+967824551
2786+968876706+969953669+970964683+971927325+972767477+973257586+973374086
2776+973455978+973799878+974296909+974611645+974597258+974432073+974366980
2766+974427174+974461160+974438762+974510855+974750621+975022506+975176258
2757+975238785+975321610+975427145+975463930+975436944+975515259+975877824
2747+976533894+977292777+977880021+978110999+978025062+977880332+977984544
2737+978440900+979024567+979408752+979528829+979615854+979904538+980454141
2727+981203380+982038789+982813226+983396192+983729282+983842516+983821907
2717+983729516+983575142+983391759+983276115+983317411+983539523+983908776
2707+984330369+984667348+984842487+984927334+985085441+985401500+985799528
2697+986169482+986506461+986850206+987183918+987495388+987848932+988284213
2687+988697640+988891443+988765611+988464018+988273558+988335385+988532533
2677+988680375+988719182+988725870+988821917+989028086+989193659+989176394
2667+989060749+989053983+989221812+989482187+989791479+990184530+990651386
2657+991079045+991336853+991393548+991333743+991284981+991337398+991520003
2647+991828751+992254388+992755617+993224806+993533243+993633955+993634889
2638+993769431+994223299+994919499+995515531+995688959+995403230+994911255
2628+994565411+994581431+994894535+995263322+995524163+995676282+995746042
2618+995725744+995669594+995687248+995779250+995801181+995677060+995567715
2608+995754519+996356383+997170872+997822587+998113293+998168743+998197829
2598+998298697+998579059+999149271+999836139+1000237978+1000260998+1000305172
2588+1000769772+1001622601+1002505061+1003057464+1003158798+1003020056
2580+1003004035+1003231436+1003397398+1003102648+1002380784+1001760332
2571+1001735601+1002319112+1003176841+1003989074+1004563641+1004865779
2563+1005057716+1005273996+1005355654+1005100957+1004675397+1004457329
2554+1004624224+1005178338+1006117181+1007267327+1008203215+1008640206
2546+1008719688+1008709966+1008659416+1008488943+1008164641+1007643424
2537+1006878164+1006011880+1005375408+1005216290+1005512828+1006000370
2529+1006321095+1006319073+1006202107+1006232981+1006372346+1006486979
2520+1006659474+1006944502+1007067924+1006751709+1006191063+1005922833
2512+1006248769+1006938203+1007498149+1007618460+1007305434+1006760498
2503+1006282521+1006102327+1006192541+1006443350+1006946991+1007733093
2495+1008387375+1008440803+1007998212+1007551266+1007364384+1007402025
2486+1007646302+1008160052+1008880128+1009522588+1009750922+1009460372
2478+1008928190+1008662837+1008992584+1009740501+1010394005+1010648547
2469+1010641548+1010623583+1010629882+1010594341+1010597996+1010855416
2461+1011467002+1012218263+1012703084+1012715060+1012435476+1012154414
2452+1011952133+1011781039+1011685770+1011772095+1012047091+1012411912
2444+1012745313+1012936083+1012950082+1012950627+1013211079+1013778025
2435+1014297064+1014338827+1013930455+1013634305+1013950131+1014709558
2427+1015252550+1015184113+1014727367+1014332839+1014209417+1014367291
2418+1014864088+1015667377+1016326636+1016216280+1015286614+1014228237
2410+1013693878+1013679879+1013805011+1013848796+1013838764+1013861395
2401+1013967085+1014176442+1014505178+1014934392+1015339575+1015551422
2393+1015543411+1015455531+1015418046+1015460197+1015559821+1015643424
2384+1015602750+1015482051+1015565265+1016048452+1016633907+1016743252
2376+1016266909+1015851926+1016227090+1017355771+1018389883+1018468042
2367+1017636911+1016888760+1017004249+1017568862+1017599892+1016869240
2359+1015993391+1015500171+1015300690+1014923193+1014160344+1013469899
2350+1013442057+1014116404+1015055169+1015772212+1015996190+1015599095
2342+1014466759+1012787698+1011295752+1010765669+1011292330+1012291056
2333+1013106245+1013417171+1013196225+1012604937+1011938679+1011487922
2325+1011413729+1011746353+1012425677+1013327268+1014267434+1015020562
2316+1015425123+1015473574+1015259939+1014943180+1014753576+1014810737
2308+1015025461+1015439666+1016359300+1017736535+1018819020+1018944385
2299+1018360564+1017819438+1017667630+1017735057+1017864389+1018115976
2291+1018470375+1018710919+1018730984+1018689454+1018726473+1018810309
2282+1018927743+1019103426+1019213471+1019120069+1018994858+1019230503
2274+1020002840+1021045117+1021891259+1022297531+1022332061+1022137168
2265+1021846463+1021649860+1021648149+1021747461+1021851985+1021994849
2257+1022190363+1022328017+1022292398+1022195807+1022400654+1023085733
2248+1023905355+1024416617+1024578301+1024538716+1024380220+1024270020
2240+1024268697+1024067428+1023569153+1023403503+1024229890+1025895808
2231+1027549594+1028182100+1027314339+1025718647+1025000827+1025896741
2223+1027441338+1028223318+1027958199+1027395687+1027023167+1026473875
2214+1025378169+1024286973+1024083060+1024724198+1025415032+1025928705
2206+1026835663+1028430810+1030146579+1031076323+1030775663+1029767915
2197+1029245998+1029756094+1030351970+1029774137+1028259248+1027390865
2189+1028349540+1030810348+1033326218+1034614484+1034672423+1034480952
2180+1034603052+1034786356+1034902312+1035250878+1035796204+1035839911
2172+1034557867+1031727572+1028286935+1026213733+1027204761+1031128507
2163+1035978886+1039651046+1041804195+1043626431+1045499374+1046205140
2155+1045059194+1042874237+1040581879+1038556273+1037363431+1037761460
2146+1039469219+1040814101+1040218147+1037823910+1035230036+1033691583
2138+1033092285+1032726920+1032327025+1032024654+1031901777+1031879068
2129+1031768479+1031422012+1030932214+1030524465+1030293642+1030250946
2121+1030472903+1031010451+1031776256+1032619442+1033342239+1033619879
2112+1033171533+1032185017+1031343619+1031096232+1031108520+1030939525
2104+1030945124+1031697863+1032790614+1033266024+1033150691+1033506723
2095+1034805954+1036131005+1036376915+1035626353+1034839396+1034528859
2087+1034348276+1033928083+1033432919+1033238338+1033619335+1034651814
2078+1035902983+1036591794+1036570874+1036574374+1037066738+1037611441
2070+1037770948+1037866139+1038386345+1039187301+1039686975+1039663878
2061+1039407702+1039147016+1038970322+1039268727+1040216591+1040779882
2053+1039654156+1037284883+1035485045+1035057541+1035172952+1035185396
2044+1035428117+1036213519+1037452945+1039063569+1040879739+1042348820
2036+1042725151+1041718414+1040279896+1040471522+1043458603+1047613094
2027+1049827837+1048928345+1046590958+1044860569+1044257071+1044663576
2019+1046396455+1049248448+1051596723+1052051291+1051238746+1050633926
2010+1050537880+1050283260+1049509134+1048036553+1045547047+1042699020
2002+1041390301+1042685721+1045266452+1046950646+1047255739+1047322077
1993+1047625304+1047109142+1045061760+1042568988+1040999505+1040245444
1985+1039319666+1038082263+1037551636+1038514899+1040553959+1042929687
1976+1045847396+1049605103+1052855358+1053464222+1051118280+1047932730
1968+1046438606+1047321533+1049081864+1049845180+1049042901+1047418979
1959+1046055510+1045686023+1046591347+1048372210+1049746411+1049417132
1951+1047407469+1044983523+1043203050+1042171037+1041791752+1042374251
1942+1043812847+1044820361+1044082321+1041678751+1039015195+1037734551
1934+1038359669+1039931096+1041261125+1042284427+1043608700+1045147541
1925+1046058776+1045769159+1044510447+1042997814+1041907940+1041533321
1917+1041560385+1041439763+1041001916+1040389086+1039834428+1039650812
1908+1040005834+1040750251+1041696638+1042815598+1044062023+1045232233
1900+1046020202+1046261290+1046209650+1046361614+1046821392+1047166303
1891+1047026472+1046518865+1046201873+1046555028+1047498693+1048567880
1883+1049387735+1049871311+1050037661+1049937804+1049800384+1049948225
1874+1050468042+1051140367+1051686781+1051825679+1051213004+1049979022
1866+1048969097+1048760906+1049111883+1049330729+1048854230+1047606872
1857+1046052088+1044839571+1044273791+1044292534+1044793531+1045634772
1849+1046560317+1047346964+1047636191+1046788962+1044829227+1042715974
1840+1040898404+1039322621+1038275833+1038101627+1038504322+1038882364
1832+1038989531+1039095143+1039828517+1041590404+1044155658+1046826447
1823+1048915124+1050393383+1051686314+1052940050+1053909379+1054443350
1815+1054676117+1054655585+1054225516+1053467410+1052904509+1052948293
1806+1053553424+1054577037+1055990669+1057503690+1058423091+1058576376
1798+1058731062+1059483878+1060672598+1061777247+1062260512+1062008536
1789+1061573411+1061477598+1061841019+1062551762+1063424656+1064283396
1781+1065011404+1065548019+1065921472+1066300447+1066806577+1067212382
1772+1067150555+1066883802+1066960017+1067366445+1067836178+1068265859
1764+1068769811+1069561435+1070589947+1071519147+1072276008+1072949499
1755+1073390301+1073493658+1073436497+1073399945+1073449951+1073623145
1747+1073741823+1073530210+1073007127+1072410162+1071905899+1071583619
1738+1071450009+1071465641+1071712406+1072133766+1072257654+1071950461
1730+1071315311+1070232748+1068657977+1066372074+1062816959+1058079580
1721+1052940283+1047233963+1039760002+1031141417+1024348023+1018710997
1713+1009861123+993337651+966221705+926982376+875637863+820505158+778073047
1703+754440434+742307952+735538123+737950014+755418084+785384701+816471133
1693+841395589+862742688+883632264+902605812+917798012+931499743+946804399
1683+960515152+968889227+974216416+978830374+983485084+988208853+992542138
1673+996016683+998797050+1001058766+1002256118+1002357531+1002583609+1004146481
1663+1007578875+1012129372+1016266909+1019360457+1021639438+1023491850
1655+1025377158+1027731266+1029968251+1031421623+1032320726+1032798080
1646+1032935422+1033173633+1033753644+1034399138+1034754859+1034798877
1638+1034768702+1034714341+1034521782+1034327667+1034079268+1033151313
1629+1030395133+1024948643+1017534798+1010166993+1005356121+1004915552
1621+1007868725+1011950578+1015588674+1017454617+1016916291+1014434329
1612+1010007020+1003126290+994371763+986701120+983936851+987677371+996463551
1602+1007152382+1016865351+1024405807+1030083429+1034608651+1038472903
1594+1041863611+1044627024+1046460149+1047411124+1047978925+1048555048
1585+1049071132+1049294721+1049177677+1048804146+1047913676+1044823783
1577+1035364967+1017172389+995077762+973386296+955224670+948509280+957953786
1567+975379860+991678654+1003178552+1008943588+1007191812+988121595+944815501
1557+903763968+874277194+850704619+837253231+838949635+853458000+873328862
1547+893291027+912966997+932748346+951091799+968020221+984609954+996864224
1537+1003938290+1008657705+1011851576+1011549205+1005340411+991963138+969478415
1527+938450155+908249371+890746227+889504468+899647429+910556350+917012609
1517+922885747+932314699+945048889+958892863+972223474+984042152+994608807
1507+1004828372+1012189955+1015447132+1017521577+1019911148+1022434329
1499+1023455686+1019516775+1008403240+993083031+977529588+963795037+953931427
1489+948067622+940130383+924753712+903474973+882542779+870335016+872392430
1479+886626266+906404582+925889159+940758223+946679500+941012609+927745459
1469+912928267+899715167+890924943+890209378+897537909+908317109+919404280
1459+930357531+941006621+949705310+956259793+962568833+969400956+976446714
1449+983396814+990404465+997504507+1004353506+1010719785+1016361789+1020921307
1439+1024419339+1027244657+1029326646+1030013591+1029196459+1026913744
1431+1022390155+1014703647+1003492200+986885513+960989862+925057094+883077295
1421+835039032+777765232+724490226+697823948+698046293+714425890+740400635
1411+771426095+802622649+830509766+854294187+874259073+890187447+902652086
1401+913602847+923950189+931928724+935656645+936598677+937736612+939395376
1391+939898938+938900990+937704104+936738352+933871583+927512692+919460508
1381+913384002+911230464+910516454+905207930+888816045+859162842+822784917
1371+788614036+759682698+736483343+720730342+712728475+710121070+710889052
1361+716016760+728283629+748719337+775099265+802357764+824734075+839131773
1351+846415275+849724169+852486182+857377469+865549419+876171368+887371072
1341+897942159+907519808+915176919+918953523+916760011+906517815+886330272
1332+855904421+817896430+777883676+743126173+720393674+712951132+718292787
1322+729445673+739722322+746960406+753708459+763270087+775732471+787422128
1312+793589548+792135399+784711910+774425385+763107703+750600601+736080182
1302+719334831+700696240+680666648+660322164+641894330+628641645+623905471
1292+629524571+644319714+663962593+682656635+695802775+702323584+705029213
1282+708359027+715080094+724667465+734571515+742897062+750131958+758647341
1272+770501250+785590637+801900163+817271235+830546551+841342939+849467916
1262+854908261+858382572+861603197+866409325+873381591+881457417+888899959
1252+894537608+898106021+899663294+899078772+896121323+890727017+883056141
1242+873390379+862008225+849214618+835616554+822282210+810416791+800770238
1232+793116705+786003364+777268979+765573800+751911809+739636541+732731392
1222+733568745+741774136+754702131+768840309+781406205+791459653+799805731
1213+807900688+816909914+827400975+839145849+850996958+861404416+869206957
1203+873519711+872738041+864390563+847318966+824901670+805297326+796700828
1193+801673540+816354245+834651891+852353039+867929113+881326296+892880322
1183+902871398+911427222+918582714+924441231+929313542+933637027+937714448
1173+941568901+944987062+947584668+948928540+948845714+947738498+946497828
1163+945856145+945618401+944465067+940342307+930883880+913938582+888846453
1153+858173215+828300389+807437799+801677973+811783605+832806868+856169229
1143+872865818+876719882+866237142+844241983+816596266+790794716+772717315
1133+762042794+752049696+736887749+719429244+710044699+716830627+737894719
1123+763330126+783462608+794673978+799019239+800718365+803596178+810153306
1113+821061993+834994703+849517144+862575171+873213762+881162434+886199229
1103+888221569+888049307+887842594+889934771+894881119+901048384+906223921
1094+909201980+909892036+908584095+905436341+900507880+894092450+886874275
1084+879675621+873113050+867567403+863459186+861390418+861748239+864076138
1074+867084139+869469432+870673628+870886719+870580304+870113915+869594642
1064+868926129+867960144+866703142+865462861+864792792+865291144+867424617
1054+871380638+876935461+883478045+890186358+896193649+900753868+903527857
1044+904916835+906112321+908503292+912682902+918012814+923138967+926651075
1034+927276037+924117862+917397961+909059972+902223493+899456347+901239465
1024+905934927+910919849+913633722+912186105+905794396+894983776+881611635
1014+868841748+860405923+858818475+863982736+873723313+885511895+897516367
1004+908550343+917683301+923877629+925989871+923850565+919478395+915902282
994+913876443+910405320+901092324+883927947+861404105+839581130+824266831
984+816105146+807431889+784236034+735929930+668373804+605634266+572927684
975+576797730+604418638+639479756+673604869+704594244+730829752+749867694
965+760151808+762992370+763224825+767026005+777724480+793571506+809831570
955+822664295+830636609+833233360+829713087+820769655+810747860+806332761
945+811921880+826517737+845267774+863363140+878312229+889704338+898117998
935+904340790+908809240+911002285+909366464+902797127+892881955+883832367
925+878965889+877506451+875769140+871383827+865834681+863123296+866383584
915+875553560+887792121+899836022+909904479+917711998+923426795+927137761
905+929029836+929243082+927069012+920988773+910869531+900108763+893872127
895+894472358+899689581+905988510+911892911+917836275+924376915+931413418
885+938236053+943816385+947544928+949819088+951592484+953578816+956225263
875+959681920+962836829+963276387+959838783+954680200+951157359+950397310
866+951762879+955554571+962619694+971475712+977715459+975847416+959981803
856+924205353+867322038+799954972+743590462+717530871+725581266+756210175
846+793967901+828902798+857597714+880041686+897246504+910385956+920630640
836+929058844+936433493+943117152+949237755+954852072+960040753+964946349
826+969641655+974027279+978022652+981779736+985620268+989801900+994241575
816+998418619+1001637066+1002897101+1000090292+990936803+977059388+966166954
806+966646875+979279109+996710316+1011086627+1019594779+1023045915+1023125474
796+1022447705+1024313726+1030048821+1037542692+1043735776+1047697786
788+1050162794+1050913277+1047848815+1038217272+1020558664+996973413+974003714
778+959031372+953469393+949116666+932055101+891340936+825159712+740425288
768+649901213+570807898+519172991+496904275+486128224+464308165+426111581
758+386004336+360642578+354333577+361474720+376853219+399437371+428072677
748+458449455+486582831+512721592+539301195+566520770+591765445+612378820
738+628090175+641317585+655138928+670608767+686349170+700433998+711678654
728+719375583+723064307+723175907+721575394+720676680+721280645+721558596
718+719521558+716648955+717538648+725526593+739516153+755489166+770057648
708+781800967+790538230+796450485+799268804+797905179+791429633+780478249
698+767563709+756462229+751179757+754202845+764950393+780187311+796039469
688+809749289+820356306+828523590+835673560+842776013+849734046+855946573
679+861213335+865838647+870078607+873801162+876744924+879052914+881436341
669+884643045+888206014+891113458+893739295+896737808+900013805+903087288
659+905856534+908512313+911006096+913195409+915239057+917339867+919268649
649+920637406+921618868+922895623+924837859+927131229+929280567+931100704
639+932213830+930805254+923645174+909139764+891129168+877852451+875371967
629+882318256+891742153+897313464+897371869+894904217+894892551+900537510
619+910861910+921098118+923202272+907408285+871270982+829371131+803666716
609+797508084+789853695+764166779+731715089+716532144+726948002+751844227
599+778103610+801555018+822908028+841685750+856381620+866779590+874111932
589+879804875+884729370+889155046+893126154+896932078+900853958+904510796
579+907245279+909186193+911139939+913439763+915560404+916980801+917922911
569+919166070+921354216+924403123+927547144+929999476+931434027+931749930
560+930744516+928320415+924625002+919902555+914960873+911710773+911961582
550+915026200+916955604+912454568+897294877+869431947+830338360+787825679
540+755698369+745173788+755707623+777239660+799682542+817392401+828073688
530+832680802+835627209+841915484+853156407+866677478+878941002+888335735
520+894323039+895260016+887251461+865284067+826513071+774949246+724695695
510+694566460+694686460+718926537+751812341+781738440+805338156+822679072
500+833985011+840195127+843119835+844904120+847206355+849359737+848086870
490+841247437+831129518+822709636+820443253+826375418+838790906+852581995
480+861543236+859961155+844191121+815138383+778791800+745743223+728562202
470+731630553+746605695+761818193+771578136+778081679+786293681+798096883
460+811954155+826140862+839514636+850336610+857657520+862115859+864405962
450+864811845+863470307+859748608+851705212+837436147+818400926+801638233
441+795297229+801042356+814434484+830079152+844638067+857239038+868101686
431+877335045+884924807+891316750+897313231+902363169+903758991+899560793
421+890830063+881256303+876230940+876850225+879655556+882312268+884255049
411+885929599+888375476+892863368+899568492+906132541+909675679+910266345
401+910200318+910855533+912530550+916074155+920219313+921088708+917452245
391+912419105+909933099+911079278+913728913+914653447+912637095+910440084
381+911182790+914703064+919698330+926803816+934881741+933689600
##END=
