##TITLE=X7548
##JCAMP-DX=4.24
##DATA TYPE=INFRARED SPECTRUM
##DATE=29/10/2018
##SAMPLING PROCEDURE=Diamant-ATR
##ORIGIN=ComPlat
##XUNITS=1/CM
##YUNITS=TRANSMITTANCE
##RESOLUTION=4
##FIRSTX=3997.453
##LASTX=373.96442
##DELTAX=-1.4165319
##MAXY=0.9334709
##MINY=0.45754856
##XFACTOR=1
##YFACTOR=8.6936253e-010
##NPOINTS=2559
##FIRSTY=0.84341711
##XYDATA=(X++(Y..Y))
3997+970155811+970795351+971577636+971561867+970767173+969953281+969698233
3988+970120914+971062124+972090132+972677360+972674206+972378227+972098017
3978+971889796+971634062+971211999+970702588+970359576+970304658+970438833
3968+970720071+971231059+971882871+972357864+972496564+972563822+972917667
3958+973451554+973558784+972790966+971491043+970545788+970531528+971293655
3948+972244464+972880507+973118483+973315460+973827476+974403254+974491972
3938+974060242+973420907+972604479+971566049+970780885+970881807+971689734
3928+972375141+972414633+971982765+971671702+971771116+971960688+971842489
3918+971385527+970885098+970741737+971236269+972400509+973976117+975378333
3908+975872797+975085919+973418439+971877455+971168531+971114710+971363588
3898+971912353+972775471+973720040+974361637+974426153+974152045+974148412
3888+974479494+974563825+973894940+972685039+971565981+970849583+970816605
3878+971648734+972800359+973374560+972929528+971925653+971303871+971707971
3869+973058218+974573423+975474113+975369283+974340109+972988971+972019582
3859+971805740+972281761+972994387+973209738+972600777+972317001+973113821
3849+974483882+975750484+976356977+975976325+974779998+973488783+972808312
3839+972909920+973538353+974348953+975046908+975326844+975049993+974575274
3829+974499446+975026476+975883150+976735025+977332399+977216942+976160686
3819+975011599+974558751+974637734+974914653+975350292+975811709+975905433
3809+975304013+974256944+973689462+973965627+974156296+973301474+971997643
3799+971942931+973477059+975592999+977239704+978110433+978520636+978727074
3789+978755938+978612782+978293218+977781065+977234631+976831422+976415529
3779+975795255+975272954+975238605+975604860+976117150+976590292+976750519
3769+976397909+975872386+975781885+976327085+977219410+977965357+978107691
3759+977438121+976356840+975628102+975463623+975436267+975063568+974356221
3750+973884039+973783802+973594367+972967923+972058114+971586069+971674650
3740+971601153+970667896+968951052+967651129+967988177+969858255+972527965
3730+975304561+977402606+978173510+977650181+976628206+975830152+975397462
3720+975304424+975557141+975926412+975953974+975362427+974487379+974361500
3710+975618778+977448748+978817780+979444157+979531915+979408231+979286191
3700+979115405+978788162+978413817+978272992+978658307+979706815+981158464
3690+982192232+982070878+981243274+980477033+979756591+978868447+977943966
3680+977337199+977200145+977245532+977062336+976738864+976476685+975831044
3670+974583433+974006010+975327803+977540689+978970398+978979997+978156712
3660+977395339+976951473+976714799+976814144+977197402+977227295+976445284
3650+975138643+974004638+973330338+973317791+974289236+975940399+977440658
3640+978208065+978343747+978175978+977667870+976563347+974919932+973154272
3631+971604581+970592958+970677426+971731076+972999804+974123181+975097163
3621+975885893+976300140+976316389+976101998+975626251+974888120+974262703
3611+974131271+974567595+975509628+976571506+977058086+976709931+975891377
3601+975041423+974269354+973443807+972423134+971303802+970582469+970554084
3591+970716780+970399204+969733748+969738822+970907586+972506231+973644417
3581+973998674+973932580+973969809+974037616+973791756+973458479+973468146
3571+973535679+972947423+971608557+970453230+970356285+970919242+971333489
3561+971350561+971278983+971545207+972087252+972286835+971691379+970694498
3551+970176586+970376099+970692715+970496904+969688223+968793909+968725005
3541+970067299+972299724+973935529+973881502+972589944+971376477+970855274
3531+970681403+970374796+969814513+969114296+968453708+968155672+968562583
3521+969502902+970214774+970147858+969583462+969213368+969254916+969252653
3512+968762440+968063183+967969665+968795418+969863603+970315354+970035486
3502+969550004+969159547+968690725+968062360+967532998+967337735+967412399
3492+967549041+967606222+967606084+967795108+968398585+969108880+969192731
3482+968382541+967290222+966566900+966188922+965989340+966167325+966780606
3472+967340684+967408834+967079945+966554148+965777554+964805629+964050014
3462+963856397+964109868+964459668+964774365+965198416+965800659+966376094
3452+966720341+966890099+966956123+966719038+966015942+965116897+964459120
3442+964167803+964032943+963741900+963111478+962266460+961583521+961391480
3432+961742926+962385551+962885637+963002054+962958244+963010625+962861504
3422+962070512+960959133+960405020+960701411+961251067+961377631+960974833
3412+960406049+960024642+959880115+959890330+960090598+960521437+961039075
3403+961426378+961524969+961199646+960414207+959364259+958341256+957519000
3393+956935749+956557702+956362165+956435937+956788410+957076574+956943496
3383+956715873+957160218+958326721+959235021+959066703+958192478+957595583
3373+957705829+958147981+958276534+957746829+956829959+956112259+955716728
3363+955272588+954856695+955136700+956192612+957071157+957022342+956460002
3353+956178969+956273103+956345161+956250273+956122269+955971914+955654063
3343+955133477+954622421+954405424+954428872+954162375+953209989+951963613
3333+951259694+951493282+952318966+953064639+953338405+953320579+953413479
3323+953662768+953734621+953344987+952541036+951710279+951319068+951492391
3313+951975131+952469870+952717033+952490575+951940645+951597153+951711170
3303+951961076+951872769+951257637+950375321+949751756+949578982+949514123
3293+949352455+949378234+949750591+950160245+950312451+950185132+949760463
3284+949028708+948290509+948051298+948481246+949122980+949320574+948939030
3274+948418444+948102651+947908074+947708697+947555120+947393452+947047149
3264+946638866+946572705+946887675+947049274+946643871+945936181+945438975
3254+945171037+944681166+943743727+942768237+942388681+942724975+943201133
3244+943220467+942954449+943099799+943771838+944145223+943549219+942440377
3234+941745233+941656858+941639923+941322621+940897884+940735188+940884240
3224+941050227+941000452+940898090+941128593+941813178+942568449+942834124
3214+942502493+942083858+942069940+942342403+942455460+942281109+942083172
3204+942044915+941977382+941636221+941226704+941294100+942073574+943212583
3194+944094830+944245116+943684765+943052766+942966928+943298216+943583911
3184+943877971+944529303+945436575+946154823+946507092+946675067+946822542
3174+946933474+946993534+947123595+947472298+948132201+949146565+950373744
3165+951410392+951934337+952013663+951905542+951763551+951580561+951198606
3155+950580457+950177316+950527596+951455231+952273167+952626258+952539528
3145+952030323+951205393+950299218+949431232+948825698+949012185+950093809
3135+951208821+951421224+950781273+950014415+949606063+949562870+949603869
3125+949325785+948514841+947436783+946594507+946183002+945971765+945699782
3115+945332293+944885205+944233941+943244532+942020439+940961509+940477397
3105+940525048+940562551+940148303+939392963+938648661+938078025+937718764
3095+937600153+937604130+937473794+937083543+936630490+936526071+937000104
3085+937756678+938208292+938055057+937441228+936678209+936044771+935675979
3075+935509170+935448082+935470021+935444654+935140790+934572348+934077129
3065+934047991+934695827+935843543+936911180+937472903+937707383+937901274
3055+937873781+937471121+937193790+937681947+938837548+939926576+940466565
3046+940698782+941122560+941811806+942463002+942961374+943470853+944006797
3036+944410418+944731833+945174808+945714043+946127399+946322730+946388343
3026+946424064+946404250+946191161+945812223+945605579+945721584+945714180
3016+945188177+944565161+944588951+945375693+946440724+947271962+947507127
3006+946955757+945733788+944135487+942340414+940377846+938242093+935952144
2996+933613175+931315548+928879084+925936501+922352046+918344500+914230820
2986+910215115+906308560+902349829+898206668+893939000+889731392+885899225
2976+882968914+881334824+880735049+880420764+879907034+879297455+878931406
2966+878980496+879368965+879895447+880391077+880830692+881310827+881889965
2956+882481580+883034390+883771424+885002032+886651206+888263494+889542094
2946+890591356+891530784+892183419+892311697+891904031+891085958+890011945
2936+888985924+888344053+887983284+887353342+886233256+885269626+885454125
2927+887148001+889693889+892006051+893614636+894988811+896681110+898484753
2917+899775008+900376017+900688862+901129369+901712414+902125976+902116789
2907+901788106+901473752+901378658+901452978+901513381+901373584+900987173
2897+900589243+900599870+901267314+902455619+903851253+905297966+906793425
2887+908267768+909564811+910567795+911179087+911279118+910846291+909998599
2877+908856710+907514622+906176716+905199854+904923827+905417674+906378012
2867+907347606+908058862+908553394+909098457+910028697+911441472+912987118
2857+914197431+915038953+915895147+916986094+918065455+918789189+919210292
2847+919703180+920455503+921283038+921962687+922506515+923074408+923800816
2837+924726873+925793139+926898073+927971469+928954707+929804319+930614577
2827+931631821+932994409+934489389+935708546+936460115+936870592+937085669
2817+937158275+937282440+937749891+938529296+939246653+939704300+940104561
2808+940663541+941268869+941664400+941802002+941790895+941584251+941054272
2798+940417749+940193554+940611641+941372603+942047863+942478017+942799638
2788+943259205+943955993+944728611+945367739+945834094+946158046+946299282
2778+946261436+946194863+946257665+946471577+946790181+947226231+947825663
2768+948585802+949499930+950606442+951836020+952871845+953362675+953300696
2758+953065736+953067725+953373577+953702534+953786384+953674492+953602983
2748+953654609+953733798+953825259+954033205+954314169+954422291+954279820
2738+954186028+954423936+954835030+955047227+954975032+954766674+954414406
2728+953811272+953086373+952498666+952057953+951581246+951063540+950713466
2718+950654366+950794848+950972559+951103648+951228978+951474976+951942290
2708+952623516+953440904+954267890+954874247+955024739+954737330+954295041
2698+953938522+953735169+953747373+954047534+954547278+955079314+955637403
2689+956291067+956934309+957394013+957739699+958229364+958935340+959640699
2679+960149629+960500595+960802539+961087274+961438376+962011343+962793011
2669+963567137+964173768+964606938+964901066+965117308+965318262+965439821
2659+965380584+965251414+965323472+965768778+966577870+967537317+968208190
2649+968245556+967827880+967473830+967450313+967632481+967828017+967960341
2639+968019098+968056395+968173361+968444727+968934460+969727235+970779651
2629+971816710+972566565+973040186+973378742+973525943+973348095+973045740
2619+973053350+973445521+973850924+974083347+974388445+974893467+975338910
2609+975582097+975869781+976379054+976920414+977275219+977478983+977619466
2599+977636400+977494821+977371959+977465888+977751446+978132647+978661323
2589+979316427+979775993+979750352+979388759+979108000+979181361+979573943
2580+980003069+980209781+980302064+980628416+981259249+981934578+982472236
2570+982816757+982893271+982921998+983509432+984821764+986032626+986181952
2560+985270361+984023916+983003792+982408063+982306112+982594755+982980618
2550+983243071+983302719+983048974+982482520+982008419+982152809+982954976
2540+983932729+984584473+984742781+984592084+984505765+984738051+985268921
2530+985985867+986751080+987232517+987118500+986560068+985907912+985158606
2520+984257984+983680355+983994160+985008799+985929029+986290210+986428910
2510+987044454+988382153+989862050+990638301+990512628+990014119+989574709
2500+989077914+988392643+987893928+988087614+988945522+989892971+990326073
2490+990038801+989372179+989017100+989448351+990539367+991808231+992796063
2480+993120495+992651261+991860132+991469333+991553869+991528775+991159161
2470+990953477+991386168+992254908+992997633+993334269+993467895+993741729
2461+994149875+994320318+994040177+993553391+993237666+993274072+993650748
2451+994149601+994404032+994286997+994092489+994078777+994109286+993969216
2441+993711905+993474477+993222309+992877514+992548488+992461689+992754652
2431+993440402+994438792+995465978+996092903+996143912+995844642+995426967
2421+994968771+994696720+994855508+995165816+995034522+994414933+993906551
2411+993978060+994529979+995200234+995791096+996368656+996992701+997401464
2401+997194546+996397315+995540778+995077852+995009222+995150664+995457339
2391+995999934+996779887+997524532+997593710+996440988+994370574+992403892
2381+991152579+990285210+989311228+988310027+987532336+986784606+985603432
2371+983808153+981741852+979920315+978373503+976768620+975451008+975377373
2361+976560879+977796354+978397088+979024219+980437473+982367543+983937323
2351+984730920+985051856+985278177+985402341+985166490+984490270+983687897
2342+983162237+983071531+983358117+983944385+984755877+985520884+985912232
2332+986083635+986495346+986987068+986857487+986050383+985366552+985444644
2322+986249416+987635932+989629215+991905726+993710328+994504748+994382846
2312+993911281+993752562+994272737+995373489+996730317+998093179+999295333
2302+1000229893+1001028838+1002041214+1003376926+1004542263+1004792169
2293+1004006456+1003086500+1003141692+1004289066+1005668383+1006616312
2285+1007211492+1007615661+1007719258+1007676338+1007984727+1008719704
2276+1009328940+1009396953+1009082325+1008719567+1008487007+1008538428
2268+1009026722+1009882779+1010859503+1011776168+1012380056+1012167859
2259+1010980308+1009588582+1008941912+1009075606+1009463595+1009833894
2251+1009970948+1009745725+1009919253+1011516595+1013933382+1015222266
2242+1014733081+1013989328+1014538298+1016122819+1017359939+1017521333
2234+1017204717+1017416708+1018297515+1018919024+1018421337+1017234404
2225+1016736991+1017587494+1019050593+1020117133+1020424425+1019974045
2217+1019057312+1018523082+1019067185+1020338655+1021437555+1022036301
2208+1022505467+1023222412+1024047205+1024448974+1024079497+1022960165
2200+1021142810+1018884812+1017163923+1017119426+1018754477+1020670011
2191+1021250109+1020129200+1018446636+1017507895+1017567612+1018367448
2183+1019972743+1022112473+1023847692+1024902508+1025931819+1026684074
2174+1025733059+1023068835+1021017754+1021340473+1023113331+1024487574
2166+1025012754+1025223854+1025654420+1027173259+1030170348+1032765394
2157+1032677567+1030766078+1029501053+1029888835+1031413022+1032989727
2149+1033570167+1032840949+1031151324+1028625182+1025324640+1021880256
2140+1018813919+1016048498+1014038349+1014087165+1016463431+1019505086
2132+1021514138+1022319734+1022506152+1022246168+1021293440+1019578789
2123+1017608063+1016228403+1015746691+1015506727+1014852515+1014166216
2115+1014161554+1014484066+1014013050+1012497090+1010933618+1010140295
2106+1009734618+1008900843+1007697044+1007025897+1007358968+1008111497
2098+1008552072+1008775033+1009290752+1010149208+1011044619+1011870371
2089+1012685086+1013472581+1014285787+1015259632+1016192271+1016611181
2081+1016706550+1017608886+1019969726+1022775393+1024570739+1025408147
2072+1026352168+1027580444+1028437941+1028980946+1030056879+1031929769
2064+1033741502+1034376860+1033407951+1031282207+1029073916+1028092117
2055+1029140969+1031426049+1032476066+1030437943+1026754760+1025361731
2047+1028376715+1033773657+1038340595+1041226136+1043329049+1044672439
2038+1044174890+1041815078+1039580733+1039381219+1040774728+1042147943
2030+1043232377+1044341905+1044569254+1043566271+1043499081+1046143011
2021+1049475571+1049972984+1047089637+1043445329+1041836606+1043268372
2013+1046582695+1049309379+1049989918+1049633399+1049774156+1049998420
2004+1048907952+1046636515+1045017166+1045584922+1047784506+1049216341
1996+1048123268+1045373616+1043385749+1043521912+1045063719+1046328058
1987+1046011510+1043930606+1041278997+1039695024+1039947330+1042090763
1979+1046231387+1051573205+1055369308+1055447194+1053126599+1051163071
1970+1050090635+1048710770+1047025052+1046341907+1046808399+1047280992
1962+1047561545+1048635215+1050585305+1051982173+1051690033+1049986422
1953+1047912373+1046593802+1046978705+1049120629+1051701483+1053079497
1945+1052778924+1051520618+1050339512+1050075551+1051055635+1052801687
1936+1054243394+1054568375+1053853486+1052735251+1051834149+1051592265
1928+1052057111+1052634260+1052615954+1052057659+1051551128+1051143120
1919+1050461415+1049882346+1050276162+1051402899+1052080696+1051923348
1911+1051717389+1052155702+1053012924+1053883859+1054807105+1055717531
1902+1056155844+1055905458+1055355116+1055033426+1055184467+1055718217
1894+1056250595+1056398619+1056132601+1055756131+1055792743+1056807382
1885+1058770773+1060600606+1061045569+1060225370+1059426013+1059408187
1877+1059844032+1060205007+1060403012+1060629539+1060970631+1061117078
1868+1060647776+1059953935+1059996238+1061016156+1062443603+1063617715
1860+1064241692+1064419677+1064510109+1064830291+1065371445+1065902521
1851+1066301343+1066658479+1067151434+1067894845+1068813498+1069645764
1843+1070206458+1070592116+1070949526+1071306388+1071593591+1071664346
1834+1071419720+1070916000+1070323287+1069988365+1070357019+1071417663
1826+1072623519+1073453934+1073741823+1073537853+1072991008+1072511764
1817+1072537269+1072916825+1073057992+1072656977+1071795984+1070647856
1809+1069518651+1068793135+1068455608+1068016198+1067129358+1066019487
1800+1065107279+1064426670+1063728716+1062849554+1061687234+1060205350
1792+1058764259+1058017695+1058073572+1058473765+1058792438+1058904399
1783+1059006486+1059356218+1059995004+1060787298+1061622581+1062450664
1775+1063156915+1063530162+1063489711+1063332843+1063344018+1063369798
1766+1063038029+1062080708+1060377713+1057996989+1055350728+1052796407
1758+1050248806+1047666855+1045290588+1043127067+1040773151+1037948082
1749+1035166275+1033276450+1032177138+1031069941+1029435988+1026967300
1741+1022953103+1017019464+1010085103+1002210767+990411226+971908650+951094804
1731+933078602+916445694+899846449+884046698+869524793+856728302+847013231
1721+841241602+839393189+842301011+851821025+867238821+885128664+903659830
1711+922541070+941158280+958661849+975081188+990392097+1003105972+1012485641
1701+1020014839+1027044843+1032933781+1037648263+1042248728+1046420890
1693+1049417020+1051510471+1053165405+1054471361+1055463923+1056433243
1684+1057897027+1059870359+1061559024+1062629815+1063230618+1063420670
1676+1063132575+1062456629+1061473049+1060002065+1058187590+1056725177
1667+1055636697+1054000344+1050952656+1046042432+1039607197+1032268050
1659+1024031710+1014818851+1003454400+983425376+947234253+911812114+892046776
1649+879377672+868334843+863311766+868588794+880992908+897126690+914887981
1639+932473274+949901768+968164516+984457909+994969937+1000964527+1004862033
1629+1007819563+1010139815+1011635137+1011910000+1010658550+1008141870
1621+1004898576+1000431326+993137773+982660300+971429475+960352022+947651654
1611+932007195+913746023+894274059+874768226+855304832+835330107+814711318
1601+793864288+773060040+752062861+730290185+707408666+683823502+660175605
1591+636949223+615109425+596160926+581372866+571623035+567601536+569523447
1581+576613271+587426283+601417866+619249843+638921938+656014687+670793834
1571+687008107+706277130+725018299+739743008+750891559+759324876+765133323
1561+768479801+769649457+769953527+770901250+771698824+771953461+772474115
1551+774313273+778052882+783511528+790222242+798317689+808101252+819276131
1541+832356466+847306879+858738246+863022094+859945131+848377601+830397669
1531+813911413+803689468+799939233+803411247+813887965+828059385+843048947
1521+856884965+866014865+867989225+863255888+853961990+842681664+830641473
1511+818397723+806960118+797141039+790626480+790652259+794930348+798962919
1502+801111083+800544561+796268391+788012648+777993370+769455634+763084368
1492+757636554+752368782+748151986+745789774+744351769+742702458+740662553
1482+738952359+738621825+740021162+742389064+744303159+743949314+739600332
1472+731893697+724061046+717529551+711493549+705605640+701431695+700946967
1462+703779372+708291393+713682301+720195832+727365221+733347060+737661212
1452+740782192+742948524+744523995+746642540+750635277+756840762+764722161
1442+773186947+780509091+784919778+785309618+782582248+780553724+782016549
1432+787073563+795200000+804794540+812723177+816276162+814165570+806607781
1422+794745575+777932694+754044352+726239924+702253403+683632353+667746283
1412+653974508+643763533+638569464+638972262+645188237+657198261+673154058
1402+689377038+702864079+711510073+713689020+710015436+704077751+700531622
1392+701785266+706731897+713247554+720075439+726690852+732775670+738224032
1383+743314162+748667087+755026767+762876079+772355916+783556230+796061747
1373+808137041+817873846+824645580+828605133+830087977+829490740+826907555
1363+822315592+816365771+809859508+802559441+793568035+782246229+768501946
1353+752552046+734674750+715459479+696171054+678398245+663238308+650747463
1343+639786290+628490950+615538893+601480462+588330949+577680908+570222635
1333+566441239+566677295+570814800+578334091+588506329+600432434+613196290
1323+626168983+639124468+652099287+665139651+678132775+690941059+703588223
1313+716083524+728175616+739431809+749405218+757719787+764224543+768993531
1303+772049995+773320093+772950205+771445010+769412372+767270174+765197428
1293+763265575+761472765+759567309+756951283+752915901+746993917+739074741
1283+729278768+717820183+704979881+691135293+676737895+662288391+648448945
1273+636200945+626719462+620868713+618677082+619312165+621634886+624791175
1264+628303914+631783539+634779188+636905138+637873772+637298474+634620743
1254+629358867+621424608+611291725+600039372+589186869+580285141+574595374
1244+572997244+575814394+582576940+592178611+603407927+615368655+627632219
1234+640194779+653215397+666717521+680527485+694364669+707910260+720885079
1224+733088309+744369801+754713922+764377092+773755526+783071982+792294577
1214+801243338+809583274+816787286+822207402+825079847+824480347+819566145
1204+810079589+796647192+780727664+764475820+750521191+741381213+738520286
1194+741455327+747372032+751676381+749600824+738054343+716515118+686724812
1184+651879685+615830484+582396761+554877446+535739615+526303521+526473210
1174+534792166+548898693+566144779+584100921+600845653+615063763+625968167
1164+633195285+636921593+638083707+638268960+639215586+642301463+648227012
1154+656822751+667076988+677554118+686996589+694674291+700282676+703565392
1145+704051424+701144561+694394630+683652168+669197247+652040256+634083360
1135+617678692+604730543+596013588+591159035+589177270+589034594+589976352
1125+591676468+594264383+598083180+603304811+609805315+617320802+625575037
1115+634337654+643484488+652937929+662557083+672245689+682090135+692116748
1105+701924034+710722646+717710210+722339745+724374919+723872022+721160970
1095+716814525+711543805+705980054+700420142+694705624+688316326+680672424
1085+671509957+661067656+649890447+638410333+626712400+614716363+602589373
1075+590976251+580881282+573398190+569463182+569559648+573425649+580124433
1065+588555967+597913697+607662020+617304416+626424031+634873049+642657913
1055+649629914+655477372+659994398+663201765+665229809+666226759+666438408
1045+666336251+666573611+667762738+670332554+674514931+680205590+686815518
1035+693587800+700172430+706652846+713040156+719111878+724735826+729917074
1026+734447469+737848728+739666083+739468077+736641637+730648897+721589547
1016+710314980+698060261+686118524+675716263+667884160+663275742+662054871
1006+663941816+668375745+674675502+682129626+690065942+697926566+705348604
996+712248958+718807191+725230976+731463406+737099695+741529442+744134430
986+744445424+742263117+737744172+731430496+724199745+717193944+711654531
976+708492620+707826204+709049613+711391462+714292565+717381253+720444641
966+723505082+726762019+730387405+734385969+738648084+743145981+748011984
956+753314654+758826915+764166266+769118998+773719395+778120826+782507859
946+787016383+791601216+796027604+800036110+803408161+805854498+807023263
936+806665578+804534144+800036795+792334891+780958373+766082555+748268403
926+728599942+709420186+694363777+686870093+688245982+697029579+710147965
916+724675286+738765050+751560169+762775979+772373536+780389314+786985325
907+792530428+797412679+801807529+805755632+809315953+812493771+815219906
897+817533988+819603306+821484423+823060785+824311549+825499031+826970425
887+828825969+830869919+832825837+834514571+835915073+837116678+838083873
877+838469256+837850765+836075849+833228497+829578498+825816264+822959794
867+821625179+821471944+821437252+820351104+817334063+811859510+803674591
857+792816945+779724612+765176654+749973249+734621409+719340119+704369822
847+690180371+677275279+665910211+656182388+648313468+642645640+639350720
837+638200673+638535526+639421270+640019468+639969418+639362307+638327374
827+636844118+635044109+633480157+632918846+633905786+636524486+640479925
817+645377398+650892950+656720320+662586016+668429086+674372392+680384055
807+686041050+690670242+693780457+695513002+696629249+697838876+699175068
798+700254086+701100339+702394571+704828498+708511749+713142929+718498254
788+724563943+731374139+738842044+746617721+754114421+760762881+766132399
778+769797618+771367673+770717780+767980332+763320356+756884093+748935985
768+739973374+730678242+721609156+712823091+703887905+694487393+685215914
758+677738136+673894931+674595834+679660185+688420676+700015904+713204566
748+726443963+738459198+748713983+757223815+763868915+768115741+769662004
738+769073337+767427453+765570676+763952286+762854756+762539580+763250561
728+765109327+768001449+771608529+775466954+778897968+781037973+781173930
718+779003279+774290716+766423990+754984259+740966485+726757220+714598006
708+705592888+700206367+698874632+701629975+707558952+715229182+723741687
698+733262249+744471066+757404474+770877253+782803290+790223270+788708545
688+773143959+741335414+697735006+652850239+618319192+601339569+602055006
679+615321142+634414991+653758608+669723249+680385975+685271243+684597217
669+679430778+673855440+671596482+671813615+673246204+676173293+680915405
659+686649806+692083016+696610669+700462581+704094960+707813041+711770537
649+715884902+719771712+722985387+725315649+726891326+728085732+729217954
639+730255767+730847245+730639299+729557538+727858109+725992761+724469808
629+723789886+724310814+725896981+727570151+727903771+726395901+724508957
619+724822282+728688523+734777386+740363831+743881507+745588272+746314063
609+746681620+747339534+748819636+750908974+752844597+754329498+755904009
599+758148364+760879367+763403727+765332082+766799226+767929665+768406235
589+767479560+763989240+756799009+746282593+735281723+727515028+724901265
579+726712449+731045388+736517952+742637187+749436140+756935377+764341851
569+770033469+773194009+774951784+776788405+778602195+779385851+779030155
560+778313689+777467916+775842053+772932379+768818563+763485794+756678683
550+748918090+742007726+737863194+737105523+739100315+742924254+747796976
540+752797976+756977131+760015289+762197047+763659734+764226600+763861373
530+762691374+760728875+758041134+754996806+752012194+749314786+747110402
520+745749597+745884183+748420266+753518966+759722052+764996269+768514013
510+770750346+771905536+771171724+767763815+761305819+751155589+737673005
500+724056383+714072621+708703241+706417818+705514385+705481476+706508387
490+708739167+712025928+715487726+717629034+717956825+718034025+719738803
480+723215410+727180997+730325631+732348875+734101783+736668102+740316935
470+744633008+749200494+753358670+756225973+757604947+757919643+757407216
460+756509406+756515645+758206573+760072538+760331699+759433820+758434676
450+756833426+753655609+749865128+747801501+748278962+749718955+750330248
441+749922651+749279271+749004546+749532674+751268647+753897493+756186070
431+757446845+758435705+759529738+759405436+757255696+754632814+752709326
421+750238033+747465002+748792966+754622461+759166637+758101537+751242388
411+741614732+732195024+723994130+717706302+714706470+715492114+718583613
401+721164535+720136870+715304531+712600541+716381972+723256410+728174108
391+728372524+722477828+710783597+697370740+689581762+692154663+701706215
381+711351353+716961521+717092610+712654635+708491455+709944338
##END=
