##TITLE=LSH-R373B
##JCAMP-DX=5.0
##DATA TYPE=LINK
##BLOCKS=1


$$ === CHEMSPECTRA SPECTRUM ORIG ===
##TITLE=LSH-R373B
##JCAMP-DX=5.00
##DATA TYPE=INFRARED SPECTRUM
##DATA CLASS=XYDATA
##$CSCATEGORY=SPECTRUM
##ORIGIN=Lara
##OWNER=
##XUNITS=1/CM
##YUNITS=TRANSMITTANCE
##XFACTOR=1.0
##YFACTOR=8.1912976e-10
##FIRSTX=3997.453
##LASTX=373.96442
##MAXX=3997.453
##MAXY=0.8795338817759525
##MINX=373.96442
##MINY=0.4239653916971483
##NPOINTS=2559
##XYDATA= (X++(Y..Y))
2559A015683434A015470958A015422788A015539795A015538703A015174802A014568444
2552A014070435A013941712A014196828A014618944A014907678A014907678A014637499
2545A014143928A013543172A013147328A013202484A013509774A013678518A013691034
2538A013837657A014221060A014692583A015099707A015268306A015023230A014546396
2531A014414981A014981608A015890599A016441654A016327849A015863530A015573267
2524A015642031A015807209A015758820A015517310A015392080A015548454A015711086
2517A015582145A015330812A015377818A015744340A015917886A015565700A015075185
2510A014923905A015026068A015002492A014788852A014743955A015100362A015644432
2503A015970132A015934986A015843811A016059779A016537196A016883124A016842521
2496A016620804A016542144A016557789A016376020A016017648A015791783A015828020
2489A016117264A016501031A016581729A016113262A015468557A015516364A016537705
2482A017842760A018737998A018852895A018319449A017762863A017471434A017184448
2475A016801700A016681636A017154539A018204843A019332058A019759703A019122929
2468A018121599A017822313A018394471A019187909A019348576A018718279A018062513
2461A018231111A019586666A021862198A023807811A023268034A020717592A018978344
2454A018628413A018917730A019087783A018816367A018386757A018194074A018131349
2447A017960059A017892385A018086817A018301476A018489867A018761429A018930827
2440A018785078A018554119A018672582A019249542A020037959A020667818A020813861
2433A020540262A020038905A019279012A018603309A018652062A019313866A019809475
2426A019450885A018315010A017486935A017843270A019001410A020110216A020591052
2419A020471498A020024716A019477080A019180705A019347412A019772291A020160424
2412A020417142A020570751A020646427A020773040A021207088A021975422A022654472
2405A022731823A022290061A021945370A021976804A022159738A022203761A021989975
2398A021612539A021397734A021600969A022032905A022264884A022193501A022025558
2391A021834183A021634732A021798092A022680886A024038842A025030276A024662009
2384A023080225A021653433A021116058A021525365A022545469A023457516A024028291
2377A024393284A024456300A024091888A023722675A024107897A025049705A025695499
2370A025855295A025882364A025925369A025663484A024921126A024238439A024172731
2363A024555116A024904246A025041046A024986544A024738049A024442692A024624098
2356A025608765A026766250A027355653A027267461A026705564A025792280A024645855
2349A023746687A023731407A024777342A026422286A027873528A028560801A028370955
2342A027536695A026602236A026089819A026072719A026535800A027517994A028699929
2335A029308251A028868091A027861230A027261422A027221617A026883913A025956440
2328A025064986A025225798A026458524A027631145A028004142A027750845A027549283
2321A027800398A028371392A029014423A029491039A029540447A029281253A029324260
2314A030294083A031736519A032143644A031746707A031682600A031937207A031892091
2307A031350642A030742757A030410799A030156337A029601425A028667476A027681353
2300A027240902A027986388A029690563A031144861A031901043A032148083A032122105
2293A032191160A032665593A033273988A033516517A033487920A033589355A033900939
2286A034084236A033824825A033247574A032828443A032824805A033073810A033409988
2279A033922113A034630707A035104412A034856936A034053456A033463470A033560395
2272A034099808A034585083A034627723A034162241A033551954A033159164A033035244
2265A033018435A032978850A033074974A033514043A034005794A034059714A033843599
2258A033961989A034488595A034877892A034790210A034490123A034149798A033777309
2251A033684606A034237335A035267189A036080784A036155587A035620176A035067227
2244A034947529A035187365A035432513A035395621A035032811A034585447A034312356
2237A034283321A034535384A035122386A035886135A036404155A036391567A036056116
2230A035931541A036395278A037251295A037832621A037696840A037032998A036337647
2223A036008164A036226898A036888121A037568554A037844700A037762548A037768151
2216A038125431A038545071A038477690A037736642A036651996A035648119A034945492
2209A034689356A035067957A036046509A037184496A037984920A038405142A038747797
2202A039129017A039427502A039612617A039761497A039826257A039668721A039285389
2195A038846249A038595934A038717599A039107476A039313333A038985377A038413438
2188A038220681A038536266A038941499A039175223A039415278A039862860A040473074
2181A041163476A041944108A042716663A043163663A043007361A042345630A041628013
2174A041237261A041173300A041283685A041664760A042473552A043386836A043836965
2167A043782973A043628634A043480631A043154349A042876092A043210670A044192499
2160A045125574A045433010A045284277A045117862A044917610A044419674A043809605
2153A043558345A043609426A043405318A042793940A042261076A042253654A042714552
2146A043194952A043228061A042704147A041911727A041178320A040595976A040115648
2139A039747599A039588024A039613855A039519042A038991271A038118009A037207344
2132A036385600A035730271A035464894A035654013A036031522A036326369A036456110
2125A036372721A035998850A035361567A034668982A034198260A034013288A033864847
2118A033551226A033202168A032994786A032865626A032699428A032475092A032106461
2111A031461392A030586019A029625801A028558472A027252763A025698267A023971461
2104A022039456A019788955A017240478A014564733A011808801A008715526A005017858
2097A000855435I96586338I92191865I87293197I81799159I75985026I69803424
2090I62723165I54480763I45545776I36639022I28059132I19619243I11142388I02886380
2082H95346605H88695736H82654136H76923465H71428627H66057127H60560907H54963033
2074H49783708H45594871H42583457H40779738H40394516H41596316H44168661H47703915
2066H51971121H56849923H62093719H67431310H72823766H78437430H84366752H90449756
2058H96356958I01773063I06488142I10494119I14061754I17537339I21013289I24352223
2050I27438439I30154787I32253135I33558044I34244808I34703450I35208082I35813930
2042I36432076I36902288I37105669I37120804I37225005I37684448I38558948I39727639
2034I41056052I42502782I44069357I45712118I47370960I49033441I50649352I52007598
2026I52890684I53390294I53847700I54375471I54654819I54424151I53963252I53776462
2018I53939603I54094593I53998907I53723853I53374941I52980041I52635058I52435097
2010I52243214I51787482I51028170I50221707I49593738I49068296I48330668I47138401
2002I45606826I44112362I42817931I41409621I39462626I36955189I34254267I31640883
1994I29022478I26137968I22899526I19471528I16142565I13199697I10760878I08646959
1986I06545773I04328088I02134127I00200594H98606659H97038774H94860455H91591525
1978H87196251H81891551H76031719H70129029H64538577H59157181H53761742H48459661
1970H43513841H38882515H34111406H28665394H22431984H15901616H09685523H03948885
1962G98492758G93159097G87932037G82885510G78232427G74290775G71325496G69469313
1954G68691518G68775127G69424489G70454416G71868038G73779377G76270952G79316929
1946G82807141G86564622G90392685G94248910G98265438H02437830H06488484H10230830
1938H13767467H17123790H20018485H22260984H24141689H26237563H28931499H32138143
1930H35425266H38435806H41193194H43912743H46665183H49433049H52332985H55466863
1922H58598413H61266808H63323898H65111972H66956367H68713588H70088644H71158884
1914H72193032H73159944H73882799H74565052H75711477H77480705H79445382H81092582
1906H82327418H83357345H84319455H85246564H86165887H86995854H87583947H87980594
1898H88389974H88846362H89248684H89635798H90156728H90890863H91860322H93033889
1890H94220117H95134056H95670776H96032859H96558301H97516772H99081892I01250677
1882I03614839I05502529I06704475I07796617I09396155I11377860I13136464I14332370
1874I15099540I15783175I16673028I17787873I18792696I19316246I19468618I19850857
1866I20873143I22289019I23659710I24974807I26430050I27875980I28920097I29424364
1858I29664636I30082385I30902601I31936748I32831186I33437908I33786309I33942830
1850I34151449I34801757I35928827I36993828I37342303I36684864I35102790I32810157
1842I29879368I26049412I20912000I14462402I07483579I01367685H97484028H96471419
1834H97902722I00575847I03188431I04909706I05573037I05460907I04802449I03314025
1826I00006236H93278018H81641527H65419626H48200105H35790477H32658346H38958046
1818H50860933H63543578H73876323H80852309H84403208H84481577H81195691H75103446
1810H66888477H57076515H46464931H36528323H28927861H24598731H23348104H24142344
1802H25748431H27387481H29079286H31432678H35021124H39865145H45481429H51319139
1794H57029582H62434481H67468566H72115099H76224040H79470048H81645748H82957060
1786H83943328H85121771H86717015H88707306H91083328H93961871H97386158I01099397
1778I04630868I07651668I10200872I12510605I14685211I16645377I18239603I19195309
1770I19061202I17385040I13877584I08476323I01673156H94869843H89907505H87830260
1762H88078027H88800228H87829387H83808928H77242397H70622091H66906450H67453066
1754H71427099H76936490H82388104H87009534H90730851H93916393H97120633I00824779
1746I05108211I09491042I13251143I16009840I18012283I19853040I21950150I24257336
1738I26465124I28381266I30006272I31378926I32559479I33684511I34861353I36038558
1730I37040980I37724542I38119660I38434009I38875843I39461244I39999856I40271054
1722I40278185I40356118I40928785I42113630I43621702I45022297I46034762I46621982
1714I46929781I47178859I47554476I48144024I48918253I49723261I50359816I50815912
1706I51380284I52302154I53374140I54126975I54409305I54498590I54704590I55100218
1698I55536231I55759404I55655857I55449712I55483111I55814342I56236675I56643217
1690I57072754I57404420I57379098I57031496I56738394I56680255I56624007I56396905
1682I56178607I56136549I56106133I55830059I55311603I54796348I54471376I54239762
1674I53834166I53150167I52358548I51676441I51177122I50853823I50725392I50811547
1666I51095697I51535857I52061227I52578592I53051206I53517707I53967473I54313765
1658I54573248I54927108I55509016I56268328I57066787I57747366I58143867I58230240
1650I58235697I58477207I59096808I59990736I60903726I61599079I62023885I62296903
1642I62517456I62657385I62663060I62601573I62662260I62977118I63441291I63807376
1634I63976192I64046848I64078792I64016432I63897751I63914196I64194781I64672852
1626I65210446I65758009I66341809I66927283I67352817I67497330I67503442I67663382
1618I68083385I68657508I69322224I70028925I70542143I70641395I70487059I70462028
1610I70719473I71139696I71597756I72048250I72470582I72850857I73159384I73361090
1602I73481227I73547225I73518556I73440769I73528597I73870015I74240029I74451559
1594I74681862I75207377I75983789I76700241I77152408I77407234I77680105I78139621
1586I78744740I79228634I79362233I79231473I79090089I79029038I79018559I79111118
1578I79283209I79310278I79151576I79177480I79624262I80146066I80335475I80353158
1570I80551225I80770615I80585644I80105026I79951417I80420539I81128477I81584501
1562I81749534I81887789I82152220I82514084I82957373I83540664I84268611I84997800
1554I85472524I85482274I85106148I84808681I85068964I85842829I86621932
1547I87066313I87267511I87390485I87471182I87615112I87966936I88402949
1540I88600872I88500164I88495798I89035792I90041562I90885209I91115513
1533I90972237I90896997I90900271I90775623I90539135I90304829I90077508
1526I89857537I89650300I89402023I89146615I89017747I89001884I88976998
1519I89017165I89319070I89814678I90158788I90121823I89833596I89642805
1512I89860230I90580247I91577212I92403468I92792619I92945136I93216844
1505I93624623I93891092I93844376I93562918I93254755I93103402I93147644
1498I93317479I93609925I94015740I94293705I94194598I93946903I94095635
1491I94794698I95660463I96328892I96761776I97009253I97055532I96929938
1484I96745695I96626141I96648407I96784406I96902942I96879366I96644987
1477I96164296I95529414I95016197I94840759I94892859I94895478I94837921
1470I95072008I95828773I96765705I97289692I97297478I97237082I97427656
1463I97702929I97806839I97812296I97953025I98210616I98337956I98284765
1456I98284546I98405701I98387583I98125553I97920863I97996030I98109836
1449I97895031I97345722I96815623I96694249I97155803I98055334I98965198
1442I99435410I99351366I99018608I98866891I99098650I99606483A000122683
1435A000425535A000474070A000375690A000236198A000083533I99953066I99956341
1428A000170854A000508197A000776848A000851506A000710850A000406543A000064689
1421I99794510I99542449I99214784I98961050I99082860I99602117A000170418
1414A000546472A001002568A002042391A003717242A005427893A006575191A007172963
1407A007545160A007758219A007705971A007409016A007017608A006760599A006785849
1400A006865671A006605317A005968034A005190531A004399931A003697884A003355086
1393A003599070A004162860A004470075A004521741A004832524A005454599A005842149
1386A005704622A005441865A005594236A006172215A006642355A006501917A005806349
1379A005065520A004735891A004898013A005325221A005743115A006041819A006289514
1372A006576356A006865528A007035145A007045478A007014043A007123846A007427498
1365A007725183A007797221A007755745A007859581A007983938A007739591A007174636
1358A006856359A007177548A007944426A008642177A008878666A008682126A008467976
1351A008572468A008879613A009034530A008849124A008452841A008234253A008492499
1344A008982722A009147973A008890018A008637666A008692750A009020997A009533486
1337A010165310A010880090A011793081A013052150A014513506A015683799A016026089
1330A015450511A014554035A014151860A014521510A015352496A016297505A017192598
1323A017812853A017862116A017388410A016940319A016972990A017240332A017202858
1316A016919871A017040735A017851783A018732031A018779256A017907376A017059946
1309A017222432A018517227A020280997A021516925A021406465A020121931A018915401
1302A018646168A018717624A018208918A017294470A016758695A016859840A017415188
1295A018428598A019925100A021369647A021748393A020468151A018201059A016535959
1288A016434669A017315135A018053053A018398546A018862428A019758027A021013967
1281A022419002A023588858A024135693A023883924A022626894A020391674A018284012
1274A017988074A019855826A022300831A023708704A024287483A025250175A026514481
1267A026257763A023380821A019737364A018631178A021463660A026857861A032368563
1260A036056116A036814409A034456506A030126066A026133042A024600303A025900046
1253A028331370A029528222A028538680A026564616A025487973A025941814A027178178
1246A028411704A029458586A030190901A030290153A029685615A028701166A027794140
1239A027350705A027480883A027839692A027888008A027411392A026592413A025738360
1232A025237804A025497578A026510987A027686883A028420072A028634731A028564148
1225A028272212A027649627A026755481A025970411A025778163A026355269A027350924
1218A028234592A028975493A030067708A031622277A032868610A032939047A031798880
1211A030199924A029079403A029046877A030031180A031318116A032055816A031763079
1204A030699898A029974350A030648307A032362596A033578513A033411952A032372056
1197A031320808A030740719A030848413A031471434A032074153A032553679A033423231
1190A034780896A035842039A035856229A034794794A033017343A031094507A029955431
1183A030214259A031226649A031803973A031833371A032418262A034696121A038662588
1176A042667109A044347199A042767235A039433323A036772132A036070015A037065960
1169A038595571A039409383A039021833A037914846A037005055A037324279A039800136
1162A044328498A048983544A051255876A050391273A047783710A045415401A044511504
1155A045074857A046153246A046875738A047275949A047663064A047716474A047100002
1148A046533666A047103568A048464798A048861808A047411950A045624384A045567336
1141A047031384A048086850A047654842A046208985A044716558A044128683A045274454
1134A047816964A049701890A049334059A047820166A047168038A047335691A046933369
1127A045926872A045781850A047020397A048370348A048720497A048198039A047398342
1120A047041572A047984180A050245159A052288060A052457895A051071270A049996227
1113A050161188A050632128A050409901A049808564A049391034A048759354A047277406
1106A044904731A041870251A038845812A037140691A037494624A039163290A041010231
1099A042714261A044336284A045631296A046316897A046523770A046725186A047255357
1092A047954200A048416845A048630268A049103464A050130335A051277197A051779281
1085A051442375A050864542A050459091A049849168A048541202A046623314A044596204
1078A042934742A042025315A042255400A043787775A046141167A048418373A050088931
1071A051173797A051809843A052108910A052334630A052715629A053123920A053262830
1064A053095178A052847410A052757326A052962817A053452385A054017266A054358756
1057A054298141A053916413A053465920A053141747A053108276A053555929A054502250
1050A055650277A056584372A057131570A057503331A058001559A058607041A059053170
1043A059263027A059468663A059940767A060717979A061437269A061647708A061564682
1036A061687947A061966639A061972826A061682053A061621367A062127307A062944613
1029A063507602A063542966A063336092A063105717A062633103A061698499A060477998
1022A059384473A058850372A059170832A060297902A061892565A063549079A064882803
1015A065678134A066079655A066343359A066530149A066674298A066955101A067482508
1008A068000964A068094832A067787542A067588164A067930891A068668736A069019394
1001A068405178A067097285A065465730A063656627A062019177A061179242A061542416
994A062971609A064918531A066837366A068520949A070057908A071579296A072860192
987A073376248A073182618A072857646A072747114A072833415A073013655A073203938
980A073348160A073511737A073721012A073741823A073361403A072766834A072339480
973A072264313A072319106A072151744A071703871A070996514A069951670A068571665
966A066988064A065390418A064074739A063363599A063386229A063747802A063705525
959A063387466A063368838A063731575A064202807A064565472A064809746A065069957
952A065526708A066333608A067433100A068162286A067834549A066863125A065820243
945A064724101A063343952A061304835A057919842A052881101A047314953A042453178
938A038321462A034952259A032964515A031792913A030141202A028000577A026306225
931A025577621A025897790A027014818A028693380A031657277A037080586A043302207
924A047725861A050851953A053606867A056133878A058188421A059452508A059859852
917A059458840A057849842A054566793A050122475A044685051A036403719A022165050
910A000898949I74835326I46185169I16609067H85278581H40527314G68346318
903G03247910F71354216F53456446F38182028F30909667F37770755F54262254
896F75911176G00254833G25475610G53006411G85993556H18341744H40482272
889H55079312H67756718H80823785H93951320I06229169I18163490I30489146
882I41557045I49191488I53154751I52371864I43592668I27307606I08182931
875H88758970H70827799H57212151H49697698H47730911H50058180H55791180
868H63953322H73269311H82532836H90862557H97614497I02145770I04218284
861I05193857I08051225I15356330I27332201I41971009I56671450I69741864
854I80649678I89324018I96004211A001526045A006523456A010156143A011803052
847A012371135A012607333A012674859A012384087A011489359A010234221A009227288
840A008767553A008965113A010496833A012659069A011480991A005797762I95601889
833I80021709I57807106I29145016H97367821H64944755H30371753G93490179
826G58968842G29100949G04276600F90959583F89486220F97408599G15502473
819G38810162G54462164G57168979G48668622G30371440G05937698F79617648
812F49773986F15824367E88354108E76198688E77525973E87045597E99964731
805F13769679F27296262F39495959F50851502F63767725F76981997F87139377
798F95847190G04966200G15075192G26329954G38561742G50534120G60843216
791G69882550G79517690G91434909H04670503H16393440H26178259H35091780
784H43701359H52045269H59467237H64797987H66895098H63488712H48228484
777H13160164G66659970G33145418G21362303G25573916G39744914G58716926
770G77227895G92615754H04204729H09746210H04344949G89339474G75424176
763G65505031G58377547G55872438G60977688G72800750G84726339G89968970
756G86182893G74762880G59019632G39859083G12229176F72659926F32624320
749F05450473E92834663E93927387F07293376F27279962F48457507F69196637
742F88468809G04814121G18992395G33460640G47994374G59659025G68104008
735G74759240G80261502G84635091G88068182G91228984G95244929H00865360
728H07192130H12563557H16552068H19737102H22764523H26225848H30577753
721H35664374H40866766H46041944H51707345H58276279H64889963H68987115
714H67112522H55468100H32306887H02718051G77979202G66929567G70138758
707G81635902G94321094H05042628H14193656H22337825H29111376H34165544
700H37742129H40454330H43186759H46789976H51597177H57389409H63575231
693H69509865H74887768H79734408H84020533H87394465H89147976H88440183
686H84970854H79485476H72904609H64310748H50687677H31335900H11365322
679G98045467G95182787H01241851H11930421H23834909H35385099H45748479
672H53982295H58940121H59226018H53035903H39120168H19323865G99453049
665G86369974G84123838G91739800H04127161H15577808H22599854H24812445
658H24378906H24132885H25635571H28938776H33798804H40206417H47575483
651H54431260H59512642H62773570H65249572H68471424H73810689H81565705
644H90407043H97785133I00555327H95183391H78500009H50041590H14541476
637G81312238G59662955G53740907G60930972G74815417G89621805H02210509
630H11109987H14717206H10511997G96568830G74924129G52792552G38590630
623G36347987G44041735G56532497G69405279G80458697G89076642G95290553
616G99276810H01247381H01707334H01738332H02693529H05359377H09465479
609H14104082H18488440H22237408H25259954H27679272H29770416H31775769
602H33777775H35702431H37376699H38701401H39845279H41100490H42473290
595H43619352H44291053H44695412H45285834H46273630H47462041H48488112
588H49026506H48698478H47000488H43640963H39137123H34946758H32640445
581H32753451H34551203H36871996H38961321H40599570H41827493H42749946
574H43513477H44325107H45356199H46597147H47869021H48991797H49928803
567H50797408H51682604H52374898H52346447H50888438H47124917H40285149
560H30453469H18670864H05970028G93320928G83212956G79725072G85237956
553G97621315H11874828H24073217H33109348H39645756H44620173H48614652
546H51906141H54731928H57363359H59946982H62398389H64532611H66253959
539H67145049H65389137H58265800H45806037H33476597H28467981H32826944
532H42220574H51268785H57878685H62574119H66115413H68744223H70635989
525H72101128H73284301H73968372H73834992H72704066H70299374H65964132
518H58947616H49287081H38662981H30045689H25662276H25126720H26068164
511H26601028H26786654H27899241H30853826H35488716H41009169H46683666
504H51997316H56444181H59469565H60679079H60280395H59430416H59761720
497H62209053H66439803H71473087H76508772H81131512H85151605H88529758
490H91388870H93952921H96379297H98654029I00690526I02497156I04214065
483I06014655I07921920I09679869I10879195I11197837I10477892I08845827
476I06987243I05974416I06408464I07855485I09354752I10346550I10934206
469I11441893I12039519I12781367I13746605I15043801I16770315I18953945
462I21452287I23942187I26083976I27756571I29163862I30640644I32277875
455I33787984I34725717I34873068I34681330I35312573I37738731I41635850
448I45285856I46238142I41935572I30305703I10302308H82690665H51880091
441H26818816H16892832H24712246H44011268H65452079H83241866H96163110
434I04795755I09406634I09481873I03926858H92058827H75639657H60030517
427H51893698H54549359H65685585H79777413H92250055I01476761I08125737
420I13580917I18702464I23481143I27630977I31241108I34634251I37894887
413I40932203I43799323I46603499I49251884I51578935I53662366I55789601
406I58116652I60571043I63084229I65582716I67568713I67304864I60371083
399I39971841I03217537H59598652H28781383H25007748H45099554H74098768
392H99535441I17664680I29916988I38369028I44450723I49124471I52908075
385I55882160I58037119I59598892I60845152I61835131I62632426I63554877
378I64920838I66729723I68743445I70774193I72846491I75061191I77319041
371I79294342I80701415I81537276I82118747I82807621I83547213I83699075
364I82274030I78200381I70897895I61282766I51574423I42573947I31007239
357I11789641H85044129H59855369H48224482H54818156H74075627H96630992
350I16355842I31750541I43647170I53115822I60685431I66150944I67680554
343I60066703I35058839H87150627H22307261G60327161G24499239G25828161
336G56921139H00378412H41378019H73309987H95916725I11515023I22632475
329I31094048I37927195I43718844I48907629I53602698I57399108I59813624
322I60720650I59815588I55670193I45987391I29878641I10796606H96432271
315H93582179I02484131I17154518I31065597I41441638I48768355I54218733
308I58305698I61139490I63014956I64449534I65909289I67663673I69670772
301I71600158I73281266I74996866I77068290I79454281I81966448I84503647
294I86984816I89370950I91718159I93981613I95863555I96989096I97210232
287I96722919I95853513I94733720I93266834I91111583I87117832I79310423
280I66990225I52793032I40401524I29212324I13136464H86193829H48780631
273H07893447G70740386G36916943F97621730F45738539E87161367E39292994
266E17580257E24816599E52359152E88219309F22599956F48765088F63785771
259F71014473F79172030F94860849G15844254G33843606G43219190G44724788
252G42116133G38171935G34011695G29975958G25986936G21534468G16128405
245G10234374G05610106G04238180G06862988G12590604G19752142G27140927
238G34449454G41767076G49063668G56129811G62736437G68815803G74498449
231G79905240G84887516G88940426G91518664G92665454G92788719G91182122
224G86002506G77635746G71100067G72211420G81434487G93657906H03546490
217H09191662H10898675H08584285H00890101G86641681G67949235G51291393
210G46448465G63374812G95469557H20363106H32648377H37953296H37834033
203H29867049H13568671G94054044G79067051G72429135G72120244G74716819
196G78961759G84662160G90681857G94908751G94933855G88975426G77511027
189G63737768G51196434G40788739G30925915G20563481G10917281G03826107
182F99461031F96072836F91345896F83867099F73891269F62877508F52049882
175F41454816F30559954F19587379F09677693F01530978E94735561E88843567
168E84187283E81190823E79611841E78934537E79089564E80511772E83657875
161E88364695E93596266E98241054F02156910F05891215F09581242F12745791
154F15158341F17453885F20533334F24491795F28360753F31055853F32403622
147F33028171F33662179F34878023F37159086F40847076F46017378F52582309
140F60552568F70253341F82300230F96491022G09290819G12896584G00070008
133F72456982F42379888F23510329F20450745F28341543F40004811F51244074
126F61128728F70249995F79173340F87564912F94555087F99851711G03940131
119G07379407G10749337G15054454G21088341G28255337G34798075G39232643
112G40841349G39068556G33828908G27194412G23811893G27198195G36096654
105G46598580G55937563G63515395G70033320G76341098G82430287G87147549
98G89553478G90676254G92724103G96327684G99888989H01703623H01342268
91G99467747G97484515G96750381G97741015H00180052H03701263H08142087
84H13409168H19494500H26334778H33215150H38774822H42214826H44237569
77H45427000H42401033H26187280G88269161G31218361F71534237F31909178
70F26097663F46650584F76051104G03238013G24712079G40514485G50878229
63G54466311G50658331G42531626G35270180G30971101G28213932G27587638
56G32469788G44082848G59350062G74336109G86848918G96381167H03494098
49H09119405H13859807H17781957H20868537H23613846H26971988H31385162
42H36099587H39777826H41835789H42942557H43915799H44528124H43802212
35H41451949H39005198H40150169H46900944H54942003H60545335H63498754
28H64273564H63519638H62244053H61181090H60671074H61319345H64002148
21H68977947H75319197H80985907H83345266H81784366H78634989H74979744
14H69134539H59001390H45960009H36346044H37493270H50400762H65518660
7H73612547H77372793H82632452H89385047H92520817H87679489H79406743
$$ === CHEMSPECTRA INTEGRALS AND MULTIPLETS ===
##$OBSERVEDINTEGRALS= (X Y Z)

##$OBSERVEDMULTIPLETS=
##$OBSERVEDMULTIPLETSPEAKS=
$$ === CHEMSPECTRA SIMULATION ===
##$CSSIMULATIONPEAKS=
##END=


$$ === CHEMSPECTRA PEAK TABLE EDIT ===
##TITLE=LSH-R373B
##JCAMP-DX=5.00
##DATA TYPE=INFRAREDPEAKTABLE
##DATA CLASS=PEAKTABLE
##$CSCATEGORY=EDIT_PEAK
##$CSTHRESHOLD=0.93
##MAXX=3997.453
##MAXY=0.8795338817759525
##MINX=373.96442
##MINY=0.4239653916971483
##$CSSOLVENTNAME=- - -
##$CSSOLVENTVALUE=0
##$CSSOLVENTX=0
##NPOINTS=40
##PEAKTABLE= (XY..XY)
388.12973892103173, 0.6850759342986694
420.70997243940565, 0.6872541264764925
453.2902059577791, 0.5959886872939069
471.7051205551211, 0.5128552284297508
525.5333324550429, 0.5928958621982356
556.6970340813132, 0.5082296698436712
606.2756503049254, 0.47422250834852114
653.0212027443313, 0.6324666701588615
670.0195854495696, 0.6114381519878184
687.0179681548084, 0.631631012817694
716.7651378889755, 0.5768624513662368
749.3453714073494, 0.4239653916971483
818.7554341204063, 0.7319597558245471
851.3356676387803, 0.5934588877622526
874.0001779124314, 0.6948059163667843
932.0779854886628, 0.6757883986173805
977.4070060359654, 0.6978114803882525
995.821920633307, 0.6691412294218804
1099.228748756841, 0.6758858521231872
1128.9759184910085, 0.6786227784442146
1158.7230882251756, 0.6386960110933427
1196.9694493119623, 0.6820405678791432
1255.0472568881937, 0.6031645498677931
1272.045639593432, 0.6174116098913518
1313.1250644644251, 0.6422991712312189
1332.9565109538698, 0.6513578854714411
1376.8689996090693, 0.628214832153614
1432.1137434010943, 0.4856085152228709
1450.5286579984358, 0.6191576087295549
1468.9435725957778, 0.590889330948567
1518.52218881939, 0.47198149301375486
1536.9371034167316, 0.5647786819119072
1606.3471661297885, 0.6944016176720114
1646.0100591086784, 0.5167968841113899
2859.9778906411257, 0.710108872330952
2927.97142146208, 0.6744289356451048
2950.635931735731, 0.682055231120977
2971.883910117279, 0.7343264182923295
3140.4512052775603, 0.6296580994725054
3304.768904761532, 0.6883921581963962
##END=


$$ === CHEMSPECTRA PEAK TABLE AUTO ===
##TITLE=LSH-R373B
##JCAMP-DX=5.00
##DATA TYPE=INFRAREDPEAKTABLE
##DATA CLASS=PEAKTABLE
##$CSCATEGORY=AUTO_PEAK
##$CSTHRESHOLD=0.93
##MAXX=3997.453
##MAXY=0.8795338817759525
##MINX=373.96442
##MINY=0.4239653916971483
##NPOINTS=71
##PEAKTABLE= (XY..XY)
2435.018323010164, 0.817724580576689
2429.352195441751, 0.817426677008183
2447.7671100390926, 0.8168665716417604
2420.853004089132, 0.8164219209767503
2473.2646840969505, 0.8163661316870562
2460.515897068022, 0.8149036721578878
2456.266301391712, 0.814901347467629
2487.430003017983, 0.8141714881071332
2497.3457262627053, 0.8134805513354435
2542.6747468100075, 0.8116732193373307
2515.760640860047, 0.8106458733453769
2525.676364104769, 0.8101004910172604
2551.1739381626267, 0.8097063257767485
2569.5888527599686, 0.8066860985134465
2590.836831141517, 0.80270736901887
2605.002150062549, 0.8020521954525017
2610.6682776309617, 0.8019432380883456
2637.5823835809224, 0.7973743034851855
2654.5807662861607, 0.7949343280847533
2681.494872236122, 0.7895573334411697
2694.2436592650506, 0.7884955954671125
2773.56944522283, 0.7826372932826291
3232.525778264269, 0.7812666844117091
2735.3230841360437, 0.7787674621748659
1012.8203033385453, 0.7656252935193808
1045.4005368569192, 0.7421106059442202
2971.883910117279, 0.7343264182923295
818.7554341204063, 0.7319597558245471
2869.893613885848, 0.7272481877945376
2859.9778906411257, 0.710108872330952
406.54465351837325, 0.7050012902845623
1079.3973022673963, 0.7039850312139099
977.4070060359654, 0.6978114803882525
874.0001779124314, 0.6948059163667843
1606.3471661297885, 0.6944016176720114
3304.768904761532, 0.6883921581963962
420.70997243940565, 0.6872541264764925
388.12973892103173, 0.6850759342986694
2950.635931735731, 0.682055231120977
1196.9694493119623, 0.6820405678791432
1128.9759184910085, 0.6786227784442146
1099.228748756841, 0.6758858521231872
932.0779854886628, 0.6757883986173805
1303.2093412197028, 0.6750717722981576
2927.97142146208, 0.6744289356451048
995.821920633307, 0.6691412294218804
498.61922650508177, 0.6526419483684386
1332.9565109538698, 0.6513578854714411
1313.1250644644251, 0.6422991712312189
1158.7230882251756, 0.6386960110933427
653.0212027443313, 0.6324666701588615
687.0179681548084, 0.631631012817694
3140.4512052775603, 0.6296580994725054
1376.8689996090693, 0.628214832153614
1450.5286579984358, 0.6191576087295549
1272.045639593432, 0.6174116098913518
670.0195854495696, 0.6114381519878184
1255.0472568881937, 0.6031645498677931
453.2902059577791, 0.5959886872939069
851.3356676387803, 0.5934588877622526
525.5333324550429, 0.5928958621982356
1468.9435725957778, 0.590889330948567
716.7651378889755, 0.5768624513662368
1536.9371034167316, 0.5647786819119072
1646.0100591086784, 0.5167968841113899
471.7051205551211, 0.5128552284297508
556.6970340813132, 0.5082296698436712
1432.1137434010943, 0.4856085152228709
606.2756503049254, 0.47422250834852114
1518.52218881939, 0.47198149301375486
749.3453714073494, 0.4239653916971483
##END=

##END=

