##TITLE=Sgl- 8RL 1058
##JCAMP-DX=4.24
##DATA TYPE=INFRARED SPECTRUM
##DATE=10/10/2019
##SAMPLING PROCEDURE=Diamant-ATR
##ORIGIN=Marie
##XUNITS=1/CM
##YUNITS=TRANSMITTANCE
##RESOLUTION=4
##FIRSTX=3997.453
##LASTX=373.96442
##DELTAX=-1.4165319
##MAXY=0.89727932
##MINY=0.28492019
##XFACTOR=1
##YFACTOR=8.3565649e-010
##NPOINTS=2559
##FIRSTY=0.77840555
##XYDATA=(X++(Y..Y))
3997+931489861+931403128+931605624+931899348+932109976+932156195+932076951
3988+932050632+932218820+932525882+932914470+933448065+933983444+934100776
3978+933708978+933309905+933336510+933602416+933661047+933437295+933292359
3968+933584157+934283658+935088580+935782446+936251063+936322532+935936156
3958+935335727+934842788+934567110+934419749+934274243+934105555+934002060
3948+933998779+934034656+934146283+934415256+934705128+934821747+934888936
3938+935182517+935733588+936364259+936973603+937556556+937954417+937861335
3928+937208696+936302133+935576455+935326169+935553559+935954986+936147925
3918+936066612+935980806+935970464+935821034+935510478+935295784+935342218
3908+935565685+935815328+936086512+936577312+937417612+938294360+938736942
3898+938702206+938546001+938549995+938716186+938851564+938789082+938611693
3888+938467613+938336443+938171892+938029381+937963333+937995929+938181949
3878+938567256+939122249+939672321+939828241+939357556+938653775+938283661
3869+938214688+938155772+938288796+938961978+940029240+940920039+941294576
3859+941163192+940696644+940167257+939853134+939794718+939824461+939975460
3849+940300852+940624390+940690296+940352207+939587300+938584374+937898354
3839+938103704+938991721+939712407+940038084+940357700+940755275+940941366
3829+940811195+940506844+940133948+939828741+939875246+940369254+940846430
3819+940949141+941107343+941683235+942291296+942472965+942389227+942347787
3809+942457558+942732737+943123251+943517830+943886090+944114692+943876746
3799+943261767+942981881+943518472+944487089+945097004+945136162+944955777
3789+944846719+944860627+945040228+945418830+945813196+945971612+945912625
3779+945897575+946086948+946373967+946645365+946966192+947444652+948043511
3769+948584311+948916764+948965552+948663483+948101143+947606992+947486949
3759+947736949+948005708+947953996+947560558+947029887+946710843+946921542
3750+947402641+947664410+948035737+949242514+950953071+951583457+950730389
3740+949320545+948192299+947797791+948155494+948848006+949490659+950027322
3730+950469405+950725824+950711916+950548863+950566552+950969833+951659991
3720+952397295+952892445+952878037+952413486+952015768+952201788+952770619
3710+952976468+952710419+952380462+952170048+952198293+952692017+953536953
3700+954139165+954296155+954424971+954761348+955061705+955127753+955177112
3690+955526185+956104430+956563703+956809638+957027184+957381108+957788668
3680+957896728+957481108+956842947+956611706+956935244+957283747+957454146
3670+957631179+957860780+958065131+958327043+958761422+959278684+959647086
3660+959800154+960007072+960612351+961524477+962183251+962358429+962401368
3650+962717346+963294521+963707361+963703652+963325049+962715562+962176047
3640+962048800+962412852+963090170+963898587+964618060+964940100+964819630
3631+964650871+964809358+965086249+965106363+964977618+964916206+964949872
3621+964971484+964835036+964510642+964237033+964316776+964779901+965363995
3611+965920843+966691814+967800659+968714426+968908648+968694098+968786894
3601+969402015+970089034+970519848+970912644+971469207+971923059+971900947
3591+971411789+970790105+970479691+970773058+971530762+972399521+973111647
3581+973485043+973481619+973256512+973008081+972869778+972957367+973320064
3571+973845956+974357725+974757654+975037255+975255443+975574845+976208511
3561+977198170+978213220+978709440+978490325+977964789+977667642+977690253
3551+977751594+977700238+977688897+977949882+978564504+979325418+979913578
3541+980340183+980974135+981978630+982918930+983225207+982947318+982623923
3531+982589115+982880414+983589615+984734908+985869360+986426707+986473783
3521+986598248+987037621+987426137+987428420+987183270+987040046+987145039
3512+987436694+987873784+988490617+989225925+989829278+990091047+990129349
3502+990229777+990382416+990384271+990368151+990741618+991577282+992465157
3492+993041477+993312447+993479566+993771007+994405743+995412805+996467514
3482+997167158+997513948+997879569+998488699+999260526+1000077359+1000890056
3472+1001592125+1001998973+1002007389+1001810956+1001913381+1002630928
3463+1003583639+1004127505+1004270016+1004587777+1005308604+1006079076
3455+1006563955+1006764740+1006835068+1006958962+1007316381+1007887708
3446+1008357323+1008438421+1008273015+1008346909+1008941988+1009707181
3438+1009969164+1009503472+1008699834+1007883927+1006895410+1005559746
3429+1004170087+1003161313+1002564594+1002070371+1001514379+1001017945
3421+1000554250+999694121+998139983+996220723+994408240+992668509+990686126
3411+988394112+985919645+983313153+980570141+977649668+974436969+970929691
3401+967371843+964005007+960819341+957622834+954200577+950445082+946456278
3391+942436446+938431450+934319749+930034582+925640855+921269882+917082004
3381+913101260+909003753+904360811+899220079+894156666+889622355+885471638
3371+881189752+876381617+871008004+865343164+859769336+854485737+849400855
3361+844381736+839527524+835034439+830902624+827031366+823506256+820462459
3352+817717735+814903397+812001897+809501895+807930995+807303605+807059596
3342+806558882+805638768+804684630+804242404+804594972+805527427+806489624
3332+807170438+807780923+808567871+809374862+809955675+810346546+810647045
3322+810812381+810904820+811252895+812132424+813395835+814553254+815221799
3312+815434281+815512812+815698761+815910245+815857534+815453968+815016449
3302+814858889+814800757+814346477+813245977+811688844+810052680+808563306
3292+807121151+805471934+803498894+801235697+798742971+796146036+793595891
3282+791070782+788403091+785514430+782431261+779151658+775664280+772061709
3272+768591379+765592161+763305711+761717622+760553427+759389731+757864338
3262+755966191+754099499+752732451+751964405+751468399+750895288+750341436
3252+750237228+750699069+751330453+751831095+752416616+753444434+754941654
3242+756634665+758201071+759451928+760445724+761433670+762644513+764152502
3233+765906712+767795800+769683177+771430753+772941739+774201725+775259001
3223+776196163+777150087+778265067+779533826+780786038+781909292+782965498
3213+784077767+785274701+786402519+787161364+787314931+786913647+786275486
3203+785735329+785377768+785018067+784482832+783816355+783082189+782077623
3193+780477122+778244096+775689958+773071482+770359568+767522048+764723045
3183+762012415+759144795+756005421+752905133+750176814+747719180+745150277
3173+742239647+739052127+735755619+732426944+729146912+726196054+723909391
3163+722306893+721028005+719611171+717780427+715589556+713360381+711429995
3153+709994616+709148895+708848538+708834629+708814657+708712874+708597468
3143+708473716+708346469+708427282+709065585+710396114+712179781+714095760
3133+716059313+718121013+720216949+722192200+723954541+725516953+726986996
3123+728514316+730161107+731842421+733454334+735026232+736725806+738687362
3114+740764682+742539148+743731731+744563686+745546212+746967825+748720180
3104+750482164+751912051+752841224+753475462+754256775+755386019+756599501
3094+757506278+758043939+758507562+759171614+760007777+760855496+761769191
3084+762965554+764457923+766051434+767746300+769811993+772302794+774780827
3074+776725693+778006079+778782685+779233755+779624839+780350803+781592601
3064+783122274+784602446+785877840+786941250+787861507+788745317+789634262
3054+790520925+791473921+792545676+793599600+794463224+795166434+795840258
3044+796517933+797203383+797966579+798812372+799592971+800179848+800648678
3034+801249178+802216725+803534772+804813232+805560451+805700394+805708383
3024+806137555+807069011+808104033+808840625+809276574+809733707+810491410
3014+811560527+812696048+813551042+813951185+814052469+814041342+813724794
3004+812711811+810986775+809091481+807800752+807719440+808991338+811240484
2995+813858603+816370659+818514812+820199406+821560534+822889565+824329081
2985+825773020+827137429+828520454+829987787+831390570+832512540+833250343
2975+833565679+833430800+832937861+832353124+831925521+831629087+831135577
2965+830119671+828633435+827098128+825866600+824966386+824359253+824215315
2955+824742919+825934646+827616530+829581296+831565392+833245279+834380444
2945+834951700+835195637+835473954+835957906+836415182+836443284+835891715
2935+834906978+833643068+832122882+830361540+828493564+826762535+825372021
2925+824330151+823508610+822848838+822382931+822097981+821956540+821990207
2915+822203045+822473017+822702547+822971876+823424730+824075372+824809182
2905+825528226+826247628+827065674+828054904+829187359+830368886+831533723
2895+832682939+833818033+834871172+835757621+836481016+837149776+837889791
2885+838722958+839498422+840040077+840422603+840952560+841752561+842550279
2876+843030736+843231592+843430950+843803062+844341864+844990081+845662336
2866+846195503+846437586+846405988+846310838+846412835+846820967+847388514
2856+847878101+848249998+848667901+849237731+849945220+850819044+851922469
2846+853191514+854429247+855393085+855873042+855888092+855823042+856155710
2836+857032886+858228750+859401362+860302361+860930464+861564701+862464345
2826+863534746+864486387+865237243+865920054+866592665+867180469+867592880
2816+867682395+867191168+865966702+864228897+862490451+861156927+860261419
2806+859636526+859249008+859228109+859602931+860195941+860813916+861440022
2796+862190665+863119767+864099582+864949939+865681823+866511852+867585391
2786+868780898+869851298+870671841+871281756+871759574+872164281+872581115
2776+873101800+873713498+874282329+874714997+875108221+875656010+876397309
2766+877128622+877615355+877815213+877842531+877795741+877726554+877724414
2757+877906440+878283473+878691105+878914287+878889180+878733901+878587182
2747+878497239+878472988+878546811+878747810+879056940+879430763+879851306
2737+880322918+880798667+881175915+881421992+881622990+881820138+881899453
2727+881765644+881536685+881437470+881553804+881789182+882017285+882169282
2717+882188255+882036971+881798169+881644959+881617712+881557584+881383903
2707+881291250+881476485+881801664+881956086+881860580+881680266+881530908
2697+881414431+881365929+881425843+881487184+881372990+881081193+880822562
2687+880788539+880955301+881150665+881260009+881309581+881379267+881520779
2677+881740751+881976200+882121065+882177770+882318640+882680124+883178698
2667+883633334+883977700+884249954+884470068+884622565+884710297+884793535
2657+884967857+885236331+885403236+885239184+884785903+884351737+884176416
2647+884236188+884396816+884603307+884819427+884879983+884586616+883996387
2638+883476487+883391465+883826630+884639541+885617145+886541254+887280127
2628+887900527+888563652+889282269+889919074+890450601+891069075+891946251
2618+892992186+893909590+894461160+894695468+894937337+895490333+896319364
2608+897126355+897732489+898190763+898536769+898734630+898909166+899313945
2598+899992690+900762377+901513162+902211023+902675931+902757814+902709526
2588+902997044+903712522+904467872+904922437+905172794+905516803+906027146
2578+906561026+907071726+907629643+908163025+908465450+908479287+908387205
2568+908441056+908779644+909309174+909738133+909875651+909859888+909962598
2558+910256821+910594838+910824582+910963027+911249689+912010175+913284855
2548+914598408+915285783+915085926+914313600+913512173+913080789+913130004
2538+913481645+913842273+914072159+914231146+914411175+914693557+915161675
2529+915713601+915983145+915731147+915224300+914971803+915114742+915281789
2519+915110034+914731646+914544699+914619164+914647837+914467951+914291988
2509+914388850+914815669+915442987+916028509+916356897+916495413+916761819
2499+917290706+917820949+918015029+917828867+917535357+917526869+918019951
2489+918774160+919224588+919099695+918795344+918911749+919542420+920244846
2479+920619525+920641565+920475659+920279796+920208041+920321450+920467385
2469+920488284+920538498+920949268+921781366+922723378+923458400+923962252
2459+924370312+924698986+924857403+924902766+925074307+925499985+926042496
2449+926547632+927079016+927740786+928419245+928876878+929041642+929091072
2439+929278447+929688647+930111258+930219318+929952841+929621885+929559047
2429+929793070+930132086+930458619+930822885+931253270+931617607+931796780
2419+931874455+931989291+932108335+932129733+932081374+932062971+932098350
2410+932147993+932215325+932377879+932666610+932943143+933060048+933121817
2400+933355269+933729378+933968180+933912830+933659977+933403629+933300633
2390+933408122+933632587+933805626+933847281+933810191+933751774+933696140
2380+933772317+934201632+934936939+935480948+935413473+935005698+934908266
2370+935294643+935708195+935698780+935272318+934686939+934043144+933232445
2360+932241859+931322671+930779518+930693356+930894497+931146994+931338007
2350+931479804+931615539+931808906+932116894+932411830+932365325+931900917
2340+931467037+931646637+932597351+933844214+934634942+934674100+934410833
2330+934354129+934337724+933874314+932972245+932201488+932096780+932602986
2320+933132302+933235155+932994570+932702772+932535654+932633443+933110048
2310+933866468+934693858+935524743+936292433+936711905+936559979+936120036
2300+936053060+936762333+937999210+939142007+939747143+939764546+939369396
2291+938799210+938327669+938215758+938597784+939405202+940385232+941255988
2281+941913264+942477459+943111268+943813337+944383380+944559201+944256918
2271+943766261+943623964+944113836+944984379+945846577+946615265+947337448
2261+947949717+948470544+949070260+949837521+950788521+951964413+953247652
2251+954406284+955389380+956151007+956432319+956251007+956185672+956676399
2241+957454931+957922263+957662277+956574046+954959494+953620192+953596511
2231+955418767+958383890+960936745+962183037+962553651+962645092+962313636
2221+961587316+961447587+962614064+964155078+964513495+963666205+963081682
2211+963523052+964116205+963852296+962910498+962097516+961876047+962387174
2201+963699301+965383039+966219702+965199730+962935320+961300797+961408785
2191+962712139+964288531+965872626+967119203+967162285+965869702+964596020
2181+964637033+965616848+966345023+966565137+966759931+966673768+965350372
2172+962835677+960829612+961157501+963906933+967247877+968982828+968515923
2162+967646094+968957721+972591533+975637469+976215644+975747954+976084403
2152+976978127+976945887+975405515+973398095+972447881+973122632+974786185
2142+976305658+976709867+975648596+973715143+972025555+971177338+970950162
2132+970977266+971163714+971480904+971805084+971979549+971841960+971257580
2122+970307437+969392529+968924198+968857935+968792528+968593456+968549019
2112+968816280+969131188+969171559+968894454+968570988+968684896+969528050
2102+970712573+971425341+971276910+970613999+970081188+970110575+970640247
2092+971198664+971463928+971622416+971871632+971837324+970976767+969333470
2082+967443597+965781827+964670200+964331469+964641741+965152797+965632184
2072+966399873+967993312+970499377+973209864+975130051+975918354+975992106
2062+975727341+975181335+974676413+974918496+976203019+977877057+978933620
2053+979177843+979469712+980476774+981489756+981338258+980453949+980613436
2043+982593609+985419146+987971288+990058094+991689978+992797254+994070294
2033+996315017+998560739+998838699+996998684+994850893+993960522+994795544
2023+996965446+998933849+998897687+997043905+995478782+995369510+996073362
2013+997218655+999214163+1001429500+1002062810+1000491482+998123649+996365802
2003+995334203+994875002+995373005+997100895+999486489+1001471940+1002571441
1993+1003275008+1004099188+1004606892+1004190130+1003238346+1002424651
1985+1001498259+999884421+998028642+997235489+998465661+1001658530+1005682214
1975+1008806325+1009896554+1009287281+1008183428+1007498906+1007637708
1966+1008850547+1010974229+1013172590+1014698768+1015634860+1016397914
1958+1016884219+1016585360+1015252193+1013303404+1011806612+1011754615
1949+1012959894+1014021379+1013852548+1012922519+1012541919+1013121449
1941+1013813390+1014055401+1014375516+1015313819+1016499340+1017220168
1932+1017251481+1016756188+1016072521+1015828441+1016510824+1017804691
1924+1018895277+1019399985+1019594279+1019804193+1020017674+1019996989
1915+1019615677+1019113964+1018953408+1019356047+1019977374+1020238858
1907+1020051626+1019942638+1020336219+1020946419+1021159330+1020938716
1898+1020939144+1021669173+1022847205+1023729517+1023936151+1023699275
1890+1023420958+1023284438+1023301557+1023481657+1023772670+1024022741
1881+1024165823+1024316322+1024597777+1024982014+1025347992+1025705695
1873+1026326452+1027509834+1029046354+1030023530+1029805199+1028972531
1864+1028480947+1028604485+1029002060+1029402560+1029925099+1030676313
1856+1031438581+1031978525+1032363475+1032769467+1033177384+1033482734
1847+1033844289+1034646073+1035892294+1036932095+1037383522+1037541154
1839+1037567687+1037235661+1036535803+1035998927+1036139298+1036900283
1830+1037673180+1037897003+1037707060+1037563479+1037587302+1037659057
1822+1037832167+1038290655+1039030670+1039782739+1040261413+1040448431
1813+1040594936+1040960058+1041572113+1042252356+1042869260+1043454425
1805+1044041016+1044481530+1044593085+1044540089+1044726038+1045200147
1796+1045702358+1046178107+1046764057+1047368051+1047718052+1047882317
1788+1048217339+1048981747+1050135314+1051378753+1052454146+1053287171
1779+1053896302+1054424619+1055149013+1056283037+1057740955+1059050942
1771+1059808860+1060220343+1060664709+1061183112+1061653725+1062078619
1762+1062520844+1062985253+1063485539+1063987750+1064316852+1064421488
1754+1064537251+1064852587+1065264142+1065629406+1066122916+1066996454
1745+1068157083+1069234616+1069982262+1070463789+1070826200+1071135687
1737+1071489753+1071903020+1072014361+1071509154+1070727841+1069959723
1728+1069105942+1068019921+1066688251+1065228051+1063826766+1062560431
1720+1061297306+1059838389+1058251654+1056971768+1056209000+1055826688
1711+1055729827+1055935747+1056472766+1057380541+1058611355+1059915636
1703+1061211928+1062772771+1064526196+1065763786+1066375412+1066775698
1694+1067013287+1067127909+1067458865+1068248524+1069356513+1070507441
1686+1071581122+1072382692+1072571708+1072201380+1071628055+1071163362
1677+1070958654+1070957013+1071083476+1071383048+1071881622+1072526630
1669+1073150524+1073559369+1073741823+1073639113+1072925489+1071405159
1660+1069411007+1067384900+1065610647+1064076053+1061574125+1055621267
1652+1047382174+1039508630+1029144428+1010918880+984122355+956438026+932360832
1642+910970516+892347892+877416354+865071409+852448432+839100419+827202835
1632+816134853+803364586+787471778+769333819+750706344+731525944+711138054
1622+691897170+676726260+664175822+649978522+632549693+615512804+600903021
1612+586826334+571671080+555729307+540509538+527399756+516946039+509264792
1602+504511365+502664217+503402127+506323813+510974244+516911481+523860666
1592+531599331+539924480+548791035+558204522+568079922+578302326+588719203
1582+599023348+608793897+617957242+627445053+638693492+650775313+660851355
1572+669032673+677598157+687621632+697683907+706592973+714756103+722175509
1562+728450835+734609113+743629734+755741868+765497011+772449085+778977763
1553+785654801+792307160+798891116+805172006+811038629+816902542+822954401
1543+828883578+835218605+842688938+849333665+853860202+857565483+861870836
1533+866858429+871381399+875023057+878474985+882325487+886382338+890238546
1523+894082772+898194686+902169440+905591910+908605750+911356322+913781788
1513+915846839+917549622+918869452+919998126+921532792+923572665+925248558
1503+926444137+927636221+929213041+931439718+934323387+937249281+939464404
1493+940747429+940858698+938959125+934079592+926175877+915899479+903556174
1483+888961512+872515994+856131102+841917183+830584079+822214814+817523156
1473+817672657+822573374+829786075+836994640+843623461+849728673+854952999
1463+858773544+861308068+863032249+864274119+865243734+866152223+867248301
1453+868743951+870674195+872894739+875125981+876779692+876945312+874862786
1443+870071413+862495729+852561342+839955270+822843987+801718722+782874842
1434+770952080+765079037+763271617+763236667+761405567+754040369+739008546
1424+717969229+696080126+677759213+665961344+663484666+669271546+678930897
1414+689993673+702188190+715012879+726638280+735763180+744048493+754995434
1404+769668127+785767497+801571860+817051686+831681512+844141364+853651215
1394+859934244+862996443+863260922+860934744+855588877+846903777+835570459
1384+822620663+808590339+794009800+779867208+767172476+756340656+747266969
1374+740000701+734995134+732403263+731751622+732440139+734048771+736317603
1364+739107405+742223813+745187937+747456413+748781806+749074674+748145429
1354+745721461+741578520+735555976+727591277+717807032+706434841+693760438
1344+680212924+666128391+651377596+635732363+619706602+604404308+590446451
1334+577781534+566356775+556424885+548256405+541792777+536657003+532507855
1324+529494658+528401611+530246477+535688849+544637501+556164935+568869652
1315+581328292+592106474+599812293+603583908+603323565+599463790+592876660
1305+584880933+576890984+569965052+564731097+561515367+560262548+560315687
1295+560488083+559488190+556285512+550239681+541291172+530221192+518472217
1285+507447245+497970526+490283572+484251792+479527858+475742121+472756776
1275+470810163+470318294+471435484+473845828+477009204+480509207+484160922
1265+487946731+491917062+496093277+500424985+504822849+509206839+513520573
1255+517735590+521898611+526162166+530637990+535127294+539034180+541573126
1245+542066671+540201192+536237138+531048618+525842123+521661521+519009486
1235+517857060+517967688+519127852+521069901+523375145+525648435+527750755
1225+529760992+531798868+533998513+536535961+539513567+542858505+546420669
1215+550105016+553852094+557571319+561153098+564527387+567695685+570694831
1205+573503892+575994514+577993339+579400152+580276401+580855288+581469447
1196+582435069+583947409+586040171+588648590+591692601+595050271+598519924
1186+601956945+605419786+609049318+612840334+616638268+620303606+623795906
1176+627162813+630522872+634005685+637645488+641325734+644843639+648066537
1166+651078737+654155415+657515974+661107917+664696721+668162844+671676113
1156+675585602+680098659+685029618+689969351+694764576+699692397+705106809
1146+711076999+717416875+723927365+730541849+737219957+743587437+748591292
1136+750496358+747178809+736479800+716741910+687829121+652256840+615246185
1126+583013386+560254203+548557226+546579621+551435188+560133839+570295152
1116+580171943+588491207+594441319+597833618+599304375+600198170+601889399
1106+605068930+609706523+615485628+622002252+628712315+635069452+640786575
1096+645819817+650117680+653497497+655727884+656646644+656305131+655165259
1086+654129024+654233518+656203063+660143508+665573541+671839594+678571125
1077+685676338+693009653+700228845+706866368+712334560+715938129+717037060
1067+715289698+711016086+705548464+701000814+699266005+701028132+705615654
1057+711625430+717595121+722203398+724150190+722206964+715546974+703937692
1047+687587680+667084526+643711613+619552893+596753089+576513345+558898746
1037+543490781+530090379+518995256+510811298+505977022+504420245+505625132
1027+508923387+513714332+519537696+526033564+532889275+539858218+546808116
1017+553709191+560557520+567311412+573929641+580429468+586817526+593048593
1007+599174846+605417219+612016938+619164804+627099689+636115387+645997848
997+654421963+655940937+645270815+623881355+601579127+588886607+588573697
987+595896491+604942753+612363158+616530922+616373432+612132488+606329487
977+602783693+604025206+609654240+617264160+624615165+630820233+636009110
967+640456617+644219673+647416822+650399920+653402490+656295288+658891439
958+661248288+663526820+665757564+667859134+669787809+671601149+673402149
948+675266201+677219769+679192310+681015992+682641528+684307435+686257650
938+688365712+690302803+692007369+693721993+695621994+697640184+699657803
928+701698746+703862585+706123857+708294472+710238624+712063162+714001395
918+716139699+718375292+720615023+722883213+725236852+727723231+730401764
908+733240211+736081297+738897063+741906694+745236868+748710551+752193506
898+755881597+760052071+764731033+769737029+774969201+780578478+786758582
888+793377132+800106952+806918227+813497404+816801116+808950610+780082472
878+727479222+663171898+609078491+581332393+579772834+592760718+608979489
868+623408958+635873946+647694783+659601853+671217910+681777262+690933260
858+698750884+705429348+711275073+716546261+721221443+725196196+728626013
849+731792992+734791139+737645992+740580944+743858051+747441791+751015403
839+754224250+756875963+759138804+761505425+764285527+767254003+770041451
829+772598942+775015492+777251086+779347949+781534755+783801091+785612932
819+786252876+785328053+783086468+780619919+779618991+781325910+785530693
809+790822351+795753739+799612658+802467795+804939837+807711522+810887987
799+813979074+816656893+819190347+821900050+824530579+826544347+827941138
789+829471239+831927304+835370673+839205483+842935800+846602565+850421826
779+854307278+858040519+861660850+865273121+868612924+871157790+872539745
769+872662998+871678903+869792596+866565846+860257710+847802138+825233861
759+789324062+741079874+687856582+640064677+604865720+583259962+572290660
749+568365158+568641585+571188769+574953109+579366735+583874085+587959110
739+591309576+593557402+594045063+592199413+588196236+583302865+579587991
730+578905394+581701188+586814102+592563500+597965822+602996960+608072927
720+613431276+618758099+623252610+626207605+627755395+628937422+630716382
710+633058395+635287070+636997628+638208113+638939997+639081937+638501266
700+637076586+634739138+631634713+628289133+625426506+623284707+621218300
690+618360238+614513374+610058378+605294180+600250025+594938894+589470024
680+583917987+578245871+572403428+566447681+560727349+555938401+552595032
670+550428233+548248916+544807829+540405187+535871481+531689060+528765306
660+528323188+530861171+535661424+541226015+546241033+550359331+554093428
650+558041791+562188013+565908487+568629209+570234845+570862271+570650538
640+569736379+568295079+566560913+564796682+563124926+561537086+560249531
630+559678418+559815686+560153597+560452456+560996786+561990367+563330917
620+564964299+566878031+568859523+570726750+572738378+575454642+579083176
611+583077473+586680828+589834896+592979299+596006798+598277163+599727557
601+601150810+603260726+606014794+608858305+611252530+612928637+613954957
591+614876783+616638054+619866873+624239986+628783641+632598195+635167740
581+636568098+637726159+639790426+642850128+645563041+646076022+643131798
571+636534503+627310031+617837841+611398607+610667294+615975429+624894337
561+633789708+640183579+643761327+645275309+644817177+641230441+633044201
551+620147044+605017789+592121167+585236390+584920805+588536286+592888964
541+596800950+600853092+605138902+608599960+610801388+612679778+614841548
531+616652819+617513519+617594689+617151036+616364730+615827283+616164160
521+617324574+618587771+619005888+618145973+616541407+614975072+613749037
511+613038694+613025356+613161090+612437837+611048535+610542686+611763871
501+613601462+614240692+613113801+611263300+610287408+610799248+611742687
492+611683058+610510090+609242471+608600602+608261657+607289759+605388117
482+603581197+603059656+603725990+604581697+605294251+606669573+609489832
472+613284200+616802106+619488057+621655533+623729358+625892912+628080288
462+630079648+631810605+633294629+634292775+634607968+634671449+635248482
452+636885217+639207900+640395847+638526302+633979508+629010104+624274365
442+617867014+608544468+597803696+588283646+581784997+578744838+579126721
432+583264563+591022201+601057087+612019292+623520228+635240280+646625595
422+658019184+670002645+680187603+683965780+682381328+680639458+681213852
412+683841671+687736040+692624845+697977702+702521143+705357380+707221932
402+710515515+717411454+725848551+726602688+711951036+686804370+658752993
392+629698763+599269710+567227318+532288490+491314208+443712425+398372412
382+367328416+351645415+344386280+340953717+342677006+354195310+373565581
##END=
