##TITLE=JMB-189_B
##JCAMP-DX=4.24
##DATA TYPE=INFRARED SPECTRUM
##DATE=3/4/2019
##SAMPLING PROCEDURE=Diamant-ATR
##ORIGIN=Angelika Moesle
##XUNITS=1/CM
##YUNITS=TRANSMITTANCE
##RESOLUTION=4
##FIRSTX=3997.453
##LASTX=373.96442
##DELTAX=-1.4165319
##MAXY=1.0009114
##MINY=0.4788149
##XFACTOR=1
##YFACTOR=9.3217134e-010
##NPOINTS=2559
##FIRSTY=0.99817973
##XYDATA=(X++(Y..Y))
3997+1070811438+1070593013+1071053521+1071564735+1071417222+1070793406
3989+1070376378+1070387376+1070493839+1070452213+1070411035+1070575684
3980+1070887145+1071146556+1071206278+1070966304+1070503430+1070223238
3972+1070477982+1071057358+1071438450+1071440177+1071349188+1071527201
3963+1072050820+1072607241+1072728475+1072229537+1071319007+1070381238
3955+1069866187+1070159807+1071189525+1072293607+1072764154+1072476800
3946+1071824466+1071183706+1070692826+1070363078+1070168056+1070039981
3938+1069856979+1069550379+1069323961+1069629731+1070665395+1071908422
3929+1072542468+1072338686+1071782840+1071562369+1071912131+1072329990
3921+1072214383+1071619277+1071134855+1071179103+1071636094+1072178128
3912+1072496366+1072288428+1071486534+1070458543+1069720400+1069548780
3904+1069910818+1070535529+1070981459+1070858627+1070205270+1069480107
3895+1069088720+1069210657+1069917596+1070955243+1071645877+1071640570
3887+1071193617+1070572487+1069800199+1069018895+1068628979+1068809486
3878+1069209633+1069388478+1069181051+1068698419+1068471810+1069071711
3870+1070066772+1070195551+1069285724+1068491696+1068658712+1069483943
3861+1070160191+1070352975+1070046247+1069260020+1068302620+1067965967
3853+1068729943+1069585611+1069734787+1069507410+1069231821+1068953803
3844+1068685056+1068543041+1068656601+1069045239+1069562208+1069934157
3836+1070076172+1070192737+1070389103+1070544097+1070605545+1070667377
3827+1070605865+1070056094+1069005084+1067992311+1067566651+1067768579
3819+1068249740+1068806097+1069223892+1069095945+1068446233+1067735713
3810+1067292980+1067286074+1067721070+1068167831+1068126652+1067746135
3802+1067514602+1067514730+1067452003+1067341896+1067453730+1067835462
3793+1068254088+1068437473+1068229790+1067731301+1067329491+1067332880
3785+1067626692+1067884697+1067987707+1067922231+1067558978+1066977875
3776+1066650558+1066847051+1067299246+1067607701+1067687629+1067727656
3768+1067826446+1067856371+1067652333+1067250267+1066929024+1066956007
3759+1067310756+1067713525+1067987323+1068155810+1068235034+1068266173
3751+1068331138+1068243154+1067795115+1067411017+1067873699+1069143646
3742+1069775773+1069123184+1067918202+1066913614+1066380212+1066193119
3734+1066235064+1066527278+1066871604+1066991879+1066864251+1066586808
3725+1066169332+1065686828+1065470833+1065797383+1066453233+1066902488
3717+1066874226+1066584826+1066481815+1066942771+1067980418+1068943124
3708+1069038461+1068165593+1066861374+1065804545+1065412262+1065661699
3700+1066183591+1066635659+1066930622+1067137794+1067313505+1067510894
3691+1067936745+1068693112+1069087888+1068216043+1066457390+1064909361
3683+1064223586+1064361891+1064864793+1065409257+1066104879+1066976916
3674+1067405070+1067122128+1066814376+1067060552+1067575283+1067674712
3666+1067328148+1066952746+1066814568+1066896158+1067102050+1067364019
3657+1067477196+1067149047+1066520564+1066129049+1066242673+1066708425
3649+1067202119+1067604121+1067981569+1068257221+1068235225+1067738270
3640+1066811371+1065873282+1065458300+1065744503+1066381938+1066797368
3632+1066723004+1066397284+1066344149+1066772303+1067114839+1066867384
3623+1066152580+1065551975+1065703581+1066516344+1066999616+1066628306
3615+1065870852+1065114294+1064223330+1063195850+1062641156+1063184469
3606+1064566377+1065868103+1066486547+1066391402+1065891314+1065407850
3598+1065202533+1065216728+1065196651+1065019085+1064870868+1064992101
3589+1065419104+1066039019+1066624150+1066853317+1066590005+1065988313
3581+1065252472+1064458316+1063735135+1063444583+1063841598+1064628848
3572+1065164296+1065028676+1064241681+1063272900+1063014128+1063870371
3564+1064942482+1065171010+1064511323+1063758857+1063672791+1064355561
3555+1065322680+1065878717+1065629153+1064875024+1064293985+1064281453
3547+1064803409+1065480424+1065787792+1065561950+1065097605+1064667149
3538+1064333310+1064153761+1064157981+1064178762+1064023448+1063670937
3530+1063230954+1062927998+1063030689+1063501236+1063864553+1063669275
3521+1062969816+1062210124+1061752557+1061658307+1061851347+1062314030
3513+1063038106+1063880986+1064552502+1064743624+1064381266+1063757706
3504+1063257874+1063012465+1062962846+1063084400+1063235750+1063063235
3496+1062429317+1061666748+1061136351+1060894012+1060986983+1061580235
3488+1062585207+1063550791+1064085152+1064114885+1063770047+1063288182
3479+1062956772+1062935032+1063102495+1063103199+1062656885+1061944319
3471+1061534452+1061772763+1062381233+1062787774+1062720188+1062402973
3462+1062264283+1062487376+1062869492+1063144377+1063233768+1063078389
3454+1062539105+1061690406+1060982827+1060893373+1061408871+1061887283
3445+1061639317+1060719003+1059861417+1059652008+1060026451+1060560492
3437+1060938643+1061049454+1060889408+1060546936+1060251142+1060260541
3428+1060626352+1061144408+1061556065+1061713361+1061635224+1061526204
3420+1061576590+1061694818+1061653192+1061476585+1061425112+1061601335
3411+1061816691+1061900838+1061928333+1061973220+1061807803+1061149971
3403+1060181062+1059514917+1059619653+1060379153+1061164230+1061389305
3394+1061083663+1060742790+1060655701+1060726549+1060824060+1060864471
3386+1060703530+1060303958+1059854192+1059575917+1059568628+1059775927
3377+1060004519+1060166227+1060411444+1060765041+1060931034+1060754299
3369+1060487023+1060353768+1060276974+1060162135+1060039623+1059882390
3360+1059645805+1059473419+1059576301+1059933415+1060277038+1060329279
3352+1059991730+1059427061+1059004726+1059040661+1059540302+1060251717
3343+1060904179+1061349789+1061626848+1061903908+1062224959+1062359620
3335+1062050782+1061327025+1060506077+1059982970+1059918197+1060007780
3326+1059763394+1059115537+1058463203+1058145285+1058153022+1058281417
3318+1058310702+1058169711+1058044257+1058204175+1058733293+1059514917
3309+1060298203+1060731536+1060661328+1060391622+1060281003+1060185154
3301+1059729697+1059003383+1058469789+1058283527+1058170286+1057920018
3292+1057625950+1057463474+1057486621+1057625758+1057800255+1058068939
3284+1058566085+1059199045+1059613643+1059553857+1059044689+1058277836
3275+1057624224+1057548773+1058065166+1058533923+1058465633+1058237681
3267+1058546519+1059367659+1059980860+1059976256+1059712369+1059653734
3258+1059708596+1059482370+1058916294+1058425158+1058495686+1059191691
3250+1059992050+1060224414+1059743892+1059043858+1058678431+1058755545
3241+1059012015+1059182676+1059205247+1059142392+1059024867+1058885091
3233+1058865077+1059111956+1059576173+1060038919+1060323204+1060392965
3224+1060266935+1059921075+1059316570+1058535585+1057849299+1057598647
3216+1057950007+1058716988+1059480069+1059945372+1060099472+1060024341
3207+1059827720+1059770684+1060064048+1060445525+1060392453+1059887249
3199+1059518817+1059685194+1060131699+1060439067+1060506525+1060382031
3190+1060033676+1059502768+1059034714+1058927804+1059367147+1060347886
3182+1061598586+1062618776+1062935032+1062413139+1061350876+1060269621
3173+1059582056+1059392660+1059507436+1059613259+1059539087+1059376739
3165+1059290481+1059272833+1059183699+1058938930+1058564295+1058156411
3156+1057869696+1057843544+1058068363+1058353223+1058473370+1058368122
3148+1058173739+1058046559+1058011775+1057996748+1057936451+1057858315
3139+1057898470+1058148738+1058455402+1058563656+1058518513+1058690644
3131+1059258702+1059873758+1060016795+1059547783+1058736746+1057909979
3122+1057302917+1057091078+1057227849+1057376961+1057314362+1057248694
3114+1057494166+1058004997+1058477654+1058732206+1058798833+1058762387
3105+1058660655+1058532964+1058534626+1058866612+1059447330+1059825801
3097+1059674643+1059202114+1058815202+1058568835+1058257055+1057830308
3088+1057367881+1056806665+1056021780+1055069304+1054094193+1053083530
3080+1051868126+1050244326+1047968320+1044884986+1041295489+1037963038
3071+1035516884+1034088553+1033648634+1034213943+1035480053+1036759079
3063+1037592880+1038049168+1038244510+1037948971+1036822254+1034880919
3054+1032637715+1030687557+1029094960+1027399481+1025408720+1023718612
3046+1023166923+1023979814+1025698759+1027705634+1029519214+1030749580
3037+1031168910+1030938464+1030530324+1030327437+1030437992+1030856619
3029+1031559466+1032419291+1033235890+1033887009+1034339013+1034539151
3020+1034407878+1033968918+1033458663+1033260316+1033649018+1034581864
3012+1035746498+1036749424+1037246507+1037072138+1036410213+1035773929
3003+1035669129+1036222928+1037169969+1038196362+1039232026+1040329521
2995+1041313201+1041770512+1041494732+1040764773+1040082898+1039743112
2986+1039734416+1039922852+1040202022+1040539506+1040962864+1041457006
2978+1041842447+1041872307+1041528685+1041162235+1041209168+1041733874
2969+1042317789+1042513643+1042365746+1042285819+1042464088+1042718640
2961+1042896526+1043027926+1043034960+1042702527+1042028581+1041301244
2952+1040772829+1040451906+1040198121+1039910128+1039671050+1039723929
2944+1040200295+1040911391+1041538596+1041945009+1042195085+1042399123
2935+1042610898+1042741659+1042592099+1042131144+1041630672+1041313393
2927+1041027829+1040498200+1039764980+1039160731+1038887188+1038759241
2918+1038427191+1037836306+1037358853+1037407385+1038020266+1038910335
2910+1039801619+1040614190+1041360262+1041984525+1042389276+1042615246
2901+1042857138+1043219879+1043560305+1043686526+1043620410+1043533705
2893+1043503653+1043494573+1043512093+1043610819+1043776172+1043954634
2884+1044141471+1044290456+1044253881+1044014227+1043824193+1043888454
2876+1044034817+1043996004+1043903033+1044149976+1044756079+1045223302
2867+1045178990+1044842784+1044627620+1044540979+1044293461+1043826942
2859+1043388686+1043140080+1042999089+1042896078+1042922934+1043149543
2850+1043505123+1043929696+1044455553+1045034418+1045454515+1045543586
2842+1045373629+1045219785+1045336350+1045714566+1046065286+1046178527
2833+1046220089+1046470805+1046892756+1047229601+1047407935+1047566702
2825+1047796636+1048048311+1048212002+1048182653+1047944278+1047649442
2816+1047534603+1047681989+1047886986+1047848813+1047533260+1047215406
2808+1047094748+1047067701+1046992825+1046932336+1046991610+1047150953
2799+1047375964+1047676170+1047964803+1048042812+1047826497+1047496430
2791+1047366372+1047609863+1048095820+1048484713+1048545905+1048386243
2782+1048302287+1048432089+1048622188+1048610039+1048268143+1047735892
2774+1047346870+1047331396+1047580385+1047825922+1047975034+1048083415
2765+1048113851+1047962693+1047657563+1047363495+1047267071+1047515293
2757+1048097610+1048722257+1048981988+1048740224+1048252988+1047881103
2748+1047797979+1047987119+1048351395+1048732232+1048951616+1048944774
2740+1048791634+1048583823+1048348645+1048110207+1047896705+1047686465
2731+1047459791+1047283056+1047248656+1047375452+1047601486+1047805524
2723+1047869402+1047829183+1047867995+1048048950+1048183867+1048092750
2714+1047856422+1047703026+1047754051+1047945684+1048125553+1048151833
2706+1047943702+1047545921+1047167769+1047033939+1047143024+1047300576
2697+1047404610+1047521815+1047677321+1047777134+1047776367+1047768118
2689+1047831165+1047868059+1047662678+1047133177+1046472979+1045990091
2680+1045833817+1045900380+1045969949+1045913680+1045759133+1045597744
2672+1045525554+1045630227+1045858179+1045965793+1045848779+1045791488
2663+1046098664+1046636669+1047011752+1047047239+1046873126+1046701698
2655+1046678040+1046824274+1047026586+1047138292+1047109582+1046974665
2646+1046781817+1046632130+1046699844+1047022302+1047335936+1047327176
2638+1047040206+1046862703+1047125376+1047804693+1048546673+1048953790
2629+1048922586+1048690158+1048550381+1048646230+1048969903+1049353809
2621+1049539816+1049446397+1049272859+1049195617+1049081993+1048640667
2612+1047857381+1047193026+1047188359+1047859619+1048712474+1049371201
2604+1049889449+1050383527+1050695498+1050609497+1050202891+1049744685
2595+1049310201+1048790355+1048281379+1048086420+1048243909+1048437460
2587+1048431706+1048291289+1048162895+1048079323+1048006429+1047999204
2578+1048240903+1048772643+1049274138+1049404003+1049249776+1049152009
2570+1049272411+1049557400+1049857734+1049923594+1049584063+1049060508
2561+1048851227+1049213969+1049962151+1050835083+1051820105+1052896628
2553+1053708305+1053803514+1053095807+1051900224+1050691662+1049858118
2544+1049431498+1049130780+1048869834+1048933137+1049465004+1050198160
2536+1050828305+1051233888+1051301410+1050971918+1050448428+1050045403
2527+1049918734+1050082425+1050444016+1050728556+1050700614+1050555466
2519+1050702852+1051069494+1051051846+1050329240+1049355088+1048902956
2510+1049345816+1050374959+1051261063+1051482813+1051183949+1050882400
2502+1050805095+1050754645+1050539608+1050244390+1050065736+1050071044
2493+1050168683+1050252126+1050328409+1050501307+1050808547+1051066296
2485+1050992380+1050592424+1050229811+1050135753+1050126417+1050056785
2476+1050144065+1050525605+1050895380+1050896211+1050536347+1050041311
2468+1049627032+1049490325+1049712906+1050134090+1050499069+1050689360
2459+1050735462+1050747163+1050855928+1051051846+1051068534+1050648565
2451+1049952559+1049510019+1049707663+1050433593+1051224041+1051679114
2442+1051781613+1051866591+1052202029+1052578071+1052481263+1051689920
2434+1050502842+1049368580+1048549678+1048168521+1048291481+1048784856
2425+1049264802+1049417239+1049368708+1049511042+1049927047+1050245668
2417+1050161201+1049800634+1049461551+1049292105+1049353937+1049686114
2408+1050147646+1050454310+1050514607+1050509492+1050516526+1050320928
2400+1049811824+1049317938+1049239162+1049493010+1049656317+1049568781
2391+1049471590+1049588859+1049880881+1050217214+1050505144+1050615188
2383+1050476562+1050341325+1050665638+1051529618+1052371667+1052532352
2374+1051950035+1051155623+1050695434+1050722546+1051026844+1051256267
2366+1051188809+1050962135+1050903245+1051021473+1051006831+1050798445
2357+1050623756+1050474836+1050189400+1049895396+1049784073+1049741680
2349+1049591736+1049376508+1049281875+1049410206+1049670385+1049834843
2340+1049601775+1048740992+1047389136+1046115544+1045527025+1045802486
2332+1046596258+1047288747+1047377882+1046817688+1045995909+1045355661
2323+1045124064+1045352528+1045958376+1046645238+1047013222+1046887833
2315+1046488197+1046280898+1046621451+1047419636+1048195952+1048535419
2306+1048399990+1048047288+1047843378+1048076893+1048668162+1049124962
2298+1049071506+1048691884+1048354975+1048046073+1047576677+1047117192
2289+1047056447+1047483961+1048167179+1048844833+1049286798+1049329895
2281+1049106099+1049005135+1049274777+1049819625+1050365815+1050531552
2272+1049821990+1048138852+1046397272+1045933822+1047003567+1048554921
2264+1049700693+1050506231+1051155879+1051395788+1051035285+1050215808
2255+1049232064+1048579091+1048765481+1049654016+1050473876+1050711740
2247+1050500284+1050126673+1049761821+1049637135+1049888106+1050217918
2238+1050223225+1050048024+1050196625+1050720116+1051140980+1051188489
2230+1051077550+1051035221+1051081770+1051356656+1052133228+1053268769
2221+1053982615+1053495443+1051875223+1050096364+1049189863+1049247730
2213+1049331493+1048536250+1047098329+1046225396+1046982338+1049410973
2204+1052396029+1054371764+1054616725+1053847826+1053251249+1053264293
2196+1053619681+1054050904+1054480721+1054811811+1054938352+1054950628
2187+1055138937+1055602642+1055967110+1055849969+1055440742+1055013100
2179+1054169261+1052492900+1050721459+1050170025+1050946662+1051750857
2170+1051470536+1050117209+1048469047+1047502185+1047781482+1048873159
2162+1050018036+1051446878+1053642317+1055502382+1055490169+1054057299
2153+1052994012+1053206106+1054099436+1054806248+1055258572+1055689667
2145+1055801181+1055356019+1055001206+1055363500+1055937185+1055912824
2136+1055445921+1055190666+1055212853+1055079727+1054546389+1053681577
2128+1052710366+1052064235+1052224153+1053071573+1053640271+1053146001
2119+1052128049+1051830080+1052531905+1053286929+1053265125+1052651540
2111+1052140262+1052085080+1052254526+1052166861+1051634099+1051023456
2102+1050884126+1051285808+1051740690+1051821768+1051542726+1051063419
2094+1050486409+1050049815+1049969120+1050014775+1049717510+1048955196
2085+1047994664+1047175187+1046825873+1047156452+1048043835+1049137430
2077+1050160498+1050976714+1051543238+1051833469+1051769655+1051521434
2068+1051707760+1052574298+1053224905+1052692271+1051465804+1050798828
2060+1050985922+1051414267+1051789669+1052277992+1052690161+1052365081
2051+1050990909+1049187816+1048160081+1048572889+1049734135+1050209733
2043+1049438148+1048652304+1049731065+1053004114+1056792150+1059074550
2034+1059051979+1057293645+1055137914+1053755749+1053052390+1051762942
2026+1049253037+1046626567+1045293126+1045144909+1045099766+1044867466
2017+1045128092+1046256856+1047789475+1049106674+1050123156+1051375455
2009+1053372355+1055484158+1055971650+1053931206+1050651570+1048297556
2000+1047845360+1048815292+1050392990+1051914228+1052470393+1051279350
1992+1048935438+1047182860+1046825937+1047109327+1047213871+1047027673
1983+1046624009+1046183259+1046427388+1048035331+1050393054+1051843188
1975+1051574633+1050381225+1049458801+1049308027+1049689631+1049798076
1966+1048753332+1046884699+1045801271+1046315426+1047270268+1047245267
1958+1046439601+1045916430+1046096362+1046826768+1048091472+1049863553
1949+1051552701+1052243592+1051693821+1050723441+1050326235+1050620751
1941+1050921341+1050752534+1050467866+1050908233+1052457413+1054431997
1932+1055630968+1055358321+1053790726+1051723042+1050078844+1049271516
1924+1048973803+1048656077+1048236300+1048007516+1048085781+1048069604
1915+1047403523+1046106912+1044851033+1044268779+1044279074+1044247039
1907+1043783781+1043119491+1042714995+1042733411+1042956503+1043105488
1898+1043049411+1042736032+1042221813+1041778505+1041672426+1041858496
1890+1042101986+1042304362+1042494972+1042598558+1042519845+1042405390
1881+1042587112+1043265278+1044329268+1045407646+1046136198+1046549197
1873+1047057790+1047864351+1048622699+1048918238+1048902125+1048936589
1864+1048998229+1048881472+1048567390+1048265073+1048223255+1048485481
1856+1048787413+1048814397+1048638685+1048685874+1049112301+1049486232
1847+1049316020+1048615410+1047760573+1047052035+1046606809+1046510896
1839+1046766407+1047135223+1047242006+1046933231+1046393819+1045900764
1830+1045586235+1045378616+1045077387+1044470899+1043511262+1042467541
1822+1041703885+1041345044+1041272854+1041247980+1041067409+1040762663
1813+1040569687+1040634204+1040817397+1040913501+1040962736+1041170803
1805+1041671850+1042460763+1043371038+1044102339+1044526529+1044858258
1796+1045274902+1045673451+1045951150+1046239463+1046591079+1046806563
1788+1046802662+1046660775+1046398487+1045996741+1045553752+1045177327
1779+1044859345+1044588360+1044425756+1044409323+1044491680+1044541811
1771+1044435412+1044181883+1043864796+1043568042+1043418354+1043545726
1762+1043913519+1044314754+1044709338+1045223557+1045711177+1045815146
1754+1045492432+1045041707+1044745401+1044660614+1044681140+1044755568
1745+1044872070+1044933965+1044831275+1044618605+1044498970+1044597184
1737+1044911074+1045408349+1045871799+1045936444+1045680996+1045475040
1728+1045537703+1045911187+1046521319+1047173396+1047620988+1047791585
1720+1047857189+1048067238+1048479854+1048833451+1048937101+1048848989
1711+1048672702+1048461183+1048233550+1048041533+1048004447+1048188919
1703+1048510929+1048805765+1048912803+1048882942+1048916704+1048929748
1694+1048637470+1048056368+1047452374+1046993209+1046672285+1046460638
1686+1046434678+1046598049+1046652335+1046427900+1046057677+1045665650
1677+1045315889+1044981346+1044542514+1043977461+1043378263+1042753680
1669+1042093034+1041548890+1041280463+1041329123+1041693910+1042321562
1660+1043054910+1043675208+1044017680+1044116278+1044263408+1044769507
1652+1045341913+1045670382+1045935804+1046270475+1046607576+1046872678
1643+1047133241+1047429739+1047696631+1047882702+1048093454+1048479918
1635+1048870090+1049017540+1049078540+1049251311+1049476513+1049528050
1626+1049334307+1049052388+1048792529+1048531071+1048340013+1048401909
1618+1048716182+1048895603+1048610998+1048054385+1047476608+1046955803
1609+1046489859+1045967072+1045156482+1043785252+1041510909+1037935160
1601+1032966312+1027327611+1022600655+1020477470+1021587562+1024932354
1592+1028653059+1031282918+1032266278+1031845541+1030760195+1029849153
1584+1029403095+1028652547+1026514592+1023122803+1019934541+1018192384
1575+1017328723+1016343062+1016191584+1018778282+1024530352+1030700537
1567+1034574063+1036228875+1036543276+1035750910+1033353479+1028771159
1558+1024588667+1024840917+1028236734+1032457975+1036242878+1039024791
1550+1040794122+1041761496+1042269258+1042687564+1043129530+1043510047
1541+1044008856+1044900907+1045717379+1046014580+1046031653+1046213695
1533+1046768006+1047391629+1047803862+1048084118+1048297428+1048352482
1524+1048335985+1048612405+1049362377+1050168491+1050542422+1050529825
1516+1050460065+1050533982+1050769223+1051154920+1051596757+1051820553
1507+1051344315+1049473572+1045677927+1039453136+1030284596+1018895551
1499+1008772553+1005017192+1008753818+1015352029+1021025003+1025343883
1490+1028560343+1029686038+1026910967+1018866138+1004289727+981757877+952492388
1480+924357517+909139195+913536275+934300967+961566551+986293903+1004208585
1470+1015134052+1021368178+1025469528+1028815151+1031375826+1032586690
1462+1032540013+1031728272+1029793332+1023898352+1011207646+996106848+985263482
1452+981903217+986267112+995521653+1005295786+1013130438+1019430232+1024567310
1442+1026635634+1021707197+1003416858+962656821+900599457+844296082+819567195
1432+829076097+863783346+906895735+940848216+959792615+966231611+963652522
1422+957243770+954292923+960231639+972948689+984725604+992482375+997729945
1412+1001757123+1004860087+1007057956+1008353799+1008794357+1008395617
1404+1007140057+1005210999+1002891705+1000395036+998173764+997019424+997492785
1394+999399335+1001928423+1004414477+1006741828+1009085804+1011503312
1385+1013785073+1015737661+1017307431+1018362533+1018628978+1017932653
1377+1016511484+1015138080+1014810570+1015953081+1018103505+1020541475
1368+1022704880+1024297476+1025446190+1026486521+1027527365+1028396141
1360+1028984405+1029387046+1029737958+1030105495+1030514147+1030986420
1351+1031542586+1032172092+1032830500+1033448369+1033971348+1034447394
1343+1034994927+1035599496+1035982187+1035793431+1034987830+1033852480
1334+1032679533+1031612218+1030760706+1030301157+1030359600+1030875098
1326+1031673346+1032618405+1033620180+1034517346+1034945756+1034326353
1317+1032085962+1027990814+1022401221+1016443003+1011842140+1010101198
1309+1011588163+1015355034+1019842912+1023907688+1027195124+1029696140
1300+1031372245+1032247287+1032490969+1032297865+1031788505+1031000743
1292+1029944618+1028727935+1027586895+1026719845+1026140916+1025736101
1283+1025463262+1025466715+1025893462+1026550783+1026953168+1026824198
1275+1026346361+1025819034+1025299251+1024700949+1024084614+1023713624
1266+1023871880+1024703698+1026200254+1028230468+1030517088+1032676081
1258+1034419132+1035694833+1036608880+1037292417+1037864504+1038424442
1249+1039035469+1039692278+1040295377+1040712021+1040930062+1041084865
1241+1041261600+1041382258+1041386031+1041401760+1041602857+1041968156
1232+1042303467+1042464855+1042452643+1042296625+1041990088+1041598765
1224+1041324711+1041353996+1041684575+1042140671+1042515050+1042703358
1215+1042754064+1042823505+1043066291+1043526160+1044113209+1044696933
1207+1045183530+1045480347+1045487381+1045184297+1044647954+1043974903
1198+1043047237+1041024376+1036274081+1027638687+1015980640+1004040610
1190+994966064+991164856+993358888+999575559+1005827525+1008931001+1008619285
1180+1006956097+1006405111+1008424646+1012992068+1018957383+1024948211
1171+1030083563+1034034906+1036699166+1037944303+1037597867+1035297180
1163+1029912519+1019779866+1005142581+990575441+982995725+985899766+996383460
1153+1008407382+1017898828+1024244341+1028471720+1031494629+1033719034
1145+1035291041+1036372999+1037213194+1037964637+1038578989+1038975619
1136+1039180233+1039204339+1038908353+1038117969+1036886451+1035570019
1128+1034568180+1033995774+1033678815+1033471771+1033463203+1033803053
1119+1034429107+1035094229+1035641890+1036149587+1036787470+1037579068
1111+1038277440+1038414467+1037462502+1034894283+1029773446+1019965297
1102+1002235599+974564177+939132212+902106436+869789968+845973273+833278730
1092+834586978+850885149+878566225+910611964+940486242+964682559+982634710
1082+995344471+1004052375+1009608719+1012542365+1013221555+1011829415
1074+1008611740+1004482831+1001188809+1000493314+1003048746+1008061521
1065+1013970952+1019403632+1023629605+1026280054+1026868509+1025132811
1057+1022133113+1020272856+1021333394+1024744429+1028385463+1030718441
1048+1031674433+1031985446+1032277276+1032674930+1032953204+1032940671
1040+1032636373+1031916836+1030097183+1025602016+1016522290+1002734792
1031+987799667+977605310+976230690+983147011+994146011+1004293947+1010325250
1021+1011639892+1010122235+1008962332+1010730832+1015676789+1021722415
1013+1026394190+1028702678+1029121240+1028307326+1026158820+1021697670
1004+1013841917+1002936080+991538020+983111332+979926522+982325232+989173327
994+998282529+1006990305+1013328977+1016906580+1018713445+1020209618+1022342586
984+1025038497+1027570334+1029414989+1030585762+1031226522+1031235921
976+1030396750+1028682344+1026361260+1023905514+1021855926+1020732853
967+1020970205+1022758015+1025779837+1029166383+1031946569+1033680285
959+1034636342+1035412275+1036426582+1037666988+1038789165+1039468994
950+1039678595+1039624052+1039567336+1039767474+1040386430+1041318572
942+1042237862+1042872164+1043190722+1043401154+1043781991+1044398261
933+1045024762+1045443005+1045618142+1045478621+1044828270+1043623799
925+1042066818+1040365137+1038694851+1037403101+1036924944+1037408088
916+1038610192+1040228621+1042128010+1044121458+1045811054+1046969486
908+1047861537+1048780444+1049463469+1049437189+1048820152+1048333171
899+1048532478+1049336033+1050282755+1050998071+1051371043+1051520858
891+1051708271+1052125491+1052694189+1053192231+1053542120+1053785994
882+1053871484+1053722308+1053450428+1053284179+1053318324+1053465902
874+1053612968+1053730045+1053857928+1054082428+1054472344+1054900626
866+1055008048+1054537117+1053522362+1051874520+1049085126+1044827310
857+1039721564+1035159641+1032383611+1031738375+1032609325+1034057542
849+1035631275+1037493130+1039784290+1042159086+1044097607+1045504773
840+1046835720+1048605819+1050822359+1052990303+1054681050+1055935075
832+1057086730+1058378544+1059779699+1061034364+1061916504+1062469344
823+1062846920+1062883815+1061876285+1058563592+1051349622+1039413364
815+1024226437+1009116304+996062217+983396576+968419633+952498271+941740651
805+941638600+952102919+968327493+985262331+1000472533+1013777016+1025532639
795+1035608000+1043616766+1049505159+1053610538+1056431647+1058467679
786+1060045249+1061328368+1062520817+1063742488+1064753535+1065176381
778+1064871635+1063899017+1062336154+1060223007+1057414303+1052981415
769+1044485094+1029249699+1008730799+990849943+984272577+989415922+997235292
759+996620620+981105799+950534365+910397824+869083284+831785499+796326040
749+757824232+718317901+689055609+681682297+698934094+734961804+781713181
739+832300614+880657504+921957976+954063564+977664264+994977573+1008218562
730+1018622456+1026486074+1031999961+1035785375+1038541391+1040381634
721+1040702749+1039026389+1036257776+1034468495+1034573743+1034357108
713+1029165744+1014473853+988339847+953127841+915208671+881121529+852725136
703+826110607+795005707+754969618+705815503+652535931+604990334+575466521
693+573665922+600784120+647112842+697619133+742087278+779517230+813381664
683+845150023+872998116+894793868+910427748+921475152+929921854+937269014
673+944055342+950378539+957124839+965729541+975146942+982510919+987947628
663+992838467+997508707+1001753670+1005750347+1009754314+1013553028+1016746662
653+1019190259+1020921289+1021806499+1021355837+1018859872+1013846329
645+1006835247+999881520+995986766+997364774+1003670067+1011700828+1017267723
635+1017365682+1010264633+995364549+975911877+960575582+957809782+967597534
625+980823561+987007173+981292253+965597821+946960214+934887824+936320950
615+950882591+972056319+992741211+1008924287+1019836646+1026689089+1031290591
605+1034826952+1037575743+1039660627+1041448949+1043041993+1044130793
596+1044654220+1045105137+1046087282+1047781866+1049815532+1051679178
588+1053242489+1054588910+1055573677+1056090326+1056543737+1057433230
579+1058629452+1059549573+1059857453+1059703097+1059518178+1059766911
571+1060729234+1062237492+1063567863+1063964302+1063542222+1063310178
562+1063957012+1065053421+1065937735+1066881899+1068571175+1070744107
554+1072309720+1072764154+1072984753+1073040894+1072755394+1071920123
545+1070878129+1070375739+1070971995+1072406144+1073622636+1073741823
537+1072746634+1070975001+1068502182+1065054508+1059752844+1050630789
528+1034407942+1007109493+966638792+915335212+858196502+799498061+741599275
518+683705157+623293014+564383566+522212143+513655461+542155439+592522657
509+640470192+667080308+667272261+648867147+625333331+608266005+602171719
499+604696330+611670518+620123615+628274011+636132193+646564925+663636087
489+688973955+720812076+755926378+791061909+823279459+850613460+872889287
479+891534375+908325089+924145231+938918711+952281828+963721195+972574055
469+978659581+982770842+986333995+990405996+994653261+997285997+996342282
459+991558162+985644831+982851025+984774456+989379283+993581534+995227138
449+993038988+985797204+973706143+960002536+948427549+939656279+932360720
439+926837177+925075135+927399545+930609164+930778609+927274283+923013718
429+921767366+925727469+935282984+949189223+963951513+975793457+983206861
419+984381342+975988607+961477863+951186762+953164096+967690250+986095748
409+998205735+1000814174+997591447+994527743+995773840+1001430764+1008717180
399+1015000669+1019406893+1022446939+1025164206+1028937855+1035149155
391+1043910194+1052835692+1058143239+1058122138+1055505451+1054857721
382+1056588815+1057818543+1058310255+1060550965+1065504210+1070304380
374+1072764154
##END=
