##TITLE=sgr-sml-1002-SeD1
##JCAMP-DX=5.0
##DATA TYPE=LINK
##BLOCKS=1


$$ === CHEMSPECTRA SPECTRUM ORIG ===
##TITLE=sgr-sml-1002-SeD1
##JCAMP-DX=5.00
##DATA TYPE=INFRARED SPECTRUM
##DATA CLASS=XYDATA
##ORIGIN=Rieke
##OWNER=
##XUNITS=1/CM
##YUNITS=TRANSMITTANCE
##XFACTOR=1
##YFACTOR=9.3132258e-010
##FIRSTX=3997.453
##LASTX=373.96442
##MAXX=3997.453
##MAXY=1.0000000048502633
##MINX=373.96442
##MINY=0.5212332031091484
##NPOINTS=2559
##XYDATA= (X++(Y..Y))
2559A072512703A072724479A072977983A073031359A072913919A072921279A073212095
2552A073525439A073451519A072970495A072524607A072451967A072560959A072529983
2545A072484159A072747967A073166143A073182719A072671423A072223615A072401535
2538A073003135A073331263A073064639A072561087A072339327A072558847A073046335
2531A073537791A073741823A073462975A072881087A072513791A072691583A073099071
2524A073065279A072386111A071521791A070963903A070793983A070902655A071325375
2517A072058175A072786047A073159039A073247679A073390975A073625151A073656511
2510A073377919A072870719A072148927A071383615A071020927A071221887A071630655
2503A071939647A072200639A072409087A072389247A072224575A072197247A072303615
2496A072255295A071934783A071545855A071297983A071160319A071123903A071408063
2489A072028159A072539967A072510527A071938751A071251263A070970495A071074687
2482A071101311A071043903A071397055A072201855A072785087A072798463A072486591
2475A072095103A071670975A071289407A071075839A071160767A071716863A072609343
2468A073174655A073151423A073065983A073265983A073376319A072995839A072347455
2461A071755391A071152319A070349183A069703487A070170495A071412351A072064319
2454A072002687A071769535A071626367A071423679A071065087A070873023A071209279
2447A071933503A072537215A072755135A072674751A072389055A072023359A071846399
2440A072073535A072621247A073032319A072792063A071937535A071202175A071235583
2433A071646783A071833343A071853695A071942399A072030847A071924543A071551679
2426A071060287A070828991A071070527A071526847A071974207A072345215A072316863
2419A071695551A070918975A070545343A070747583A071275455A071701311A071624639
2412A070962239A070162495A069768127A069793791A069910527A070096063A070537279
2405A071053311A071278399A071295679A071365183A071479167A071695935A072297855
2398A073116351A073376255A072845887A072132991A071650943A071216383A070732223
2391A070587007A071043583A071576383A071445119A070518783A069436223A069285887
2384A070368895A071714623A072702463A073288895A073191423A072266367A071152959
2377A070552831A070727807A071485503A072358527A073091967A073638975A073741823
2370A073201151A072164543A070995455A070125119A069926207A070456319A071373183
2363A072199103A072587903A072329471A071405759A070231103A069641087A070210239
2356A071396607A072248767A072507135A072316991A071789823A070950911A069938623
2349A069180991A068998463A069183999A069290047A069215743A069340351A070110271
2342A071486207A072582911A072533183A071731519A071126207A071174271A071657727
2335A071943359A071562815A070831743A070862015A072112575A073363135A073741823
2328A073552895A073296831A073073279A072781951A072455231A072102655A071640959
2321A071095743A070781823A071051903A071655935A071748671A071052607A070251711
2314A070330239A071632895A073052351A073461247A073076351A072554175A072180991
2307A071799871A071281791A070961855A071284287A072068735A072488063A071967231
2300A070899647A070426495A071090815A071964927A072331391A072299135A072097279
2293A071883199A071835775A072023743A072325951A072657279A072964991A073100095
2286A073008383A072882815A072846015A072715711A072354175A071878527A071344127
2279A070594623A069652351A069017599A069241727A070259967A071298367A071664255
2272A071493183A071416959A071748159A072085503A071929791A071330559A070527103
2265A069748671A069341631A069525311A070029567A070270783A069891583A069066431
2258A068310143A067999615A068061823A068081023A067829183A067513087A067385983
2251A067503935A067724735A067777087A067511359A067092479A066863359A067026495
2244A067405439A067569727A067293247A066810047A066535551A066569407A066693055
2237A066752895A066729983A066644095A066610751A066818623A067283519A067761279
2230A067958591A067724671A067132223A066522879A066357759A066787199A067328255
2223A067225407A066366335A065593663A065808831A066911359A067970687A068318399
2216A067989247A067305471A066624511A066334783A066537919A066841087A066803967
2209A066450367A066075327A065817151A065646591A065459327A065159807A064903679
2202A065041407A065616575A066248191A066635903A066801855A066809727A066713535
2195A066746367A067088959A067510783A067639679A067493887A067431679A067585855
2188A067674303A067499391A067280767A067305855A067583423A067941439A068109567
2181A067790591A067106303A066781695A067442495A068920575A070420415A071160959
2174A070964159A070447295A070401087A070831551A070963199A070318591A069335167
2167A068781823A068950079A069428159A069591871A069328191A069116735A069319295
2160A069655935A069622463A069212159A068867007A068786303A068670655A068219839
2153A067586111A067218239A067435519A068170879A068985919A069406143A069385535
2146A069327807A069565375A070038783A070565055A071120831A071690175A072024063
2139A071793727A070993983A070074687A069565375A069554047A069633535A069419519
2132A069007103A068819711A069119167A069777151A070445055A070830655A070887423
2125A070825471A070898943A071162239A071468159A071669247A071690623A071416255
2118A070730943A069759999A068910015A068596223A069001791A070004159A071198079
2111A072099839A072508479A072642239A072868159A073319999A073741823A073714623
2104A073079039A072173055A071496575A071229759A071141055A070983615A070898495
2097A071198463A071726143A071881599A071463295A070939775A070673087A070503551
2090A070281279A070150591A070156351A070120767A069973567A069844863A069849023
2083A069975871A070146111A070297663A070430143A070522175A070487743A070290111
2076A069952959A069404927A068543807A067501247A066613567A066121471A066064575
2069A066355455A066782463A067044991A066940031A066478463A065850239A065359295
2062A065303871A065713983A066227199A066428671A066321855A066265023A066449087
2055A066690687A066787583A066781183A066721471A066451903A065872191A065244607
2048A064962367A065075775A065281535A065340223A065268223A065143039A064956863
2041A064709311A064453695A064192831A063830143A063309567A062761343A062414975
2034A062325183A062300479A062187199A062051647A061969983A061858943A061665535
2027A061498687A061419263A061300031A060997759A060520959A059984575A059501439
2020A059134911A058873535A058640767A058387583A058197375A058266815A058694143
2013A059241983A059407295A058883647A057925183A057087615A056625407A056373055
2006A056177471A056102399A056164671A056205375A056115711A055914943A055549631
1999A054906111A054099647A053485823A053249599A053163007A052893695A052434687
1992A052053951A051902655A051919103A052097855A052500415A052861183A052578367
1985A051403519A049878655A048758911A048235263A047986559A047775167A047664319
1978A047690047A047601087A047091775A046228031A045437695A044998719A044714623
1971A044235071A043545535A042955007A042669823A042584319A042497215A042356031
1964A042190143A041930751A041442687A040712639A039911487A039253247A038824447
1957A038563263A038381951A038203199A037848575A037089151A035962047A034840703
1950A034025727A033465599A032988479A032547903A032136895A031748095A031462847
1943A031296703A031017279A030398975A029516607A028569151A027674111A027009215
1936A026759103A026713023A026328831A025393407A024263743A023322559A022552383
1929A021798015A021096383A020470719A019604799A018047679A015727231A013008447
1922A010242815A007492735A004756991A002267071A000465983I99739455A000115711
1915A001175231A002346751A003334399A004152767A004824127A005258879A005444543
1908A005541247A005676607A005718847A005408319A004732287A003992959A003422015
1901A002941055A002403903A001833727A001303487A000785087A000217279I99641855
1894I99217983I99038463I98945407I98728639I98479935I98406655I98372671I98090175
1886I97665599I97430527I97357311I97139135I96715967I96278591I95858367I95312575
1878I94640383I93968831I93262207I92359615I91336831I90559935I90288639I90373567
1870I90430207I90191039I89644735I88978559I88470143I88313791I88466559I88748671
1862I89045759I89241983I89095551I88469695I87582143I86765759I86127743I85616511
1854I85207103I84874239I84584319I84398271I84468159I84874559I85460031I85836031
1846I85687487I85099711I84431999I83891007I83397759I82784383I81963199I80991295
1838I80032127I79131135I78030207I76392447I74248511I72106047I70595711I70049663
1830I70357759I71122367I71959615I72720191I73471551I74310655I75233023I76175103
1822I77132863I78165439I79206463I79946303I80116927I79895487I79812031I80232831
1814I81088959I82049727I82827967I83369023I83814527I84264063I84616767I84700223
1806I84523199I84352191I84487231I84894719I85182847I85077119I84734975I84423935
1798I84157375I83814143I83366527I82868223I82390335I81969983I81521983I80925567
1790I80271359I79805375I79576959I79392447I79139455I78884095I78626175I78244095
1782I77752575I77377215I77283711I77366719I77377535I77197247I76950847I76846975
1774I76942719I77120383I77239615I77231551I77131903I77089663I77200767I77315967
1766I77240319I77073663I77074815I77235647I77283327I77057343I76651199I76227903
1758I75888639I75691263I75642239I75640959I75545791I75343295I75148287I74994879
1750I74746815I74282943I73658239I73013631I72409919I71795839I71094975I70292735
1742I69484735I68849407I68493439I68286399I67955647I67401663I66780223I66223743
1734I65696063I65199807I64898303I64894911I65061887I65225855I65415295I65775231
1726I66290751I66771455I67122687I67481983I68041279I68833279I69707135I70461759
1718I71039231I71581567I72251583I73067263I73978687I74975295I76007807I76930623
1710I77657535I78297983I79027583I79867007I80699071I81488447I82349951I83342655
1702I84303039I85008191I85454079I85835519I86239935I86534143I86640127I86728703
1694I86977791I87319039I87606143I87864447I88186751I88511359I88668223I88608063
1686I88490879I88529663I88783295I89140799I89477631I89744127I89917695I89958463
1678I89852671I89678271I89575999I89622527I89772607I89947711I90103295I90178751
1670I90107519I89915775I89712447I89574783I89517311I89517567I89520959I89512319
1662I89614335I89947967I90354047I90469311I90178943I89794495I89657535I89740735
1654I89774911I89615103I89327231I88991935I88591743I88101503I87558527I86986431
1646I86361983I85712575I85093311I84425663I83546431I82458431I81359615I80437823
1638I79773311I79369791I79169087I79120639I79251199I79547007I79811455I79822207
1630I79601407I79366463I79207231I78978623I78596159I78244479I78100223I77999743
1622I77631039I76960959I76235903I75640255I75165439I74761791I74462143I74319935
1614I74298303I74302783I74342847I74553087I74972095I75411839I75676799I75813503
1606I76009471I76340863I76773503I77313535I77983615I78700031I79297855I79635903
1598I79660287I79470719I79296191I79260095I79251711I79166271I79123007I79286655
1590I79640383I80044223I80309439I80164159I79468863I78574527I78099647I78146367
1582I78105919I77512831I76743743I76519423I76979199I77590655I77802879I77496575
1574I76907839I76398143I76250623I76437375I76596927I76454847I76174143I76041983
1566I75999615I75848063I75707327I75865663I76350079I76949247I77446783I77658751
1558I77512063I77209855I77078335I77212735I77422399I77456959I77182335
1551I76657407I76099967I75667647I75285439I74803007I74204735I73514879
1544I72664319I71675135I70813439I70336191I70186623I70108543I69975935
1537I69879935I69915263I70010495I70062015I70163199I70497151I71022527
1530I71509055I71889151I72319103I72906815I73611775I74379647I75143231
1523I75757375I76166783I76591935I77324543I78326271I79242495I79878719
1516I80458559I81236991I82030079I82429247I82399423I82343935I82627263
1509I83321535I84315071I85374207I86210879I86687487I86888575I87027199
1502I87399359I88182847I89142655I89835775I90125311I90166655I90116927
1495I90241855I90913727I92098623I93220799I93837951I94145663I94601919
1488I95266495I95733375I95749183I95666431I96028671I96870271I97751743
1481I98375935I98840639I99288191I99562751I99450623I99194879I99363711
1474A000077951A000828223A001242367A001552767A002110975A002842239A003378815
1467A003544575A003589439A003884607A004408703A004787519A004927423A005248575
1460A006095231A007212799A008035455A008312127A008247743A008155839A008188223
1453A008370303A008687039A009078271A009451903A009748479A009993983A010285823
1446A010649343A010909887A010886015A010761215A010993471A011725695A012516735
1439A012835263A012645183A012358207A012342975A012634367A013086783A013669119
1432A014474559A015420927A016131647A016310783A016102783A015896575A015915775
1425A016171071A016613951A017121087A017484351A017625727A017744319A018097279
1418A018673343A019182911A019370431A019292287A019298303A019746047A020634751
1411A021494911A021820735A021653311A021583103A022135359A023224319A024189503
1404A024473471A024259263A024080639A023972799A023704703A023506687A023654655
1397A023815807A023580671A023077247A022733503A022807615A023132927A023294591
1390A023173951A023095871A023355007A023825087A024138687A024139583A024056767
1383A024297151A025008767A025802751A026113983A025846719A025431551A025311615
1376A025523775A025766783A025811263A025765055A025865087A026092799A026270655
1369A026509375A027085375A027888767A028525695A028905535A029192191A029362623
1362A029327487A029296319A029625407A030446527A031577983A032632191A033254655
1355A033428095A033426879A033417919A033340159A033161919A033016255A033086847
1348A033415167A033759295A033823167A033761727A034089407A034952383A035985983
1341A036945215A037852543A038520191A038564543A037931071A037048447A036549759
1334A036952575A038293375A039879167A040666623A040212031A039265407A039089151
1327A039999551A040976447A041025599A040364543A039824575A039682111A039609855
1320A039359999A039134847A039437695A040512191A041813055A042436351A042168063
1313A041559615A040970111A040218687A039227775A038422143A038353407A039156607
1306A040423295A041585087A042285567A042227135A041203711A039905087A039934847
1299A042067135A045052095A046969023A047225087A046725183A046606079A047020543
1292A046954431A045553791A043566399A042587967A042995199A043854335A044725631
1285A046162303A048398015A050721599A052209535A052360767A051274495A049830399
1278A049203199A049517311A049600767A048726911A047664703A047271103A047107775
1271A046537023A046197119A046974271A048264703A048757247A048523455A048800319
1264A049929215A051220223A052811647A055775487A059872831A063207935A064504191
1257A064035775A062497087A060212095A057699135A056004607A055637759A055890879
1250A055928191A055683455A055266623A054640575A054205055A054524479A055209215
1243A055150911A054172543A053424191A053742719A054474815A054569151A054145343
1236A054013247A054201087A054070847A053460479A052779967A052284735A051917375
1229A051632703A051502911A051558783A051662527A051621567A051407679A051117567
1222A050836159A050739839A051057215A051718719A052357759A052763263A053097599
1215A053713983A054828543A056124095A056786623A056310335A055146047A054262527
1208A054235135A054878079A055511295A055524735A054957695A054573055A055069439
1201A056113791A056530175A055730815A054534911A054125055A054632895A055291135
1194A055598527A055767039A056141951A056672127A057006783A056879423A056267647
1187A055290303A054157439A053219071A052801919A052894847A053171263A053384191
1180A053555263A053911935A054881343A056842623A059592959A062297087A064090623
1173A064689599A064337919A063283327A061645183A059884607A058816383A058759551
1166A059208703A059623295A060004351A060511743A060999167A061220159A061323775
1159A061767423A062519679A063052799A063580735A065163455A067802559A069913535
1152A070413439A069606527A067930047A065700671A063709183A062517759A061647231
1145A060446143A059085311A058035775A057173695A056083007A054820991A053877631
1138A053709375A054529471A056215423A058269439A060274495A062354431A064547967
1131A065971135A065664191A064110207A063014399A063546367A065202559A066523007
1124A066614719A065438207A063279871A061009023A060068607A060988415A062533695
1117A062999103A061771711A059467135A057180287A055751167A055384959A055791807
1110A056407615A056379711A055071103A053030079A051622911A051643327A052952447
1103A054993151A057054143A058365887A058675071A058638079A059114495A060140799
1096A060914943A060736959A059878015A059302719A059407295A059517567A058945471
1089A058038911A057471103A057241215A056927167A056402175A055954879A055855359
1082A055983807A055907903A055378751A054675135A054241599A054133823A054095359
1075A054028543A054111807A054499647A055103999A055682495A056060159A056273343
1068A056453887A056646143A056775487A056802751A056915647A057426879A058282623
1061A058890559A058823679A058492415A058629567A059297151A059813119A059757759
1054A059419967A059100927A058763391A058177663A057120895A055700095A054508415
1047A054186367A054796671A055785663A056596223A057176831A057761919A058406143
1040A059003775A059491903A059788351A059860223A059871743A059991679A060220351
1033A060434495A060426623A060032639A059413311A059016255A059041279A059271359
1026A059529407A059772031A059975935A060187007A060421439A060603007A060691263
1019A060665471A060502463A060351679A060417279A060585855A060575295A060419135
1012A060366591A060504959A060709311A060808895A060762751A060662655A060559743
1005A060501247A060672831A061237375A062033727A062670655A062988223A063120127
998A063268031A063522559A063794879A063951423A063936703A063856959A064047295
991A064785791A066019519A067566847A069263999A070816767A072030143A072952063
984A073542079A073741823A073738751A073603647A073281535A072717695A071857535
977A070737087A069731967A069117247A068621375A067841663A066757759A065505023
970A063933375A061632447A058106559A052404543A042109055A024632127A000322495
963I68824255I23423103H60288575G95089343G43073535G04994687F84523903
956F87289279G11487615G48325695G86398207H18419903H45074303H70150399
949H92749503I07954047I15609983I18637951I18515135I15799551I10744831
942I02941631H92442815H80941311H69220799H55481087H39047359H23105855
935H08419327G92743743G76865663G62392959G47837887G31392895G13860415
928F96342207F76649343F52400191F28632191F11089727E98543487E89481599
921E84936575E86619711E93622847F02976383F14707711F31286911F51284927
914F69192575F83880511F98887487G16950015G36266815G52892223G65834175
907G76074815G85099903G96845247H15317695H32637695H42294655H49696127
900H59975935H72548159H82811007H89888447H95691263I01160447I06382911
893I12017919I19386815I27604671I33921535I38448895I42855999I47815743
886I52753727I56976127I60587391I63931455I66639615I67970047I67490367
879I64352447I57190783I46494975I34462143I22752127I13379711I09056703
872I10977151I17664511I26781375I36712575I46415871I55075263I62206719
865I67684031I71562239I73779711I73903359I71390847I66220287I59347263
858I52736383I48608575I48173887I51100415I56061567I61560191I66809791
851I72358271I79215487I86273215I91260735I94492031I97632063A001393087
844A004974463A007679167A009825599A011680767A013160959A014676159A017705279
837A022546751A026286975A028417087A030112511A031725375A033273471A034808895
830A036179135A037222783A038113407A039106751A040245439A041653823A043467263
823A045023295A045832319A046225791A046665407A047241727A047572543A047467199
816A047214783A047218431A047633407A048329919A049197055A050206079A051288959
809A052475711A053877887A055392639A056780991A058003327A059099455A059971519
802A060677503A061756671A063176383A063857919A063645887A062992383A062155391
795A061107391A059564927A057273535A054245887A050213887A044171071A035213311
788A024807231A016811455A013712319A015564415A021181119A028505087A035172351
781A039832255A042545023A043852351A044042879A043169023A041350271A038739455
774A035137407A029831167A021716799A010274495I96874367I83272447I69403263
767I54193471I39229055I31557439I34101247I42019199I50835839I57685439
760I61001023I60836415I57917567I52143999I42233151I27203007I08046015
753H86494847H63517247H42394815H29303871H25875839H29433855H37407423
746H46666367H53794431H57882495H60379967H62902399H66297855H71316735
739H78854975H88184703H96999615I04698623I12305343I20583807I29546559
732I38736575I47814079I57034175I66631103I75853887I83852031I90920831
725I97703551A004140031A009934079A015243263A020168447A024387647A027759999
718A030607487A033325567A035965951A038269247A040079423A041431167A042383103
711A042943743A043047679A042686271A042097087A041644607A041479743A041540543
704A041841983A042486655A043453567A044567167A045719871A046980991A048340223
697A049486975A050121151A050235263A049967679A049379839A048388351A046749375
690A044148415A040381695A035350335A028928767A020985727A011280895I99221951
683I84171135I66323647I46871295I27187391I08566207H92543999H80706047
676H73968063H71917503H72580415H72781951H69143743H59405055H43396287
669H23297663H03245375G87880383G80222719G80820607G88324991H00062847
662H12519551H21869055H24336447H16890239G98217919G69207103G33040191
655F94934015F60733695F34874687F19526271F15313983F22193535F39435519
648F65267135F96995775G31515967G65877503G97905791H26525183H51365503
641H71962367H87090943H94446143H90816255H73087039H40273151G95824511
634G47948415G06208959F76687615F60174143F54046463F54900991F59955391
627F67293119F75607231F83963519F91757951F98741695G05048127G11203391
620G17937279G25783871G34843455G44934335G55831167G67238719G78660927
613G89522367G99467391H08433471H16438911H23451071H29487039H34702463
606H39264831H43200767H46489599H49274303H51832383H54369983H57018047
599H59998399H63580671H67848831H72640895H77727039H82947647H88163263
592H93164543H97728767I01781375I05402559I08641023I11375423I13340159
585I14162367I13307391I10023615I03477567H93266047H80224447H66908799
578H56979967H53522431H57472511H67372159H80503871H94380991I07524543
571I19339583I29695935I38700031I46573823I53424127I59032895I62875839
564I64269439I62363455I55965247I43749631I25638015I04780159H87510015
557H79707583H82446719H91502015I01089919I07672703I10612671I10470911
550I07357503I00511615H88975807H72782015H53910143H36304767H24659071
543H22403967H30071615H45193919H63790399H82282815H98642751I12416959
536I24005567I33906943I42460735I49964287I56710271I62898687I68617023
529I73886463I78687551I82992383I86750207I89768255I91625791I91753279
522I89585215I84623103I76492351I65372031I52714367I40986175I31413375
515I21272191I04170367H74817471H35123327G95801471G70743935G68173503
508G86057471H15192383H45975423H72546943H92444095I04415999I06930303
501H98066687H77070335H46989759H15658943G92705919G84536959G91650623
494H09942143H33859007H58763071H81775487I01646655I18194943I31724735
487I42693695I51549439I58641471I64300031I68928959I72872447I76292031
480I79303807I82052095I84560575I86759295I88702975I90541503I92329279
473I94059839I95780159I97543807I99337791A001122815A002892223A004656703
466A006397055A008065279A009647231A011170303A012638719A013998591A015186111
459A016251647A017425407A018920191A020649983A022314303A023722815A024935295
452A026170751A027571775A028993215A029963519A029227263A024212031A013126335
445I99316095I91012095I93603775A003717695A013525055A019043839A021750079
438A024171711A026968063A029630527A031812607A033532543A034831743A035684095
431A036148799A036323903A036106367A035221311A033411903A030325567A025258623
424A017127423A004541951I85930431I60187839I28048063H93300927H62244223
417H40871359H31755135H33285119H41567231H52858239H64635519H75316159
410H83807487H89735871H93980415H98310463I03853759I09968703I14916799
403I17436159I17394559I15254591I11391935I05872639H98470143H88665279
396H76024895H61344127H47434111H37802239H34039999H34955519H38273535
389H42479103H47142207H52422527H58578367H65606271H73257471H81369535
382H89905151H98631615I07070911I14856319I21978303I28647871I35025599
375I41061375I46528703I51263807I55383999I59144575I62578303I65444223
368I67468991I68343359I67454719I63946111I57301759I47880767I36863551
361I25909311I17044159I12443199I13509375I19916351I29824127I41044159
354I51891903I61358783I69090239I75314495I80523071I85019199I88744127
347I91548863I93569279I95223807I96852543I98481343I99958399A001235775
340A002445375A003767231A005351807A007299199A009536255A011789183A013843775
333A015716095A017495807A019181503A020639679A021396159A020111551A014258495
326A001456383I82929663I65441663I57324927I61526975I73779199I87526207
319I98926655A007388159A013691327A018653183A022690047A025869695A028276223
312A030277567A032373951A034811455A037414783A039812735A041718911A042983871
305A043588031A043655039A043395775A043123007A043269951A044087103A045386687
298A046895231A048600767A050310719A051071551A049649919A046009663A042176063
291A040947455A043347135A047804927A052033471A054983039A056851455A058182463
284A059402175A060638399A061631359A062013311A061721663A061038079A060335807
277A059943743A060154943A061082175A062446015A063740607A064676031A065285759
270A065734015A066239359A066993407A067974783A069022463A070057855A070992831
263A071534271A071263743A069828095A067024191A062684735A056279551A046497919
256A031052863A006539775I68627519I13282559H39147327G50797823F61518207
249E91572735E59669887E73134143F24425087F95670655G68159039H30343679
242H78541951I12143167I28738751I22585983H89304831H35103935G79443071
235G43719999G36654975G52179967G79287359H10305535H41361471H70064767
228H94704831I14430783I29406591I40756799I49895807I57557055I63818751
221I69068991I74113279I79090559I82885567I83760959I80017471I69764607
214I51402943I27077695I05035007H94900671I02992767I30468671I64362687
207I87124991I98657087A003489471I98369471I77997631I49073343I31191487
200I37809919I62002047I86888895A003549823A013158719A018867327A022457087
193A025398079A028726655A032601471A036640127A040119039A042357887A043315711
186A043534847A043724223A044449535A045853823A047693119A049611135A051200575
179A052180095A052728767A053222015A053715071A054096767A054439551A054948927
172A055858495A057260223A058748095A059488063A058959871A057601279A056474175
165A056168511A056260287A056072063A055544319A054956671A054260607A053199551
158A051808831A050426175A049217599A047854911A046008511A044107327A042807935
151A041705855A039449727A035074495A028378495A019358143A008408063I96643327
144I84913791I72801279I59529855I45693375I33125503I23150079I15745279
137I10529855I07833407I08396223I12393407I19021631I26937727I34982207
130I42647807I50188351I58161919I66557311I74577599I81531711I87543167
123I93008959I97747647A001292223A003947455A006873663A010743615A014807359
116A017871359A019784959A021309887A023037503A025064703A027182399A028908479
109A029839423A030247487A030820351A031715071A032553023A033283327A034387263
102A036038655A037679295A038836287A039550143A039765055A039314431A038634175
95A038333055A037890239A036136191A033107391A029914303A026527743A021391359
88A013612287A003952831I93150207I80222847I63534079I43392703I22658495
81I04915007H92799871H87556671H89255551H97104127I09747391I25562687
74I42592639I58445119I70936383I79288703I84943679I90341247I96318975
67A001577343A004287807A003657855A000339199I95981951I92264767I89998783
60I89231807I89834047I91717887I94890303I99373503A004979519A011468607
53A018840511A026900735A034420223A039344447A040905471A041140991A042478591
46A044841215A046810879A048333823A050275519A052258047A053309695A053705471
39A054411007A055327807A054971327A051721663A045700991A039532671A036941247
32A038203903A039061055A038101055A037765887A039921535A043583679A046698623
25A049455743A053911615A060298559A065709311A067349439A065697215A064119487
18A066134527A071088319A073741823A072042559A065051775A056195199A049530687
11A047409663A048999679A051166015A051725567A051318079A050329471A047717695
4A044496191A046108927A058109631A073741823
##END=


$$ === CHEMSPECTRA PEAK TABLE EDIT ===
##TITLE=sgr-sml-1002-SeD1
##JCAMP-DX=5.00
##DATA TYPE=INFRAREDPEAKTABLE
##DATA CLASS=PEAKTABLE
##THRESHOLD=0.93
##MAXX=3997.453
##MAXY=1.0000000048502633
##MINX=373.96442
##MINY=0.5212332031091484
##SAMPLE DESCRIPTION=SOLNAME=- - -;SOLVAL=0;
##NPOINTS=26
##PEAKTABLE= (XY..XY)
484.45390758404983, 0.8266015687319311
565.1962254339323, 0.84548575081743
657.2707984206409, 0.8672396581468764
671.4361173416728, 0.8334412017594511
704.0163508600467, 0.6860634118868355
723.8477973494914, 0.5212332031091484
881.0828373729473, 0.8497789541961334
927.8283898123532, 0.7767602836918774
961.8251552228303, 0.7746323382564483
1075.1477065910867, 0.7306569847612342
1093.5626211884282, 0.7154173287015977
1141.7247055199373, 0.7659233843486748
1161.556152009382, 0.8192915358451242
1189.8867898514463, 0.794904712526792
1264.962980132916, 0.6091282393610346
1294.7101498670836, 0.5730558061576361
1315.9581282486315, 0.726639035633695
1328.7069152775603, 0.8120364584411177
1433.5302752931975, 0.7691568171371446
1456.194785566849, 0.8675804775076725
1609.180229913995, 0.8466250340042537
1677.1737607349492, 0.5447646401653635
1728.1689088506646, 0.6375125674136297
2824.5645933385554, 0.8986284179413904
2966.2177825488748, 0.9034291548732905
3088.0395252697494, 0.9310799285583938
##END=


$$ === CHEMSPECTRA PEAK TABLE AUTO ===
##TITLE=sgr-sml-1002-SeD1
##JCAMP-DX=5.00
##DATA TYPE=INFRAREDPEAKTABLE
##DATA CLASS=PEAKTABLE
##THRESHOLD=0.93
##MAXX=3997.453
##MAXY=1.0000000048502633
##MINX=373.96442
##MINY=0.5212332031091484
##NPOINTS=55
##PEAKTABLE= (XY..XY)
3024.2955901250975, 0.9222781702181686
3014.379866880375, 0.9204389496837008
2994.5484203909305, 0.9167923374952591
2966.217782548866, 0.9034291548732905
2944.969804167318, 0.9125210686259599
2929.387953354183, 0.9167494221507727
2893.974656051603, 0.9101663871204944
2886.8919965910864, 0.9097596450221954
2878.392805238467, 0.9099856658364905
2872.7266776700544, 0.9099707646752105
2824.564593338546, 0.8986284179413904
2760.820658193901, 0.9206038757367477
2746.6553392728692, 0.9216144724947574
2732.4900203518373, 0.9215598150351824
2728.2404246755277, 0.921555165872863
2718.3247014308054, 0.9216904088126403
2688.577531696638, 0.9118771596447286
2658.8303619624703, 0.9073860092395817
2627.6666603362, 0.911879365016598
2616.3344051993745, 0.9109262867411292
2609.2517457388585, 0.9094545884484713
2599.336022494136, 0.9092042489389673
2588.0037673573106, 0.9086982651065436
2576.6715122204846, 0.9099751158143042
2549.7574062705235, 0.9032710833544323
2512.9275770758404, 0.9148790879915523
2491.6795986942925, 0.9221182509553116
2476.097747881157, 0.927286629338312
1728.1689088506646, 0.6375125674136297
1677.1737607349492, 0.5447646401653635
1609.180229913995, 0.8466250340042537
1585.0991877482406, 0.8830557507294684
1456.194785566849, 0.8675804775076725
1433.5302752931975, 0.7691568171371446
1328.7069152775603, 0.8120364584411177
1315.9581282486315, 0.726639035633695
1294.7101498670836, 0.5730558061576361
1264.962980132916, 0.6091282393610346
1189.8867898514463, 0.794904712526792
1161.556152009382, 0.8192915358451242
1141.7247055199373, 0.7659233843486748
1093.5626211884282, 0.7154173287015977
1075.1477065910867, 0.7306569847612342
1001.4880482017197, 0.9229519411266051
961.8251552228303, 0.7746323382564483
927.8283898123532, 0.7767602836918774
881.0828373729473, 0.8497789541961334
830.0876892572319, 0.8915783209119517
723.8477973494914, 0.5212332031091484
704.0163508600467, 0.6860634118868355
671.4361173416728, 0.8334412017594511
657.2707984206409, 0.8672396581468764
565.1962254339323, 0.84548575081743
484.45390758404983, 0.8266015687319311
457.5398016340887, 0.921293918713302
##END=

##END=

