##TITLE=X9320
##JCAMP-DX=5.0
##DATA TYPE=LINK
##BLOCKS=1


$$ === CHEMSPECTRA SPECTRUM ORIG ===
##TITLE=X9320
##JCAMP-DX=5.00
##DATA TYPE=INFRARED SPECTRUM
##DATA CLASS=XYDATA
##ORIGIN=ComPlat
##OWNER=
##XUNITS=1/CM
##YUNITS=TRANSMITTANCE
##XFACTOR=1
##YFACTOR=9.9257702e-010
##FIRSTX=3997.453
##LASTX=373.96442
##MAXX=3997.453
##MAXY=1.0657714589227076
##MINX=373.96442
##MINY=0.3739891042136026
##NPOINTS=2559
##XYDATA= (X++(Y..Y))
2559A020464270A020232235A019634013A019069779A018910646A019327635A020180831
2552A021035229A021482363A021472395A021250569A021003282A020682132A020121982
2545A019221827A018101046A017185036A016946517A017421035A018182954A018869091
2538A019476440A020032868A020270906A019989031A019543697A019446895A019597262
2531A019559430A019374715A019334842A019152648A018124586A016234799A014652112
2524A014552668A015456907A015856122A015449340A015504586A016757719A018287803
2517A019007327A018659995A017267787A014857844A012160981A010760606A011433890
2510A012994841A013760483A013485573A013367514A013993719A014387169A013695629
2503A012654115A012892635A014899279A017489253A019390929A020255414A020074902
2496A018333561A014301417A008262029A002286414I98899271I98783134A001219138
2489A005307489A009552151A012103211A011985153A010116986A009302942A010982312
2482A012778419A011891715A008602995A005853347A004858132A004651138A005805487
2475A009049769A011969420A011596507A007801441A003099196I99825248I99191056
2468A001349267A004040666A004567368A003162909A003038965A005923726A009608599
2461A011393657A010356707A006246437I98951275I92706454I94537751A002024414
2454A009250458A013548626A014382726A012154495A007755804A002360156I97333397
2447I94493253I95425175I99256090A003428933A006668171A009157260A011107456
2440A012096607A011771614A010492541A008449146A004748660I99366643I95866906
2433I96964207A000131145A003235030A007014182A011608397A015334644A016748590
2426A015419075A012249375A009490419A007985196A005874365A002407716A000467007
2419A002122776A005505956A009100573A012918817A016531929A019016814A020128588
2412A020150685A019121062A017212300A015587216A015295971A015524403A014916574
2405A014093643A014949962A017442173A019600745A019855959A017781698A014162820
2398A010945441A009584819A009817334A011056894A012735303A013380364A011609118
2391A008218191A006049892A006145613A006123574A003134866I96462906I89612837
2384I88189943I91231616I93725629I94016393I94431642I97298087A000885078
2377A002307431I99824708I93671524I87847776I88029609I94484126A002341780
2370A007726499A009406229A007883231A005033119A003251183A003706305A006048451
2363A009268473A012157378A013675212A013116742A009971183A004612706A000235452
2356A001184429A006775781A012806403A016452903A016840348A014767649A012845434
2349A013301938A015357223A017049083A017476522A016233838A012490297A005927930
2342I98976676I96686774A000571494A006789233A012101890A015273873A015730136
2335A013357305A008258426A000407016I92141079I89447278I92670123I95954640
2328I97314781A000213174A006488320A013030150A017025903A018185717A017686939
2321A016564596A014940714A012875461A011250377A010315512A008045727A001829430
2314I91521479I83160182I84580434I93094199A001734250A007734906A011264068
2307A013290529A014409388A014468598A013209340A011052811A008771135A006087484
2300A001619674I96172563I95063672I99939704A005873104A009013980A008045247
2293A003362997I97796385I95321348I96206191I97657849I98446491I99187213
2286I99794923I99514848I99331814A001165513A004354790A006322941A005927389
2279A004367640A003337656A003047613A002916883A003166512A004419764A006062503
2272A006189750A003365519I98786797I96747245I99349769A003580980A006323662
2265A006980193A006446525A005748800A005481155A005868540A006734887A007233966
2258A005855269A001126060I93377757I86885889I86694148I91620442I97001498
2251A000481839A002307431A003317599A003554138A002528657A000281391I97816682
2244I96150224I94815123I92312463I88315509I84739567I83654096I84535096I85064320
2236I83529852I79758387I74698360I69377775I64023441I58316972I52349524I47009002
2228I43475997I42315943I43228829I45858977I50212210I55908471I61802237I66803535
2220I70587070I73403133I75534742I77045310I78014103I78910716I80290494I81834689
2212I82393338I81478711I80289413I80592067I82532055I84571546I85434831I85291911
2204I85163223I85554211I85972582I85688484I84711824I83938075I84117926I84824479
2196I85041020I84673212I84628895I85237025I85742349I85685001I85599369I85928565
2188I86155556I85644407I84708041I84232502I84557735I85171570I85418557I85183160
2180I84863391I84892756I85354123I85898060I85995341I85413153I84375482I83136402
2172I81713628I80241612I79120111I78494746I78102557I77797802I77655302I77595011
2164I77368321I76781929I75718617I74242398I72734772I71557544I70655948I69780353
2156I68814082I67601905I65849154I63555288I61316970I59847957I59277358I59135879
2148I58858146I58114602I56912814I55599211I54639246I54275220I54387154I54600513
2140I54498788I53955572I53275441I52866198I52904029I53367678I54096690I54809849
2132I55397442I56108439I57140705I58231881I58988215I59481469I60240026I61660218
2124I63611976I65655611I67435685I68790722I69761377I70644718I71805072I73257871
2116I74627801I75604581I76247721I76811294I77507938I78484838I79764752I81154679
2108I82487858I83933391I85697311I87500445I88819512I89557351I90004366I90331701
2100I90600126I91063475I91975820I93135934I93957364I94100524I93886804I93934965
2092I94456623I95145341I95723986I96280713I96998256I97834998I98594395I99189374
2084I99728987A000339760A000992448A001606823A002265516A003116190A004039885
2077A004621353A004590367A004190312A003980315A004312094A005071611A005853347
2070A006331108A006502672A006599113A006774340A006970165A007078195A007080297
2063A007023850A006992443A007112424A007485817A008091846A008772096A009340653
2056A009758004A010151334A010599791A010993721A011222993A011369397A011543783
2049A011636500A011482291A011231881A011242450A011555553A011858807A012039079
2042A012332725A012845675A013371837A013750035A013998763A014134597A014177472
2035A014244730A014477485A014947919A015554668A015910528A015644505A014956327
2028A014490696A014551587A014841270A015018659A015087597A015185720A015326598
2021A015435289A015512153A015673089A016004206A016430324A016802156A017035151
2014A017046081A016716403A016107493A015579290A015458588A015662279A015873897
2007A016002045A016202972A016529888A016876499A017247970A017760199A018317827
2000A018591538A018400216A017928942A017497300A017234759A017065657A016938591
1993A016943874A017175309A017578246A017968575A018127108A017959808A017672406
1986A017655231A018042317A018521879A018691100A018466993A018141160A018124706
1979A018521758A018934306A018941751A018673447A018569439A018724369A018895993
1972A018987750A019092838A019211378A019249329A019200809A019141478A019159855
1965A019373634A019882862A020618958A021308098A021653988A021576283A021270266
1958A021034868A021014932A021069818A020899395A020368188A019710397A019324752
1951A019334121A019461907A019395131A019137516A018899957A018808200A018870532
1944A019065215A019290044A019381080A019309020A019184475A019026422A018754755
1937A018445495A018340287A018549862A018935627A019280436A019431041A019307939
1930A018948116A018564395A018438169A018664918A019038072A019239722A019125986
1923A018780817A018375717A018098884A018134194A018507828A018942352A019035430
1916A018655431A018056249A017574404A017357381A017424158A017771129A018294048
1909A018754755A018986429A019065696A019181833A019364026A019430562A019205974
1902A018734698A018220185A017777495A017359303A016965013A016764444A016901720
1895A017288204A017670004A017792147A017501983A016857523A016150848A015693145
1888A015580371A015682096A015752715A015606792A015313627A015102370A014953323
1881A014532130A013657797A012563919A011642626A011172191A011232241A011631336
1874A012004490A012151373A012187043A012287446A012445620A012546505A012510114
1867A012263787A011723933A010972343A010361391A010225316A010497225A010755802
1860A010632577A010045526A009088562A007865095A006506756A005248099A004254626
1853A003361256A002280229A001108825A000230048I99658428I98950374I97776509
1846I96149984I94172164I91991494I89917473I88218407I86902463I85878844I85110259
1838I84353684I82975287I80492923I77430954I75212992I74839359I75877030I77000272
1830I77197057I76172057I74047894I71234653I68434864I66337303I65249430I65042016
1822I65277053I65349895I64799172I63714782I62774813I62742867I63894153I65830238
1814I67740861I68912565I69101003I68482123I67393530I66209876I65284440I64866609
1806I65165960I66433144I68729291I71621138I74323225I76194516I77018227I76900048
1798I76141371I75334474I75380893I77033000I80252181I84173893I87787065I90563255
1790I92491533I93741182I94410864I94526881I94090555I92987610I91000422I88177933
1782I85116744I82608019I81004613I80071310I79368119I78624395I77799543I76978234
1774I76257028I75626559I74943606I74174841I73643395I73779889I74665273I76101017
1766I78026834I80484456I83260466I85970420I88449601I90770309I92971636I95044156
1758I97084728I99213515A001373888A003349846A004945746A006110783A006975989
1751A007798920A008773298A009891916A011038039A012114982A013024626A013652151
1744A013955407A014004288A013944958A013972580A014251335A014790588A015445618
1737A016018859A016347575A016426481A016492656A016813084A017354980A017845952
1730A018153290A018389167A018661917A018945834A019185196A019339165A019379639
1723A019404380A019639656A020156812A020712997A021035109A021125545A021169141
1716A021291763A021513470A021804834A022113614A022400053A022649383A022833498
1709A022901834A022848630A022779813A022862321A023149363A023467270A023589773
1702A023536688A023567434A023841384A024205409A024403935A024404777A024388083
1695A024455099A024538929A024607507A024731811A024902594A025007202A025033384
1688A025090791A025184231A025182549A025051519A024936222A024953637A025057524
1681A025166696A025261456A025287638A025164174A024986905A025003358A025267941
1674A025555341A025701865A025763237A025787137A025755430A025759272A025918887
1667A026148879A026264537A026229827A026080183A025772485A025329313A024968890
1660A024909320A025140754A025470191A025708951A025790259A025758912A025670639
1653A025514148A025261335A024963365A024729649A024628404A024646900A024737216
1646A024853113A024939706A024951835A024906438A024864042A024841944A024818164
1639A024817443A024891305A025018732A025114691A025136190A025110369A025073498
1632A025033623A024997834A025027619A025221702A025581764A025926694A026039949
1625A025890544A025644336A025483762A025464906A025524837A025584166A025632326
1618A025701625A025783413A025831094A025842023A025885019A026015689A026173740
1611A026196319A025989867A025670639A025426354A025265659A025068574A024857677
1604A024802550A024946670A025143877A025283914A025415305A025622479A025913723
1597A026227426A026484561A026614271A026553380A026310416A026103963A026278349
1590A026883657A027482238A027602220A027238915A026751426A026473873A026542691
1583A026877652A027247683A027493769A027646177A027756550A027788136A027745259
1576A027717636A027778047A027970808A028329429A028793860A029212772A029448288
1569A029378991A028934618A028320903A027995430A028160689A028480637A028526876
1562A028271181A027979337A027878212A028048515A028405694A028726604A028863038
1555A028886458A028933898A029061565A029281349A029560103A029776644A029860716
1548A029929293A030133104A030412578A030561264A030548412A030580720A030741774
1541A030795700A030598134A030440923A030633204A030963361A030966002A030583242
1534A030218735A030220657A030552855A030937539A031147115A031147115A031065206
1527A031053556A031179782A031430793A031750982A032030937A032143231A032027693
1520A031692373A031233587A030960479A031217733A031875767A032344280A032310171
1513A032076575A032034900A032237751A032555297A032803786A032759108A032446486
1506A032332390A032866718A033866077A034576113A034417940A033638725A033091187
1499A033299081A033936576A034379028A034458775A034431150A034498408A034632200
1492A034676156A034510898A034270216A034327744A034885493A035662665A036143909
1485A036068846A035579194A034964038A034430551A034178339A034448926A035238229
1478A036087581A036387954A035859990A034736928A033610382A033017565A033043747
1471A033409933A033849023A034202479A034418780A034694052A035214569A035654018
1464A035479751A034800221A034296158A034320899A034615266A034848861A034949386
1457A034911675A034693572A034394761A034223136A034186745A034106278A033975848
1450A033927328A033834610A033461337A033050832A033220535A034125134A035118728
1443A035446483A035044746A034472225A034189027A034158523A034114686A033944503
1436A033758467A033777803A034169572A034836972A035412015A035597449A035516983
1429A035611262A036120609A036732403A036886612A036466499A035973005A035916918
1422A036261366A036640885A036926125A037326541A038070085A039242990A040871196
1415A042910748A045211878A047722346A050628305A054047575A057676779A060920823
1408A063274918A064573088A065053251A065173591A065241209A065160981A064461273
1401A062663726A059770017A056149819A052166556A048466491A046094139A045781277
1394A047424856A050115955A052581264A054055741A054615171A054570373A054126480
1387A053532222A053063829A052739557A052200424A051047697A049324610A047548559
1380A046252431A045581069A045249471A044838125A044181775A043402921A042595363
1373A041770751A041040657A040466336A039833045A038899742A037775838A036802181
1366A036218972A036092506A036293434A036449085A036207442A035614144A035008356
1359A034629798A034556897A034835771A035399404A036019965A036495083A036754500
1352A036803142A036701897A036522106A036294755A036170931A036452808A037134980
1345A037680358A037672190A037441597A037637842A038336949A038912833A038773275
1338A038034415A037395478A037393558A037864233A038167606A037901223A037308646
1331A036951706A037087060A037532754A038045344A038537998A038914274A038968199
1324A038574629A037897741A037367015A037343235A037693810A037890655A037782323
1317A037963675A038955108A040363889A041396877A041837407A041886167A041504247
1310A040701734A040075168A040247032A040994660A041539557A041435670A040678314
1303A039337869A037802980A037059677A037863992A039711502A041355802A042261483
1296A042831961A043375898A043701612A043682395A043452642A043048383A042464694
1289A041998582A042002305A042418335A042968877A043599646A044476742A045636796
1282A046683833A046942291A046255795A045497838A045696126A046800572A047871031
1275A048260758A048230492A048572540A049705810A051113512A051895127A051763017
1268A051339902A051748485A053753328A056682586A058586184A058089567A055688271
1261A053091331A051617575A051025238A050025999A048108230A046161156A045023681
1254A044394353A043527225A042091781A040374339A039370056A040072525A042029809
1247A043405562A043026765A041653172A040845134A041249994A042325255A043176770
1240A043178212A042111837A040280901A038510855A037611901A037685042A038151993
1233A038444199A038375982A037893296A036889254A035452729A034032777A033152078
1226A033029575A033509618A034262769A035008956A035546167A035669150A035327584
1219A034859070A034779564A035300321A036172132A036912193A037193590A037199595
1212A037504290A038390034A039481630A040255680A040640002A040930526A041332383
1205A041787564A042226893A042779958A043554608A044425699A045306278A046299752
1198A047194983A047242423A045977402A044157514A043366530A044443835A046636874
1191A048565333A049610090A049999938A050057226A049965829A049830474A049462006
1184A048687715A048205391A049090294A050951856A052053301A051873750A051930798
1177A053217678A054498553A054338819A053317121A052971591A053641394A054531701
1170A055177001A055852329A056824305A057596793A057073274A054736833A051394188
1163A048382540A046484587A045724589A045656973A045884444A046494435A047616296
1156A048840004A049799850A050741440A051639794A051726626A050806533A049905778
1149A050026240A051079884A052139413A052283774A051425414A050531023A050477338
1142A050830194A050829112A050961104A052179647A054242858A055929314A056518287
1135A056183206A055293740A054201664A053433378A053142494A052700164A051501318
1128A049615975A047437827A045556328A044902619A046040334A048467211A050999055
1121A052369406A051796285A049664735A047332618A045894052A045340027A044925918
1114A044128570A043082252A041990295A040412891A037857386A035067084A033780325
1107A034727800A036870519A038820715A039926482A040255920A040162121A039924321
1100A039703576A039514537A039036055A037726717A035517463A033340036A032367940
1093A032497408A032707824A032971806A034288472A036531594A038118726A037970522
1086A036575791A035366616A035381269A036560779A038201836A039624310A040326299
1079A040134617A039413773A038703017A038314010A038421981A038807865A038646928
1072A037649853A036976568A037789048A039550928A041129533A042175491A042723750
1065A042708497A042205996A041581953A041144786A040728997A039740327A037602893
1058A034112764A030090227A028053559A029982258A034284508A037978928A039748854
1051A039906667A039322857A038820475A038785406A039022845A039173932A038949944
1044A037981331A036043865A033329947A030204443A027300767A026042831A027401652
1037A030041587A031971247A032521549A032317497A032248560A032057719A030407534
1030A026727046A022679047A020760198A020902277A021240121A021292485A021779854
1023A022365104A021865245A020176987A018333080A016827497A015060935A012410550
1016A009170111A006620131A005780146A006084661A006087184A004768957A001877711
1009I98161252I95239740I93852636I92932183I91153911I87798294I82956131
1002I78732606I77505897I77767656I76396886I72390443I66788282I60989155
995I55632059I50908675I46874129I42920230I37662578I29865034I19621877
988I09084413I00446164H92267480H80740566H63167057H37463325G99113100
981G45087979F83837894F28063205E80044505E39391707E09811001D91481668
974D79952803D73268143D74291551D84838353E01694650E20144234E36877517
967E50497728E61381922E70724503E79048810E86909947E97479898F15149547
960F37175192F57367619F76195040F95094461G13209384G30616433G48360966
953G65379068G79379518G90287733H01410748H17472788H38011645H57903700
946H74735526H88356758H98775261I06435470I12805737I19440885I25933654
939I30317333I31653094I31875341I34536534I41312261I52282207I64382483
932I73025656I77171176I78528435I78630881I77186368I73428535I70263398
925I73412501I81238809I88597025I93308039I95053764I94845028I94499739
918I94238700I92843969I91467134I93894551I99729047A004165751A004793097
911A003242296A003073975A004997629A006272199A004445165I98353713I88343852
904I80935975I83197533I87355183I87487954I85937933I88832362I96480381
897A003251003A006569628A006443042A003062625I97302711I93487469I97204409
890A005315536A011388372A013609757A013064499A011817492A010929107A010168269
883A010318875A012557793A015271351A015738183A013912531A013549465A017145164
876A021622161A023865284A023727168A022887663A022864243A023631087A024347849
869A024717639A025162613A025983742A026765238A026900231A026446970A026081504
862A026262976A026818442A027400090A027922289A028421066A028775485A028817400
855A028611306A028240436A027203606A024450175A019624285A015281920A015695546
848A019264343A020776772A018675728A015923978A016242486A018679932A020388246
841A020176508A017058090A008775099I95148823I87842732I94119980A003103339
834A009456791A012995922A014533692A015384126A015715364A013696830A007736468
827I98631807I88925020I82284827I85124250I96199165A005350185A008741711
820A008569247A009267753A012036917A013526047A011630376A007646152A003966083
813A000636229I96745624I94094098I94541354I96378175I98742600A002838337
806A007635103A009770014A007006255I99196520I88447079I83119348I92467333
799A006602056A015166984A017712640A016065098A012683299A011141325A013490497
792A016910247A017090038A012376922A005428611A002855992A007339174A014119945
785A018667081A020014491A019343248A017945636A015669125A011387532A004651919
778I96653686I90746829I90462250I93955202I96130407I94601104I90414030
771I86765968I85056994I82463597I75495349I62578148I47097456I39163838
764I40665158I44395368I47001916I48226824I48388960I47974672I47178884
757I45440005I42116936I37348274I31656457I24829508I16509345I08806620
750I04925203I03767191I02521445I00981453I00762990I02107218I03581395
743I04784625I06643545I09141581I11198428I13710816I19925192I29834228
736I39749149I47442326I52949728I57190006I60561896I62497321I62696628
729I62267688I62462611I62447299I60349858I55988638I51341278I48357674
722I47520992I48266878I48738393I46221561I38469835I24705744I06871556
715H88380057H70384394H52207079H33974397H16519068G99875860G83328732
708G67092846G53492032G44770792G39617027G35019749G30429677G28130287
701G31068613G42556854G65683704G98560456H33833999H65765858H92664353
694I14685794I32499985I46806632I58243831I67534408I75273943I81614305
687I86323156I88911269I88884006I86669407I84617545I85853322I90914069
680I97268302A002408076A005497849A006880689A007301703A007515843A008068186
673A009111742A010361510A011321596A011716368A011807283A012188964A013078191
666A013990957A014427883A014550626A014796233A015137558A015198329A014836707
659A014209900A013430446A012412832A010970182A009006173A006652618A004142331
652A001493328I98386561I94419151I89503726I84029532I78629740I73850449
645I70049379I67407341I65837384I64936147I64135315I62885366I60677373
638I56990219I51461499I44369547I36965993I30995002I27508776I26105218
631I25312313I23540406I19721741I13416209I04582976H93150941H78635139
624H60319047H37974654H12389342G85370086G59390662G36648075G17479448
617F99406801F78209611F50512806F15936508E77486959E40520534E11203210
610D94743306D93587666E06368072E28211584E52251139E71781811E82371278
603E83114702E76380530E66013129E54967099E43999854E32177493E18178184
596E01031033D80250262D56205513D30790263D07357877C89400857C79059397
589C76785979C81966437C93478969D09849939D29319929D50126491D70977280
582D91255699E10650806E28812448E45759451E62475620E80526289F00877489
575F23280011F46792384F70634013F94459368G18045543G40990260G62802726
568G83200585H02191283H19863995H36211154H51186042H64827270H77244972
561H88535768H98785830I08096464I16553722I24229724I31216468I37529746
554I43007183I47478476I50965482I53530355I55013840I55094308I53445624
547I49637408I43033245I33116763I20116032I05452085H91725465H82105872
540H79015318H82584173H90124221H97333271I00293696H96957236H87933943
533H76595947H67820483H65458340H70297682H80211522H92098198I03687504
526I13949276I22555879I29420000I34570343I38085032I40055106I40618439
519I39956143I38262181I35731237I32456809I28294476I22880872I15682631
512I05895797H92494530H74758045H53010133H29030928H05814003G86648198
505G73888390G68224676G68988217G74973620G84772704G96522165H07874813
498H16508499H20602915H18834851H10131086G93584019G68668869G35657064
491F95952281F52135488F07663845E66311640E31658354E06720568D93248411
484D90645977D95694084E03962630E11882380E17678504E20942664E22052872
477E22024472E22244736E23770317E26617063E29490477E30191986E26817691
470E19114669E08636776D97378738D86499767D76605383D68863506D65225803
463D67450040D76125250D90593343E09492374E31290845E54615924E78437076
456F02084983F25115932F47201267F68117121F87688146G05647358G21580470
449G34999392G45422519G52468353G56114733G57133668G57343064G59153884
442G64439760G73552948G85243139G97422861H08182451H16493906H22317294
435H26145146H28273753H28267087H25163262H18613505H10220141H03696806
428H03100146H10243561H23620868H39894105H56374516H72141529H87339384
421I02043504I15824770I28036499I38301874I46703706I53545608I59055112
414I63357903I66555707I68622701I69182551I67398874I61989174I51229464
407I32946820I04929406H66555761H21639085G80027582G54478420G53400575
400G75526564H11523895H50501708H85297670I13384803I34967576I51040906
393I62548964I70257333I74777807I76554098I75796742I72461843I66369070
386I57218770I44256172I25963679I00288592H65577660H22444060G76006007
379G35884294G11860833G07779027G19350859G37903969G56060147G70442998
372G80761998G87995489G93604076G99358465H06684554H15564206H24354804
365H31642280H38666855H49033896H65266899H86086793I07371056I25009539
358I36603229I41807376I42439347I42068956I44344205I50914019I60805941
351I71729589I81813071I90313085I97306194A003106822A007955532A012081955
344A015766887A019110253A021886023A023810158A024858877A025316822A025637131
337A026127863A026670598A026905636A026617754A025692978A023895789A020949357
330A016535652A009881707I99604623I84346297I63682295I38698928I12292426
323H88944351H73211687H67537165H71500971H83146965I00447365I21352650
316I43300049I63571742I80293316I93045618A002597175A010045886A016168745
309A021415108A026073337A030274703A034063762A037498045A040569503A043155753
302A045126127A046450958A047297309A047994253A048714858A049322689A049700286
295A049954059A050100462A049865665A048984365A047506525A045776353A044281578
288A043521460A043783040A044865147A046119000A047012070A047638274A048405479
281A049264440A049602644A048861741A046804055A043103028A037128375A028397888
274A017233918A005309411I95836881I92495196I97021135A007642429A020316665
267A031563865A040014876A045834001A049575380A051788358A053108987A054138131
260A055183488A056240855A057124797A057616490A057669334A057457837A057112426
253A056581820A055872385A055173279A054673180A054433819A054438863A054589830
246A054650240A054289698A053254549A051455199A048856458A045402838A041025526
239A035392197A027633807A016790026A002898087I87837087I75254607I69135532
232I71452156I80699497I92718524A003260611A010177757A013627652A014783742
225A014652711A013662841A011620648A007936436A002198980I94389306I84450905
218I72073077I57257683I41368468I27679800I20192836I21003877I28466580
211I38712259I48500293I55283406I57834587I58933510I61375519I65017516
204I68445913I70624721I71364903I70529902I67817425I63513553I58717568
197I54737008I52521268I52373244I53639467I54768294I54209825I51572111
190I48083003I45866483I46393846I49427111I53471866I57020664I59381666
183I60808463I61979086I63194085I64254635I65062373I65628648I65444234
176I63716103I60238405I55125294I47594073I35555650I16338922H87652186
169H49221914H05678950G67541783G45947060G43898440G53414387G62502294
162G64376286G60080821G55363983G57084727G70402104G96101812H29625067
155H63584828H92274806I14164737I30492680I42751008I51932594I58859467
148I64182695I68250689I71228348I73023615I72862860I68876955I58040680
141I36946597I04196551H64316542H29270769H12244200H17215412H35514690
134H53223612H62240720H65291100H71291035H86544016I09884165I34928663
127I56016622I71686653I83389815I92568158I99542471A004276124A007197816
120A009061900A010293894A010677856A009567764A006152759I99414984I87949381
113I70359179I47071574I22451031I04275758H99882651I10492775I28722034
106I44900933I54443241I57903946I57753759I55963237I53394401I51005416
99I50547532I53118830I57553311I61207018I62074025I59358066I52607200
92I41814402I28563982I15221684I02278602H88174985H71546249H52614461
85H33020677H14957697G99762545G86978295G75204394G63448988G51796689
78G41590403G34798944G33236672G38736568G52519636G73249213G96991219
71H18894181H34689417H43392161H48390936H54005648H61738038H70272941
64H78234122H85366368H92250185I00951608I13976900I29972764I44619056
57I56520685I67249169I77473409I85784805I90835223I93180071I95031545
50I98456700A003752244A009623491A014899159A018789944A019061612A011943719
43I95912725I74273324I52955853I36610195I26902207I24423387I30105896
36I42372511I55850702I66490432I76332692I90454264A007349263A021851194
29A032211328A040172810A048923354A059214911A068184038A073100124A073741823
22A070460429A063487496A054847926A048141257A044951861A042557050A038752498
15A033680041A025454096A010366075I86878503I57070446I23298283H86296789
8H49649052H21218912H05449617H00539837H02073164H07469112H20210185
1H44477212
##END=


$$ === CHEMSPECTRA PEAK TABLE EDIT ===
##TITLE=X9320
##JCAMP-DX=5.00
##DATA TYPE=INFRAREDPEAKTABLE
##DATA CLASS=PEAKTABLE
##$CSTHRESHOLD=0.93
##MAXX=3997.453
##MAXY=1.0657714589227076
##MINX=373.96442
##MINY=0.3739891042136026
##$CSSOLVENTNAME=- - -
##$CSSOLVENTVALUE=0
##$CSSOLVENTX=0
##NPOINTS=26
##PEAKTABLE= (XY..XY)
379.63054756841257, 0.7945974458007458
426.3761000078184, 0.9175614106867668
480.20431190774025, 0.7277938708484775
526.9498643471461, 0.8932028400792801
566.6127573260355, 0.806214927548284
599.1929908444095, 0.7497569312614707
606.2756503049254, 0.7383764967578489
675.6857130179824, 0.9133622629822288
757.8445627599954, 0.9884448037490747
827.2546254730255, 0.8610974539749483
906.5804114308053, 0.7025251974381596
940.5771768412819, 0.7478080975997865
978.8235379280686, 0.7971387496782449
1029.818686043784, 0.4617724411688471
1058.149323885848, 0.48700392172564855
1086.4799617279123, 0.7625221595945456
1206.8851725566847, 0.3739891042136026
1235.215810398749, 0.48992377462703535
1366.953276364347, 0.7227253904422047
1429.280679616888, 0.8940766443404898
1456.194785566849, 0.9321924436138028
1750.8334191243157, 0.4697550830398739
2879.80933713058, 0.966416059551783
2946.3863360594214, 0.9555964459531164
3399.676541532447, 0.94579309126957
3527.1644118217355, 0.93532115060143
##END=


$$ === CHEMSPECTRA PEAK TABLE AUTO ===
##TITLE=X9320
##JCAMP-DX=5.00
##DATA TYPE=INFRAREDPEAKTABLE
##DATA CLASS=PEAKTABLE
##$CSTHRESHOLD=0.93
##MAXX=3997.453
##MAXY=1.0657714589227076
##MINX=373.96442
##MINY=0.3739891042136026
##NPOINTS=74
##PEAKTABLE= (XY..XY)
3852.966747005473, 0.9853376138460871
3838.801428084441, 0.9871111494728462
3820.3865134870994, 0.9884746058741002
3749.5599188819388, 0.9808546288169099
3735.394599960907, 0.9805150017157076
3688.649047521501, 0.9892883880103336
3674.483728600469, 0.9821026306443517
3648.9861545426115, 0.9758622036322177
3627.738176161063, 0.9876773342640175
3617.822452916341, 0.9879330975402231
3586.6587512900705, 0.9893484101353099
3565.410772908522, 0.979369937073279
3544.1627945269743, 0.976352451318474
3527.1644118217355, 0.93532115060143
3503.083369655981, 0.9730127442930894
3494.584178303362, 0.9778503760989355
3487.501518842846, 0.9766343223480366
3480.41885938233, 0.9773200144049929
3474.7527318139173, 0.9782832845959004
3467.670072353401, 0.9769265638223041
3460.587412892885, 0.9775527697458749
3408.1757328850663, 0.9471916541274444
3399.676541532447, 0.94579309126957
3338.7656701720093, 0.9865092021316442
2969.0508463330725, 0.9676031459349302
2954.8855274120406, 0.9578785284160724
2946.3863360594214, 0.9555964459531164
2932.2210171383895, 0.9577044234587252
2918.0556982173575, 0.9680945857061876
2879.8093371305704, 0.966416059551783
1790.4963121032056, 0.970249890276687
1750.8334191243157, 0.4697550830398739
1684.2564201954651, 0.963061152201914
1670.0911012744327, 0.9841074932936608
1653.0927185691944, 0.9736545068762945
1647.4265910007816, 0.9786193354420997
1636.094335863956, 0.9861128313873624
1558.1850817982795, 0.9805099951572187
1541.1866990930412, 0.9749933463748756
1521.3552526035965, 0.986714957392428
1507.1899336825645, 0.975821672742183
1471.7766363799842, 0.983110068527495
1456.194785566849, 0.9321924436138028
1429.280679616888, 0.8940766443404898
1405.1996374511336, 0.9551247941973299
1395.2839142064108, 0.9404875626268039
1366.953276364347, 0.7227253904422047
1340.0391704143858, 0.977308748655816
1235.215810398749, 0.48992377462703535
1206.8851725566847, 0.3739891042136026
1137.4751098436277, 0.8724904048747925
1124.726322814699, 0.8590340600513469
1086.4799617279123, 0.7625221595945456
1058.149323885848, 0.48700392172564855
1048.2336006411256, 0.5181494947848335
1029.818686043784, 0.4617724411688471
978.8235379280686, 0.7971387496782449
940.5771768412819, 0.7478080975997865
906.5804114308053, 0.7025251974381596
875.4167098045345, 0.9350759969809912
827.2546254730255, 0.8610974539749483
756.4280308678653, 0.9851279240099959
702.5998189679435, 0.9619416583286747
675.6857130179824, 0.9133622629822288
648.7716070680217, 0.9453037964572529
640.2724157154025, 0.9388453350140207
606.2756503049254, 0.7383764967578489
599.1929908444095, 0.7497569312614707
566.6127573260355, 0.806214927548284
526.9498643471461, 0.8932028400792801
512.7845454261137, 0.9434916366809147
480.20431190774025, 0.7277938708484775
426.3761000078184, 0.9175614106867668
379.63054756841257, 0.7945974458007458
##END=

##END=

