##TITLE=X8151
##JCAMP-DX=5.0
##DATA TYPE=LINK
##BLOCKS=1


$$ === CHEMSPECTRA SPECTRUM ORIG ===
##TITLE=X8151
##JCAMP-DX=5.00
##DATA TYPE=INFRARED SPECTRUM
##DATA CLASS=XYDATA
##ORIGIN=ComPlat
##OWNER=
##XUNITS=1/CM
##YUNITS=TRANSMITTANCE
##XFACTOR=1
##YFACTOR=8.9380514e-010
##FIRSTX=3997.453
##LASTX=373.96442
##MAXX=3997.453
##MAXY=0.9597159604303702
##MINX=373.96442
##MINY=0.2066453842534047
##NPOINTS=2559
##XYDATA= (X++(Y..Y))
2559A071689883A072374018A073101767A073109769A072490319A071886874A071669410
2552A071796114A072138482A072492920A072570877A072351412A072115475A071920284
2545A071524167A071027020A070976071A071549841A072173026A072289860A072054324
2538A071925552A071925219A071692483A071132918A070628969A070569084A070951731
2531A071482288A071744099A071383725A070496930A069631740A069181407A069104518
2524A069241625A069416143A069423279A069479962A070224516A071693684A073049216
2517A073633324A073327567A072152153A070442980A069181874A069178073A069953836
2510A070387230A070025790A069320448A069047567A069382333A069647545A069181140
2503A068180644A067615410A068167107A069549783A071128917A072534532A073376515
2496A072910777A070572085A066882927A063581350A062236019A062931958A065002037
2489A067655089A069824531A070713260A070294603A069270500A068697330A068846641
2482A068854244A068062343A066703474A065296458A063930187A062992109A063643569
2475A065839485A067661224A067684631A066001466A063712722A062170533A062531573
2468A064679475A066755823A067374139A066862121A066415655A066646924A067241233
2461A067677562A067421886A065814544A062631469A060091184A061317080A064949822
2454A068580763A071236949A072414097A071747966A069391736A066204793A063279394
2447A061674453A062229350A064479683A066805037A068065610A068173175A067720041
2440A067388010A067565196A068182111A068667788A068438321A067569130A066799102
2433A066428859A066205060A066624384A068404511A070728131A071957228A071249419
2426A068897723A066423258A065459572A065257446A063734395A060990117A059865984
2419A061920325A065586077A069208148A071897211A073308828A073741823A073621921
2412A073094165A072255050A071388193A070750871A070227316A069412409A068267203
2405A067581800A068129963A069391403A070302672A070506399A070180169A069473160
2398A068492203A067578133A067335394A068172909A069509437A069971507A068896256
2391A067128666A066013536A065569405A064692012A062621266A059576899A057201796
2384A057289155A058816940A059798498A059722407A059128699A058724513A058419690
2377A057482479A055295098A052187379A049990596A050431326A052920329A055803449
2370A058035509A059049876A058675032A057474943A056595417A056820483A058067452
2363A059764954A061418110A062752772A063363752A062625134A060443488A058450032
2356A059004996A061785485A064505157A065737188A065468975A064616723A064214271
2349A064388989A064552571A064484617A064410996A064473614A064547169A064452208
2342A064228608A064163189A064408261A064841723A065271250A065326600A064517294
2335A062738501A060402943A058044512A056646965A057236606A058521253A058512851
2328A057592245A058347402A061636708A065174221A066958949A066694071A065321932
2321A063821621A062331380A060837538A060008360A060046771A059678996A057682271
2314A054276797A051377673A050827643A052338490A054859036A057497217A059423720
2307A060228958A060134864A059456263A058185087A056360680A054259525A051783993
2300A048411528A044975445A044470496A047226645A050345234A052234726A052936067
2293A052960008A052778487A052652116A052450857A051992588A051555525A051594337
2286A052056007A052820833A054340549A056509858A057877329A057310695A055219743
2279A052963342A051548923A050871656A050303755A049723183A049674836A050291551
2272A050620382A049691974A048097436A048051355A050361239A053189142A054851967
2265A055258221A055350248A055796513A056253382A056206101A055953427A055988570
2258A055924151A054895914A052885852A051259504A051157541A051942507A052757481
2251A053610530A054729865A056016178A057072024A057450269A057053152A056470046
2244A056439369A056802278A056751529A055976834A054990208A054506799A054932258
2237A056302730A058084524A059232997A059061880A057996764A056991334A056374218
2230A055782576A054949596A054105346A053590928A053438749A053628939A054357554
2223A055526434A056390156A056356613A055853797A055801848A056296661A056424233
2216A055508762A054071336A053207814A053195811A053329850A053119922A052971478
2209A053410408A054080539A054218980A053753042A053332518A053462290A054005050
2202A054520669A054732732A054696921A054759540A055208738A055827656A056040919
2195A055590986A054839164A054283666A054120484A054415972A055198803A056155420
2188A056726455A056750329A056522528A056154219A055483621A054676049A054229650
2181A054268928A054421040A054488260A054740601A055393661A056141749A056506121
2174A056524862A056708850A057288822A057890133A058041244A057689540A057153515
2167A056847024A056983998A057276751A057197395A056704582A056306998A056275122
2160A056286859A056066527A055920217A056319135A057218468A057999832A057977892
2153A057004204A055750100A055212607A055763904A056935450A058070853A058770327
2146A058862154A058448498A057955819A057823847A058150277A058733049A059301084
2139A059621178A059556026A059127299A058461502A057649128A056715119A055760503
2132A055060496A054913386A055349581A056038785A056532998A056640630A056564541
2125A056682042A057227003A058082123A058771460A058832879A058347602A057877129
2118A057829248A058079389A058213028A058028573A057811776A057916474A058086858
2111A057831516A057539696A058172150A059612643A060497504A060053240A059044675
2104A058525054A058619349A058880093A059021468A058957382A058675899A058329330
2097A058097728A057893667A057476210A056789207A055985703A055336111A055224077
2090A055923885A057250210A058613547A059466133A059649320A059419652A059209390
2083A059278210A059515280A059556759A059140970A058399617A057741089A057462340
2076A057578041A057858590A057839185A057091097A055804783A054838163A054902782
2069A055839926A056755464A056826352A055990971A054808688A053738371A052877250
2062A052347292A052428316A053171937A054209711A055061029A055471951A055447010
2055A055145654A054859903A054903316A055265957A055476886A055107841A054325545
2048A053660148A053390535A053459021A053779783A054228583A054469521A054272663
2041A054010185A054318543A055131317A055578716A055078034A054054531A053291439
2034A052953339A052594566A051965847A051447960A051561927A052219455A052718936
2027A052568692A052167106A052325487A053098115A053578791A053128257A052264268
2020A051874620A052124494A052573693A052832770A052805829A052712801A052954806
2013A053616935A054180835A054088541A053535044A053313912A053751642A054218113
2006A054033659A053458155A053260496A053640276A054116216A054224715A053890416
1999A053275233A052582563A052022130A051817603A052106155A052809363A053682621
1992A054446114A054837163A054727731A054235118A053536578A052720403A052028732
1985A051899294A052430984A053105917A053342254A053158066A053062638A053351390
1978A053809592A054134755A054239920A054089142A053737371A053531243A053744773
1971A054144691A054332414A054197174A053788119A053140861A052251665A050976554
1964A049356942A048120042A048074495A048992834A049902636A050262610A050115366
1957A049531393A048587180A047520265A046603594A046141724A046405535A047185166
1950A047752734A047617027A047033321A046606394A046657076A047024318A047274392
1943A047063863A046335114A045263864A044202550A043535419A043294481A043074483
1936A042543326A041761828A040830019A039648736A038270861A037146529A036688660
1929A036697929A036494403A035680362A034523820A033463306A032627925A032043286
1922A031814285A031809883A031616426A031069197A030510232A030383861A030792516
1915A031471450A032019345A032131845A031775940A031227378A030831127A030674947
1908A030676881A030959698A031732727A032774235A033517522A033739721A033756926
1901A033981126A034599509A035556525A036598300A037426278A037839734A037664415
1894A036786889A035472434A034370507A033966255A034164113A034511483A034721878
1887A034858118A034991291A034916269A034469603A033899835A033498383A033095130
1880A032439536A031755334A031322406A030845798A029800489A028088982A025947149
1873A023574713A021101248A018617247A016137580A013581690A010601342A006603559
1866A001470440I96064307I91426402I87700299I84312297I80846338I77310692
1859I73920489I71001492I68914207I67877968I67856828I68558502I69633820I71016630
1851I72872645I75091302I77141508I78536054I79097354I78754319I77409121I75000008
1843I71536983I67152620I62125064I56727202I51163889I45706274I40617635I35893371
1835I31361630I27040885I23165272I19970393I17635969I16287103I15891853I16245423
1827I17130553I18425336I19966659I21352935I22081951I21914702I20858656I18789110
1819I15474796I11025213I05891628I00362058H94447175H88367043H82829804H78674175
1811H76405303H76198442H78119411H82047773H87507455H93905148I00905886I08352889
1803I15906057I22944140I28864691I33505865I37222097I40389701I42917849I44468175
1795I45039477I45125903I45367374I46084119I47074612I47952072I48670751I49492394
1787I50532436I51686844I52895868I54172513I55519911I57039828I58931387I61221398
1779I63668789I65994477I68046284I69765459I71235894I72737672I74488123I76348941
1771I78009432I79370034I80521042I81513068I82423538I83518462I85120936I87336058
1763I89906485I92284989I93947814I94753786I94984254I95085484I95415248I96057572
1755I96738106I97053666I96893086I96466159I95755082I94112663I90714524I85398151
1747I78777326I71598602I64330918I57328980I51086133I46359601I44078126I44857687
1739I48546181I54440392I61793301I69849618I77699540I84579309I90245052I94818205
1731I98367722A000836186A002305620A003114193A003639548A004169238A005069438
1724A006742933A009179854A011860714A014356919A016766566A019336926A021917556
1717A024054189A025463272A026178350A026374742A026328795A026429558A026909033
1710A027600304A028167872A028469028A028622940A028899355A029528875A030437677
1703A031264589A031763136A032017811A032214936A032414796A032606386A032812713
1696A033054718A033244308A033234972A033051250A032943018A033137076A033689706
1689A034548760A035523715A036273937A036585830A036590898A036550552A036553153
1682A036509474A036327620A036048871A035835608A035819470A036001657A036328820
1675A036772085A037258895A037601997A037625070A037434614A037448952A037961637
1668A038755405A039378856A039684146A039783109A039638133A039154056A038556813
1661A038223381A038196973A038271728A038465986A038995209A039827055A040612888
1654A041049484A041104367A040956923A040865096A041012806A041386717A041805040
1647A042061583A042051980A041820979A041493482A041144178A040772602A040427766
1640A040270186A040412829A040737591A041006671A041139110A041176921A041020675
1633A040531930A039900677A039538770A039544505A039597787A039417601A039021484
1626A038515401A037941631A037426212A037183206A037238956A037376063A037427679
1619A037394135A037273433A037053901A036852108A036806495A036874648A036880183
1612A036722003A036515609A036537215A036890784A037267698A037288704A037018158
1605A036835437A036909125A037069973A037078842A036814364A036277872A035523849
1598A034589906A033572938A032814781A032782104A033540795A034519018A035101590
1591A035357266A035760252A036308147A036495670A036192180A035893025A035947974
1584A036142365A036234992A036330221A036513408A036658985A036779018A037042698
1577A037356191A037468624A037477627A037633139A037734636A037358258A036648048
1570A036320418A036806228A037752041A038483058A038700722A038557413A038288200
1563A038059999A038020121A038219513A038595958A039088703A039600255A039967697
1556A040176159A040317334A040266719A039898610A039540504A039559109A039761569
1549A039938088A040496987A041692607A042742851A042616147A041336035A039751166
1542A038430375A037460755A036914860A036821766A036922729A036923930A036777019
1535A036516676A036199048A036096085A036488134A037207080A037759910A037848737
1528A037538111A037105117A036858177A036903057A037131925A037507436A038062667
1521A038606294A038897314A039032554A039117179A038831227A038014919A037342787
1514A037627871A038660177A039414266A039308168A038756005A038531005A038955998
1507A039705419A040152151A039867534A038859836A037404872A035832140A034559763
1500A034067284A034539758A035618810A036631843A037013156A036598767A035772389
1493A035288379A035696300A036927531A038456650A039641600A039911947A039108243
1486A037843068A037086911A037160533A037512837A037630739A037656613A037868876
1479A038090742A038016386A037768646A037758043A038111214A038435444A038169298
1472A037179605A035920633A034908267A034296286A034152910A034668662A035677894
1465A036449389A036455858A035964512A035525116A035323856A035310986A035469833
1458A035669155A035665157A035525716A035706703A036480799A037562985A038466653
1451A038985473A039255153A039545105A039956694A040212769A040018245A039663540
1444A039716889A040100736A040163021A039667341A039011414A038562948A038373292
1437A038392898A038572484A038918386A039456879A039900010A039663607A038649774
1430A037590460A037167135A037227086A037270966A037267231A037538045A038076937
1423A038223914A036904057A033279185A027403313A020107487A012107587A003562459
1416I94583336I85579005I76768598I67861896I58543806I48927561I39369599
1409I30041439I20873260I12170219I05150675I01072802H99827900I00382331
1402I02547905I07125259I14381673I23750845I34575314I45446397I53605345
1395I56381033I52900069I45040611I37110664I32719699I31978546I33069135
1388I34744364I36824313I39398341I41980505I43869131I45220931I46853614
1381I48975508I51093268I53041711I55183278I57854935I61362373I66228880
1374I72537546I79145701I84437534I87813533I89922090I91708152I93826978
1367I96731638A000644796A005289903A009864457A013491530A015938454A017888898
1360A020229657A023070564A025655396A027173045A027570629A027667591A028419613
1353A030030423A032006075A033921841A035578065A036571292A036534348A035781658
1346A035047641A034658659A034428858A034118300A033611883A032877865A031993337
1339A031121346A030471087A030297636A030732298A031512795A032041218A031838425
1332A030974970A029924259A028980046A028261167A028329320A029775348A031978066
1325A033709379A035124864A037335385A039955026A041200995A040590081A039531434
1318A039112110A038944327A038310006A037250360A036263734A035614542A035224694
1311A034903799A034550894A034433326A035107192A036577160A037944764A038401567
1304A037876945A036479798A034540758A033305392A034111564A036745277A039533035
1297A040987399A040968660A040503722A040500121A040610487A039890941A038359088
1290A037028427A036637245A036902723A036818965A035696633A034012468A032692944
1283A031675110A030131853A028046236A026566532A026753120A028550919A031050125
1276A033526925A035790328A037367794A037226219A035214157A033175621A033388750
1269A035966513A038665512A039466215A038716927A038276063A039496624A042333330
1262A044850408A043985952A039509028A035402546A034966084A037858740A041742755
1255A044227224A043950875A041392052A038193038A035398878A033217566A031688114
1248A030410803A028797259A027467932A027999422A030726428A034123834A036561356
1241A037456754A036931332A035437223A033607548A032018878A031277992A031975332
1234A033779066A035096856A034749220A033495915A032796709A032733690A032302095
1227A031145087A029893583A029140293A028837470A028537448A027985818A027516746
1220A027659122A028327253A028829068A028710833A028136196A027498474A027163175
1213A027444792A028292776A029134225A029481794A029444983A029241790A028723370
1206A027967080A027723741A028483499A029603830A030121850A029981809A029770280
1199A029841034A030375726A031634298A033434964A034871389A035042173A033757326
1192A031427303A028826000A027036137A027021000A028820799A030965433A031053860
1185A027979883A023819386A022412703A025326765A030331913A034492544A037184073
1178A039305834A040754263A040116207A037134592A034092692A033321397A034412787
1171A035722774A037146462A039127048A040793941A041495816A042463235A044697963
1164A046498296A045162634A040669638A036165372A034883793A037406806A041575906
1157A044230291A043775290A041695008A040526796A040455775A039545905A036966009
1150A034076887A032621857A032961224A033809539A033534660A031970131A030668479
1143A031022250A032613721A034075554A034727013A034518018A033453703A031916181
1136A030911217A031423569A033807741A037670417A041735620A044245763A044197882
1129A041890999A038204642A034035608A030528037A028762715A028631876A028916427
1122A028934966A029269732A030374392A031296465A030625532A028170273A025236538
1115A023683546A024739391A028045569A031680845A033697708A033757860A032924813
1108A032225006A031993137A032336239A033283719A034345900A034690202A033982659
1101A032643130A031354682A030609661A030371124A030040626A029255527A028535314
1094A028426682A028430817A027916465A027495073A028238026A029759743A030574184
1087A030105045A029324148A029387433A030108046A030542908A030573851A030754571
1080A031088803A030996709A030285966A029416442A028958573A029181506A029882980
1073A030481757A030460751A029778549A029087411A029444383A031277259A033555466
1066A034501280A033576806A031988003A030974569A030681016A030745768A030939159
1059A031021583A030571717A029232587A027401646A026373875A026869288A028277238
1052A029608098A030292901A030266693A029796287A029375363A029516271A030372258
1045A031511595A032175191A031939054A031072598A030143123A029525541A029442783
1038A029914456A030563981A031038055A031278726A031262921A030823858A029788552
1031A028147400A026233567A024960257A025215132A026666295A028240427A029286403
1024A029723733A029656179A029241123A028879149A028984447A029375630A029433713
1017A028881283A027937938A026972452A026363272A026357203A026723178A026785263
1010A026049579A024779803A023830456A023707286A024019778A024043852A023343178
1003A022069335A021184606A021552315A022621698A023356115A023355382A022752470
996A021853537A020977812A020375233A020068743A019820069A019269640A018073552
989A016199465A014359120A013546213A013939929A015045456A016075428A016228140
982A015269921A013706727A012293909A011203786A010110730A008910108A007678277
975A006132353A003704034A000377783I97344152I95758550I95284810I94995458
968I94424755I93584307I92632292I91695881I90732330I89355922I87156472
961I84775500I83769136I83939720I84039149I83499923I82014283I79352496
954I75875134I72293607I68657398I64518974I60372347I58472251I60230638
947I63993752I67877567I71185346I73737368I75440205I76540464I77671999
940I78762521I78793197I77227000I74917250I73043096I71400543I69437962
933I67028316I63818300I59124311I52772965I45729014I38546156I29671530
926I18144319I07689093I00301040H93329244H84975306H74321487H60567617
919H44977938H29935354H14582145G96440511G77004627G60230064G45485901
912G29365398G10477477F91321676F74892882F61029513F48532749F36413763
905F22494112F05983227E93738670E87730826E83470699E79677710E78377859
898E80163854E83233829E86974069E91634448E97583941F06786264F23197787
891F45670836F66277533F83039692F99101711G16637633G34825814G51218664
884G65028350G76777293G85517746G89575146G88081638G79360191G62067674
877G39419440G14545414F86258111F53280487F17045166E80882800E47993769
870E20429013D99046354D83126944D69557461D53643887D31816462D03712314
863C72594807C43776514C21394358C06779801B99666229B99722113C07127404
856C22456606C46000672C76489426D10357213D44567201D81433876E26654822
849E74889560F11924318F37681338F61392220F88041105G13637212G33732423
842G49541835G62216852G70970908G76635251G84662824H00178150H15258478
835H25172012H32667096H39037581H44560548H49720208H54263286H57294316
828H58630178H58897790H58899191H60345418H65845779H73186951H77917284
821H79720884H80406887H81846647H84032960H85639636H86330307H86689213
814H86979965H86805781H86382922H87012442H88965886H90933735H92672316
807H94788609H96738719H97239334H95622456H91832735H86536032H83098884
800H85380559H89332862H90701400H89310188H85840828H81055279H75918426
793H71169621H66489570H60534608H51762546H39849621H27291572H16909900
786H08288350G99879862G91055517G82112605G73524931G64655040G53793759
779G39568484G21168106F98267664F73893585F52963927F35453613F17898885
772E97720715E75623844E55365317E38775242E23823551E07202467D88117020
765D73328144D68786167D72013355D80488029D93695704E11616339E33181587
758E55165624E74771859E91975149F07281544F19983636F29374747F35119580
751F35782510F29460239F15611942E93525407E62759371E27180910D94399545
744D69512782D54453793D50252083D56055300D69792332D89647306E10803866
737E26628248E36027429E41612114E45666080E49863122E55458478E63330340
730E74784929E91310685F11971332F33620337F54915371F76146653F95804936
723G10980025G20336394G23776412G21259534G12886923F98278534F76718555
716F49669552F21331034E94337514E68593631E44316481E22993906E05804653
709D92701676D83172657D77160745D74787009D75492851D78442391D83194063
702D89353953D96550415E05200775E16151781E28963639E42027671E54555811
695E66738615E78785513E90514316F01345321F10491760F17197878F20870831
688F21274684F18808755F14520486F09758277F06050313F05317696F09211248
681F17605198F28759299F40769252F51982303F60876801F66446783F68801346
674F69216869F69387453F70389949F72091453F73289874F72345461F67943359
667F59736731F48562291F36322336F25798223F19856198F20166490F26796251
660F38704508F54070054F70371811F84526065F93198631F93479848F83834127
653F64987751F40384005F15575331E96444338E87310235E89944948F03666474
646F26123319F54225500F84887639G15481091G44014066G69213522G90559237
639H08111230H22210002H33332159H42123494H49313688H55387818H60319744
632H63692142H65060213H64168883H60872241H54955424H46301063H35462323
625H23946849H13722291H06503955H03401504H04832194H10544417H19759010
618H31329233H43830199H55774066H66061710H74281475H80534458H85112746
611H88368576H90639315H92134024H92953400H93235950H93219745H93118848
604H92946397H92522605H91645079H90048207H87137012H82002626H73759187
597H61504226H43639742H17275075G78655382G25050055F57399706E81629554
590E07139315D43680172C98678057C75565819C73054176C85594253D05181382
583D24214946D38499806D48839299D59850090D76317362D99621857E27025865
576E53972005E76925296E94677948F08101453F19267224F30498213F43525001
569F58924357F76000008F93013441G07558880G16957327G18538595G09803343
562F88774655F54688837F08578394E53286635D92923009D32026291C74762248
555C24456064B83540392B53730305B36137366B31197355B38499799B56657988
548B83355604C15682802C50690893C85928885D19782102D51545399D81191237
541E08882797E34528052E57742754E78218278E96034350F11565011F25147630
534F36891638F46748021F54722981F61047318F66145760F70439631F74235087
527F77788538F81344190F85065758F89066742F93522727F98597559G04262838
520G10369045G16906646G24015682G31701223G39674982G47526505G54951902
513G61773387G67831980G72922619G76795832G79204478G79990508G79079107
506G76352767G71675117G65231410G57852560G50892768G45647149G42718481
499G41715719G41305398G39378094G33209336G19801102F96692532F63166479
492F21120238E74836344E29818558D91442270D63777552D48762409D46093120
485D53690234D68060519D84447101D97536974E03061208D99313466D87514108
478D71101552D54588000D42381922D37881990D43004339D57976569D81340582
471E10405314E42074584E73533626F02576552F27734796F48208720F63605675
464F73763748F78763160F78918873F74798320F67406133F58196675F48627177
457F39672594F31769323F25021659F19301167F14197257F09014190F03008613
450E95856564E87999972E80470345E74289783E69990177E67572862E66653323
443E66435125E65607214E62572116E56160052E46517032E35554455E26427922
436E22156225E24320865E32811344E46563713E64350775E85014823F07392443
429F30327163F52775804F73875381F92962161G09654166G23979338G36292715
422G46935730G56072367G63901817G70766848G76921869G82407559G87249258
415G91575471G95468690G98847690H01549156H03447251H04440945H04249821
408H02122325G96798750G87011588G72342781G53869649G33985299G15172199
401F98474525F83154326F68144418F53831584F42084508F34453517F30613581
394F28600985F26367858F23310753F20922180F22144341F29548065F43579950
387F62315560F82789285G02623353G20715506G36866551G51118501G63426409
380G73664172G81774171G87980874G92864386G97073098H00911367H04283430
373H07016373H09107659H10693995H11927893H12843297H13213673H12684317
366H11231220H09277175H07132074H04576385H01189649G96767874G91281584
359G84796666G77520313G69584231G60830241G51124570G40692683G29801394
352G18340870G06045099F92985901F79631884F66515936F53897603F41638243
345F29441300F17297641F05565836E94573184E84418713E75267404E67510977
338E61462454E57114834E54311405E52953870E52896753E53758408E55138683
331E57214464E60953437E67570795E77877644E91997622F09214516F28125578
324F47420753F66381097F84325873G00141685G12987553G23189304G31967368
317G40384859G48678179G56224545G61633346G62629107G56008548G38347056
310G07820291F66227985F19219076E73910204E35898657E08360076D93235068
303D92198394E06129716E33802637E71187331F12440404F52047856F86252643
296G13274704G33169591G47349186G57613089G65431069G71783015G77119661
289G81451609G84675163G86743575G87591426G87198976G85818301G84033040
282G82485048G81349045G79967370G77057443G71268196G61575595G47466954
275G29093385G07392097F84032919F60868732F38833613F17246226E94660543
268E70990740E49236737E35142367E34549125E50091723E79495323F16521211
261F53842253F85945152G10516822G28148038G40934888G50845687G58881798
254G65430669G70968708G76026671G80715058G84817872G88249221G91050983
247G93167076G94608302G95682420G96784946G98006574G99056351G99599912
240G99666865G99466940G98709382G96611428G92763690G87332083G80139688
233G70290374G57192365G41624092G25497988G10693074F98147562F87899130
226F79824074F74123054F70997596F70200293F71203323F73578626F76956759
219F80712070F83940358F85965424F86845151F87341898F88461696F90474825
212F91816289F90044898F85255748F83195538F89759747F99130319G03653524
205G03154310G00633364F98729534F98696524G00898576G05346559G11701972
198G19278881G27341466G35516885G43555597G50701778G55980807G59029041
191G60029471G59038511G55924521G50813211G44097424G36071916G26941348
184G17106838G07242920F98214448F90904686F85947419F83674013F84252781
177F87459866F92264488F97408477G02820278G09657834G18435165G28013465
170G36908030G44448728G50398153G54678288G57852294G60995157G64644903
163G68205290G70637743G71677651G72094574G72611394G72942492G72227347
156G70107586G67129172G64279262G62099484G60111629G57276590G53043604
149G47656544G41470580G34597680G27251104G19869456G13096518G08025685
142G05975211G07620898G12302350G18009572G22632740G25803411G28675128
135G31767709G34374147G36105793G37411112G38345922G38455488G38025361
128G37908393G37909393G36417152G31925089G24539637G15709958G06639541
121F97660818F89371299F83378459F81142531F82831964F87977220F96163975
114G06257562G16143687G24176063G30397504G36041640G42058354G48016784
107G52537388G54849672G55178169G54115121G52613944G52018167G52989788
100G54695293G55718396G55410171G54069108G52196687G50192361G48552209
93G47211079G44640585G39255258G32132817G26048751G21844240G17664870
86G11538057G03840713F96863849F92304767F89639578F86937645F82917189
79F78322430F75106545F74000818F73605101F71836111F67661342F61537330
72F54319661F46261944F37621321F29551600F23289347F19069632F16550620
65F16014528F18412771F24007159F32274272F43362486F57027062F70132873
58F79762056F86549731F91623098F94071154F93233308F90960302F89843372
51F90411340F91112014F90387666F88088452F85244011F83119049F82557016
44F83381660F84044523F82647509F79149341F75919252F74905019F75545408
37F76481685F77434500F78633655F80787426F86515987F97451689G09682642
30G19082823G24516831G26600180G27504715G28989354G30397837G30784218
23G31466687G34294924G38719299G41979197G41807013G40416335G43317260
16G49074096G51120702G48049393G43077589G37436720G29211286G19091159
9G13755380G18880830G29657418G36919767G38020559G34938581G27634153
2G15198674G04299049
##END=


$$ === CHEMSPECTRA PEAK TABLE EDIT ===
##TITLE=X8151
##JCAMP-DX=5.00
##DATA TYPE=INFRAREDPEAKTABLE
##DATA CLASS=PEAKTABLE
##$CSTHRESHOLD=0.93
##MAXX=3997.453
##MAXY=0.9597159604303702
##MINX=373.96442
##MINY=0.2066453842534047
##$CSSOLVENTNAME=- - -
##$CSSOLVENTVALUE=0
##$CSSOLVENTX=0
##NPOINTS=32
##PEAKTABLE= (XY..XY)
385.29667513682534, 0.6379582273466532
427.7926318999216, 0.6032335749939977
464.62246109460466, 0.5505969514410739
539.6986513760748, 0.6088086952804094
573.6954167865515, 0.6310042723043845
626.1070967943701, 0.6110713469038268
688.4345000469116, 0.599028466712906
747.9288395152462, 0.4777827555075025
801.757051415168, 0.43992945445694515
845.669540070367, 0.49418195972071044
926.41185792025, 0.5549834360240052
990.1557930648942, 0.4667059177879965
1045.4005368569192, 0.3913811733754286
1060.9823876700543, 0.3987203235746368
1153.0569606567628, 0.2066453842534047
1202.635576880375, 0.3334377400072646
1253.6307249960905, 0.7180843937589305
1291.8770860828772, 0.5249409068176079
1311.708532572322, 0.5540306558332577
1340.0391704143858, 0.5410360680177574
1372.6194039327597, 0.4243670690494263
1423.6145520484752, 0.4024376260811066
1454.7782536747459, 0.4190034856254984
1589.3487834245502, 0.26784321576461706
1646.0100591086784, 0.5169571032363952
1716.8366537138386, 0.8566874244911702
2341.527218131352, 0.8330072147845264
2361.3586646207973, 0.804270802135406
2838.7299122595778, 0.8438218815803676
2936.470612814699, 0.7831506711195919
2963.3847187646597, 0.8186288458955244
3000.2145479593432, 0.865075407650496
##END=


$$ === CHEMSPECTRA PEAK TABLE AUTO ===
##TITLE=X8151
##JCAMP-DX=5.00
##DATA TYPE=INFRAREDPEAKTABLE
##DATA CLASS=PEAKTABLE
##$CSTHRESHOLD=0.93
##MAXX=3997.453
##MAXY=0.9597159604303702
##MINX=373.96442
##MINY=0.2066453842534047
##NPOINTS=42
##PEAKTABLE= (XY..XY)
3000.2145479593432, 0.865075407650496
2963.3847187646597, 0.8186288458955244
2936.470612814699, 0.7831506711195919
2838.7299122595778, 0.8438218815803676
2361.3586646207973, 0.804270802135406
2341.527218131352, 0.8330072147845264
1732.4185045269742, 0.879297910330159
1716.8366537138386, 0.8566874244911702
1646.0100591086784, 0.5169571032363952
1589.3487834245502, 0.26784321576461706
1522.7717844956996, 0.7922536116918191
1507.1899336825645, 0.7893183216474637
1454.7782536747459, 0.4190034856254984
1423.6145520484752, 0.4024376260811066
1372.6194039327597, 0.4243670690494263
1340.0391704143858, 0.5410360680177574
1311.708532572322, 0.5540306558332577
1291.8770860828772, 0.5249409068176079
1253.6307249960905, 0.7180843937589305
1202.635576880375, 0.3334377400072646
1153.0569606567628, 0.2066453842534047
1060.9823876700543, 0.3987203235746368
1045.4005368569192, 0.3913811733754286
990.1557930648942, 0.4667059177879965
926.41185792025, 0.5549834360240052
845.669540070367, 0.49418195972071044
801.757051415168, 0.43992945445694515
747.9288395152462, 0.4777827555075025
688.4345000469116, 0.599028466712906
668.6030535574664, 0.6106436834894653
658.687330312744, 0.6244985444513333
626.1070967943701, 0.6110713469038268
573.6954167865515, 0.6310042723043845
553.8639702971068, 0.65954631451254
539.6986513760748, 0.6088086952804094
517.0341411024233, 0.6721577030379784
464.62246109460466, 0.5505969514410739
446.20754649726314, 0.6165855516885321
436.2918232525408, 0.6100729692438622
427.7926318999216, 0.6032335749939977
398.0454621657541, 0.6617879259629619
385.29667513682534, 0.6379582273466532
##END=

##END=

