##TITLE=X7607
##JCAMP-DX=4.24
##DATA TYPE=INFRARED SPECTRUM
##DATE=29/10/2018
##SAMPLING PROCEDURE=Diamant-ATR
##ORIGIN=ComPlat
##XUNITS=1/CM
##YUNITS=TRANSMITTANCE
##RESOLUTION=4
##FIRSTX=3997.453
##LASTX=373.96442
##DELTAX=-1.4165319
##MAXY=0.95556295
##MINY=0.59957141
##XFACTOR=1
##YFACTOR=8.8993735e-010
##NPOINTS=2559
##FIRSTY=0.92121422
##XYDATA=(X++(Y..Y))
3997+1035145031+1035952162+1036475246+1036234132+1035483328+1034696626
3989+1034097992+1033863040+1034226921+1035072965+1035872460+1036297290
3980+1036427827+1036259918+1035641392+1034801443+1034320286+1034419478
3972+1034708279+1034725492+1034436825+1034179167+1034229667+1034492415
3963+1034688588+1034745250+1034780413+1034816111+1034776126+1034609757
3955+1034294500+1033959284+1033998198+1034719197+1035880229+1036785011
3946+1036912735+1036421598+1036073925+1036529966+1037486654+1038076246
3938+1038009203+1037552358+1036904631+1036322005+1036381346+1037238976
3929+1038026884+1037907466+1037053653+1036218660+1035865696+1035787601
3921+1035493174+1034762262+1033875430+1033469286+1033878444+1034752886
3912+1035623041+1036343102+1036743352+1036384761+1035102970+1033521997
3904+1032642800+1032880967+1033973081+1035543473+1036934301+1037366164
3895+1036703568+1035545415+1034879538+1035403091+1036473036+1036839463
3887+1036247460+1035249983+1034196983+1033142308+1032676020+1033497215
3878+1034888379+1035493844+1035064861+1034059548+1032914924+1032255811
3870+1032891081+1034522353+1035702809+1035858596+1035570799+1035427604
3861+1035410927+1035297938+1035060641+1034794947+1034647063+1034868286
3853+1035819482+1037367370+1038785792+1039664922+1039888020+1039506858
3844+1038680907+1037510163+1036091138+1034858775+1034655569+1035917803
3836+1037762931+1038988127+1039310819+1039058787+1038563766+1038100156
3827+1037977791+1038198277+1038275232+1037973370+1037796620+1038040548
3819+1038014561+1037632395+1037858037+1038905479+1039640945+1039316646
3810+1038185216+1037016347+1036819303+1037757975+1038395656+1037738686
3802+1036597277+1036340825+1037164298+1038603215+1040390141+1041843190
3793+1042246856+1041770989+1040985760+1040194369+1039557827+1039303585
3785+1039464797+1039620651+1039261591+1038379782+1037533806+1037248621
3776+1037409900+1037591405+1037576737+1037467968+1037631658+1038258019
3768+1038901594+1039146392+1039235872+1039423540+1039430773+1038955979
3759+1038204104+1037734399+1037776126+1037876121+1037355917+1036088191
3751+1035037602+1035050863+1035237727+1034943433+1034898559+1035619558
3742+1036098036+1035445085+1033851854+1031903784+1030518448+1030537268
3734+1031719800+1033399430+1035456203+1037520477+1038881032+1039218592
3725+1038814391+1038141883+1037513914+1037138177+1037145611+1037463882
3717+1037754492+1037598973+1036990628+1036678117+1037519339+1039003465
3708+1039815284+1039625808+1038797312+1037817785+1037339842+1037806667
3700+1038723169+1039201514+1039093749+1038970379+1039390855+1040345668
3691+1041438118+1042443900+1043214193+1043295971+1042585554+1041505027
3683+1040261613+1038648625+1036558297+1034374872+1032925171+1033388245
3674+1035746411+1037744379+1038200152+1038060908+1038843860+1040665882
3666+1042429835+1043385384+1043280299+1042228973+1040715578+1039465199
3657+1039304724+1040484443+1041752772+1041562760+1039804233+1037713637
3649+1036978238+1037738887+1038675013+1039397955+1040131947+1040852544
3640+1041359019+1041543136+1041337921+1040677402+1039757081+1038913985
3632+1037999424+1036539008+1035072228+1035279922+1036948500+1038350915
3623+1038915123+1039024629+1039218124+1039775232+1040435617+1040643847
3615+1040278558+1039803228+1039776973+1040278357+1041097142+1042153826
3606+1043127593+1043357522+1042688363+1041727053+1041108595+1040795213
3598+1040361006+1039700085+1039071312+1038765230+1038812248+1038980559
3589+1039178809+1039774361+1041141145+1042783737+1043826423+1043950463
3581+1043484308+1043149293+1043381232+1043827160+1043946846+1043743171
3572+1043407487+1042835041+1042042712+1041561421+1041825776+1042369154
3564+1042609197+1042706647+1042993105+1043563675+1044357544+1045100512
3555+1045276592+1044619823+1043646525+1043199793+1043370516+1043553294
3547+1043369645+1043006701+1042942002+1043614845+1045040367+1046488795
3538+1046948855+1046200060+1045053896+1044296797+1043973771+1043842296
3530+1043777798+1043626767+1043254044+1042962764+1043438764+1044921417
3521+1046568831+1047157485+1046432401+1045356562+1044976874+1045295613
3513+1045458901+1044901994+1044087295+1043972632+1044773333+1045703030
3504+1046036103+1045912130+1045930749+1046234821+1046481896+1046521881
3496+1046590599+1046865938+1047131834+1047015764+1046437357+1045772551
3488+1045572292+1045983459+1046476739+1046393287+1045736183+1045126632
3479+1044954838+1045096091+1045494533+1046294631+1047255338+1047760205
3471+1047643063+1047303159+1046909004+1046233682+1045352409+1044762483
3462+1044703945+1044955642+1045334661+1045905968+1046657910+1047286013
3454+1047439120+1047185281+1047093121+1047642058+1048588232+1049143665
3445+1048839125+1047979753+1047256677+1047129891+1047448497+1047642929
3437+1047396858+1046988504+1046882079+1047202895+1047707226+1048096693
3428+1048308807+1048499086+1048655141+1048382481+1047432289+1046321957
3420+1045913871+1046415188+1047257481+1047826779+1047910834+1047620626
3411+1047242813+1047121854+1047481918+1048275520+1049225376+1050026546
3403+1050487142+1050533824+1050179721+1049473791+1048487968+1047468858
3394+1046889045+1047016032+1047493103+1047738303+1047669720+1047636232
3386+1047802132+1048014915+1048244844+1048732164+1049497233+1050059632
3377+1050039071+1049764334+1049779672+1050045969+1050086557+1049660320
3369+1048991428+1048583610+1048766522+1049242254+1049480020+1049647059
3360+1050357476+1051437132+1051899536+1051319924+1050397996+1049956623
3352+1050063249+1050317290+1050467049+1050516946+1050566508+1050734284
3343+1051027975+1051232654+1051116316+1050686664+1050077180+1049413044
3335+1048977698+1049206422+1050250046+1051686150+1052813762+1053259355
3326+1053266588+1053341869+1053638306+1053774871+1053258082+1052103010
3318+1051001519+1050671862+1051106069+1051769000+1052281837+1052459591
3309+1052098054+1051321665+1050739776+1050785119+1051245112+1051590709
3301+1051460105+1050790209+1049727095+1048476381+1047247568+1046277150
3292+1045710933+1045463523+1045323007+1045111630+1044694636+1043985826
3284+1043004692+1041910434+1040952071+1040211247+1039288984+1037548607
3275+1034845715+1031710022+1028686179+1025859381+1023117039+1020460360
3267+1017905016+1015445113+1013318015+1011972865+1011513676+1011454670
3258+1011279326+1011012827+1011016042+1011415422+1011983179+1012564935
3250+1013435291+1015041113+1017347171+1019628850+1021158319+1022067388
3241+1023142624+1024665529+1025967011+1026440667+1026438993+1026608309
3233+1026887399+1026822967+1026423052+1026121525+1026208394+1026690756
3224+1027437876+1028192029+1028666756+1028826695+1028898695+1029002240
3216+1029009005+1028909411+1028979937+1029331562+1029590291+1029331964
3207+1028652490+1028051044+1027809862+1027696873+1027377062+1026961206
3199+1026881505+1027332991+1028126660+1028908808+1029258223+1028898494
3190+1028046355+1027203258+1026585336+1026173633+1026117574+1026557340
3182+1027234536+1027698079+1027760635+1027524677+1027072253+1026359492
3173+1025460805+1024746637+1024618177+1025092637+1025789256+1026303031
3165+1026500477+1026471878+1026255679+1025749071+1024950379+1024049214
3156+1023154211+1022282917+1021678457+1021663119+1022125858+1022588730
3148+1022681760+1022262958+1021403921+1020480587+1019846925+1019399591
3139+1018917897+1018615366+1018788968+1019207570+1019345273+1019004297
3131+1018412562+1017908164+1017660955+1017545287+1017299082+1016867219
3122+1016423569+1016041737+1015586835+1014978423+1014386755+1014049262
3114+1013922007+1013648074+1012975231+1012104741+1011502826+1011387827
3105+1011494855+1011374633+1010911024+1010395441+1010017427+1009606394
3097+1009071923+1008667320+1008489967+1008127492+1007164307+1005810315
3088+1004791004+1004653569+1005191589+1005576434+1005132382+1003913749
3080+1002487424+1001331548+1000544845+1000000195+999620908+999400958+999155223
3070+998500463+997250151+995680630+994344923+993702889+993783126+994115328
3060+994208425+994027657+993699674+993072040+992110529+991351421+991342379
3050+991890914+992301143+992156073+991581551+990853921+990012700+988970550
3040+987851176+986900515+986092112+985217403+984356089+983812443+983579298
3030+983264510+982602852+981757143+981072043+980689542+980496450+980433023
3020+980610175+980907550+980736492+979645718+978023420+976806328+976590731
3010+977294986+978467874+979594548+980239797+980223923+979731916+979158198
3000+978753661+978412417+977890070+977231694+976767682+976663266+976711824
2990+976621205+976303068+975892504+975571554+975310012+974853636+974056217
2980+973013732+971845867+970733124+970115470+970311375+970965130+971389893
2970+971356472+971098011+970729173+970110446+969213769+968297802+967650008
2961+967270855+966902151+966333791+965600468+964886234+964290011+963672089
2951+962750563+961448076+960090468+959052671+958262754+957338281+956202297
2941+955206629+954621323+954389318+954423543+954699418+954994314+954982124
2931+954675105+954461853+954698480+955430463+956381860+957182025+957762910
2921+958412379+959260030+959932873+959890544+958946313+957465670+956170751
2911+955535147+955254718+954644162+953617417+952808880+952661800+952899967
2901+953003848+952800910+952451562+952128200+951853799+951571963+951310555
2891+951202723+951285907+951397289+951390658+951317855+951291265+951351879
2881+951535528+951841207+952087010+952022512+951609001+951042248+950591900
2871+950529478+950989002+951716631+952139720+951887823+951186448+950658608
2861+950751370+951356299+951955536+952136907+951963439+951854201+952142667
2851+952721342+953085425+952796355+951951383+951108152+950704688+950656398
2842+950580849+950318905+950084622+950114895+950339131+950516217+950598664
2832+950774745+951146731+951572767+951904835+952199664+952542314+952823280
2822+952884898+952765211+952625432+952578080+952734201+953255276+954208147
2812+955450288+956701873+957716429+958448278+959063856+959718683+960359579
2802+960793651+960878510+960634784+960271103+960081761+960248733+960739334
2792+961356051+961877327+962230492+962522308+962863284+963236475+963556086
2782+963744490+963791574+963830086+964055662+964481764+964867748+964950263
2772+964739288+964582831+964845311+965537645+966422333+967362010+968263309
2762+968861139+968963880+968791484+968750226+968965220+969199503+969168158
2752+968891278+968718011+968921149+969343703+969628017+969689300+969727811
2742+969847699+969933696+969946823+970100601+970576467+971198475+971595912
2732+971638643+971518488+971461960+971590353+971968568+972533177+973017817
2723+973203810+973193295+973254310+973480422+973767884+974011745+974191844
2713+974335508+974475488+974640249+974876475+975218455+975585753+975800479
2703+975766589+975539204+975199836+974784114+974345018+973979864+973732052
2693+973519134+973258798+973054051+973064902+973176551+973058539+972620849
2683+972136879+971807289+971473680+970899761+970107298+969247391+968320909
2673+967285657+966322472+965711314+965483595+965398803+965201893+964800705
2663+964297111+963860694+963491722+963003465+962313543+961602456+961118486
2653+960934168+960877841+960660369+960147532+959503756+958982012+958665750
2643+958486722+958351564+958204618+958086740+958141728+958451225+958909275
2633+959376903+959886258+960524407+961160480+961524630+961562873+961425773
2623+961108909+960495406+959793027+959450577+959544947+959731208+959862548
2614+960108753+960411016+960470089+960380073+960619714+961297915+962001434
2604+962456805+962778626+962985783+962795169+962110940+961390209+961207498
2594+961605671+962201626+962777487+963323344+963643557+963480738+962991677
2584+962662556+962775411+963188922+963605313+963928876+964288270+964677402
2574+964820128+964560595+964048562+963387306+962599732+962110337+962621031
2564+964161082+965698990+966076334+965172557+963858684+962973058+962699460
2554+962814324+963050482+963142240+962894026+962352523+961743843+961280100
2544+961196380+961778403+963013846+964311042+964944369+964839484+964614578
2534+964773848+965203835+965650566+966283626+967364421+968593904+969316376
2524+969280008+968774472+968184009+967854352+968143221+969085241+970147551
2514+970730579+970829637+970983481+971640183+972673693+973522751+973837204
2504+973876319+974067402+974326265+974191643+973614241+973186062+973434878
2495+974226135+975048068+975545232+975595063+975301104+975138419+975667732
2485+976925746+978431171+979730710+980587939+980923289+980985644+981232117
2475+981691239+981831688+981345909+980686662+980553848+981092538+981844212
2465+982375937+982725954+983153464+983643194+983927374+983960996+984027101
2455+984269087+984482004+984547976+984705303+985124574+985555767+985700904
2445+985666345+985788576+986225529+986866626+987436526+987619840+987352404
2435+987076931+987400962+988405404+989581842+990509462+991208225+991784288
2425+992157948+992231622+992026474+991734726+991792057+992528729+993581059
2415+994128121+993866512+993297482+993055162+993354613+994018481+994735060
2405+995388078+996138412+996999861+997571369+997532188+997125441+996820632
2395+996799267+997027790+997514841+998256937+999110616+999779039+999844341
2385+999022476+997525021+995874727+994265020+992486199+990527010+988754618
2376+987434383+986497720+985684361+984531365+982628973+980147169+977548089
2366+975013508+973032284+972638598+973868348+975238347+975853859+976527639
2356+978062802+980067869+981882255+983340327+984433580+985021832+984957535
2346+984298690+983467783+983049985+983326865+984156232+985160138+985992452
2336+986583115+987048600+987435923+987765045+988098318+988333539+988301055
2326+988187196+988371514+988858298+989448023+990423063+992215950+994416588
2316+996045650+996756737+997057326+997432259+997912010+998527655+999541675
2306+1000981865+1002358427+1003179757+1003609209+1004341326+1005821567
2298+1007762002+1009416985+1010197794+1010090297+1009684689+1009734787
2289+1010497245+1011583465+1012560849+1013426651+1014307321+1015071721
2281+1015525150+1015697413+1015742756+1015834781+1016196988+1016880883
2272+1017510995+1017608579+1017144300+1016521421+1016195046+1016572859
2264+1017846948+1019429261+1020105788+1019403408+1018186584+1017382133
2255+1017043300+1017156490+1018056784+1019535820+1020941517+1022397982
2247+1024419794+1026375499+1027035617+1026639921+1026734425+1027772355
2238+1028386460+1027576651+1026426334+1026682920+1028427986+1030173654
2230+1030756950+1030322810+1029916666+1030570354+1032258289+1033682539
2221+1033652265+1032371613+1030828012+1029524052+1028478352+1028006103
2213+1028801110+1031099600+1034117348+1036654207+1038024272+1038126880
2204+1037115673+1035421978+1033616031+1032055619+1031037112+1030842211
2196+1031207566+1031402869+1031058544+1030239827+1029022065+1027727147
2187+1027096097+1027630299+1029165193+1031170394+1033036955+1034478953
2179+1035940776+1037937337+1039802089+1039948633+1037916307+1035346697
2170+1034204886+1034698166+1035630341+1036157176+1036480002+1037769428
2162+1041597253+1047380248+1050731605+1048464660+1043700240+1041145030
2153+1041478169+1042586023+1042861429+1042275521+1041685930+1041598995
2145+1041421307+1040345066+1038395254+1035880430+1033079083+1031338639
2136+1032727792+1037392151+1042769002+1046311911+1047525788+1047032843
2128+1045364532+1043040524+1040750071+1039149272+1038731608+1039521325
2119+1040713502+1041302357+1041227143+1041124066+1041018779+1040282041
2111+1038925371+1037925549+1038017307+1038788739+1039210823+1038892954
2102+1038554255+1038971048+1039706447+1039654072+1038815128+1038503219
2094+1039520588+1041142619+1042206737+1042370896+1042032867+1041633085
2085+1041323454+1040966940+1040291284+1039351741+1038820888+1039344106
2077+1040590935+1041512193+1041602879+1041242346+1040838546+1040493083
2068+1040514850+1041423986+1043134759+1044501610+1044141010+1041803808
2060+1038619557+1035975269+1034640700+1034829841+1035957520+1036318053
2051+1034571447+1031830646+1030932897+1033178810+1036989825+1040204616
2043+1042436867+1044441934+1045877101+1045118528+1041908291+1038673942
2034+1037773112+1038680372+1039504983+1039681465+1039375585+1038247705
2026+1036829216+1037257663+1040453366+1043786505+1043684634+1039871544
2017+1035423920+1033393804+1034594755+1037500920+1039164342+1037784297
2009+1035054346+1033938723+1034291955+1033468081+1030892041+1028986099
2000+1029724913+1032157624+1033429703+1031771707+1028350762+1026116971
1992+1026910572+1029870118+1032721095+1033751122+1032436513+1029491702
1983+1026535506+1025195445+1026468194+1030497082+1036032132+1040551084
1975+1042287778+1041602410+1039688498+1037186266+1034566625+1032683454
1966+1032005990+1031959843+1031919590+1032209396+1033414835+1035254939
1958+1036758087+1037021705+1035559882+1032867840+1030807986+1031382039
1949+1034776327+1039112502+1042273110+1043602320+1043696690+1043268176
1941+1042894851+1043238974+1044426798+1045523600+1045545167+1044677959
1932+1043723815+1043070998+1042787890+1042697873+1042147731+1040834729
1924+1039739801+1040005161+1041167467+1041963077+1042250338+1042871141
1915+1043947449+1044679767+1044776146+1044904003+1045519247+1046077896
1907+1046102811+1046071332+1046466090+1046937268+1046963790+1046556709
1898+1045973279+1045429968+1045201311+1045394738+1045700150+1045713277
1890+1045363326+1045136880+1045898801+1047941107+1050157016+1050858726
1881+1049833922+1048634646+1048564723+1049475131+1050585731+1051492723
1873+1052225510+1052869955+1053203630+1052789181+1051866450+1051455216
1864+1052102742+1053344146+1054208207+1054066619+1053203161+1052533198
1856+1052710082+1053575549+1054439141+1054684341+1054155965+1053233100
1847+1052555970+1052522951+1053002970+1053516677+1053805010+1054002456
1839+1054284627+1054537261+1054322870+1053337784+1051795321+1050287151
1830+1049552957+1050044630+1051411413+1052911011+1054057979+1054727139
1822+1054947959+1054814877+1054662640+1054917217+1055492208+1055783956
1813+1055393820+1054455818+1053428202+1052850733+1053059899+1053852630
1805+1054568271+1054741337+1054615355+1054812399+1055498370+1056240399
1796+1056587604+1056386341+1055854147+1055596892+1055989640+1056638573
1788+1057042909+1057042440+1056677553+1056100084+1055539091+1055187734
1779+1055101871+1055196106+1055315592+1055321352+1055169115+1054960350
1771+1054880179+1055058537+1055434541+1055652281+1055326442+1054495937
1762+1053638038+1053149447+1052874509+1052484105+1051925724+1051298826
1754+1050613861+1049767281+1048697671+1047674676+1047179454+1047278244
1745+1047604753+1047846671+1047981762+1048156503+1048435727+1048687691
1737+1048757748+1048664585+1048597407+1048733235+1049175948+1050043625
1728+1051156636+1052007770+1052376809+1052509757+1052554899+1052314186
1720+1051732096+1051368415+1052061485+1053548223+1054826665+1055686238
1711+1056347427+1056811104+1056975396+1057092270+1057646230+1058508214
1703+1058973498+1058694274+1058079165+1057859550+1058330459+1059431750
1694+1060639934+1061337625+1061517121+1061473051+1061250958+1060606178
1686+1059541591+1058920922+1059667037+1061019086+1062019979+1062453114
1677+1062393907+1062107919+1061817510+1061294559+1060380267+1059827579
1669+1060614617+1062071818+1062854369+1062700725+1062107919+1061592604
1660+1061175810+1060547373+1059476691+1057842404+1055638082+1053445615
1652+1051991562+1050510851+1048234530+1045196756+1042076669+1039105671
1643+1035529408+1031046622+1026367864+1022726099+1021485833+1023956251
1635+1028986701+1032828994+1034334619+1034594956+1034792803+1035512798
1626+1036479466+1037192696+1037564146+1037572719+1036910123+1035333101
1618+1033083503+1031064639+1029799391+1028514050+1026393985+1023221522
1609+1019178301+1014750235+1010652428+1007552032+1005674420+1004632337
1601+1003777989+1002847086+1002172769+1002347711+1003711414+1005936565
1592+1008234721+1010148097+1011823240+1013399994+1014568260+1014917207
1584+1014358759+1013024124+1010995146+1008347509+1005529484+1003694402
1575+1003409954+1003013857+1000989835+997554491+994263614+992780224+993064070
1565+994166364+995253188+995617270+995243342+995714386+998550293+1000407276
1555+999101909+995805541+991780604+987836575+984554941+982291212+980969302
1545+980378103+980315614+980119641+978837248+976243191+972653534+967617055
1536+960227836+950396329+940743381+934916181+933412498+935704357+942137759
1526+951568011+961687114+973097117+987490777+1001958445+1013015082+1021646710
1516+1029025213+1034000542+1035366120+1032889473+1026032112+1011647963
1507+985404601+957721050+945263405+946138048+955173542+970165501+988903774
1497+1007837485+1022365298+1029923029+1031402802+1027926736+1018938727
1489+1002906695+978957135+948523942+916701193+891915100+882390880+890027777
1479+908816349+931149036+952555710+971463165+988009642+1001851083+1011481326
1469+1017116572+1020464847+1022597504+1023250322+1022026331+1019720273
1460+1017428011+1015897605+1015956209+1017896443+1020734561+1024016128
1452+1027730495+1031279164+1033712544+1034481565+1033459307+1030014117
1443+1022652425+1010563886+995746802+982942221+978252143+985607606+999835031
1434+1012492801+1021960560+1029866903+1036508935+1040937470+1042686621
1425+1042123485+1040132617+1037635141+1034869826+1031615317+1028473664
1417+1027050888+1028317810+1032151194+1037650076+1043469105+1048456088
1408+1052107631+1054672151+1056814051+1058820056+1060403575+1061427239
1400+1062094055+1062517813+1062657191+1062728989+1063153217+1063870331
1391+1064323827+1064235753+1064001069+1064257320+1064995398+1065632476
1383+1065862941+1065851019+1065922416+1066189450+1066446906+1066551992
1374+1066753791+1067323491+1068080122+1068672125+1068939360+1068911498
1366+1068740172+1068700522+1069160314+1070245999+1071523169+1072406451
1357+1072743542+1072854321+1073102669+1073492203+1073741823+1073570163
1349+1072778102+1071172615+1068505488+1064454632+1058595685+1050640115
1340+1041374624+1033368688+1029326070+1029788340+1033539276+1038957318
1332+1044486407+1048917688+1051687623+1052690525+1051822246+1048905364
1323+1043955017+1037437494+1030597279+1025578951+1024385368+1027134742
1315+1031830512+1035976005+1038333837+1039434859+1040699906+1043282911
1306+1047452717+1052560592+1057530027+1061542036+1064389062+1066292928
1298+1067475527+1067914021+1067494616+1066405783+1065291165+1064849456
1289+1065246157+1066025693+1066616356+1066748433+1066361579+1065481511
1281+1064461865+1064060075+1064825278+1066438266+1067973897+1068824562
1272+1069141762+1069373031+1069615418+1069587890+1069122741+1068433354
1264+1067789110+1067079832+1065908284+1064075948+1061736937+1059042685
1255+1055859640+1051877367+1046817983+1040508488+1032854110+1023709377
1247+1012657295+998965345+981879308+961013735+936629902+909842157+882586785
1237+857060203+834902592+816858058+803094377+793665933+788640104+787883942
1227+790831767+796493401+803676534+811261994+818431598+824792665+830382635
1217+835546703+840616401+845440766+849228070+851180494+851534330+851802100
1207+853711593+857862578+863379209+868571139+871662695+871258493+867037986
1197+860548325+854898010+852803529+854469964+857355635+858038525+854672300
1187+848466350+843075634+841719901+844341485+847964765+849727244+848716506
1177+845031876+838484414+828865690+816828254+803917716+791643519+780423192
1167+769621334+759050744+750132926+744704838+742613171+741351807+738563386
1157+734416218+730998421+729720850+729966050+730076494+728927249+726478598
1147+723381483+720356636+717896599+716445559+716604695+718888852+723334734
1137+729476119+736588056+743854977+750315437+754686305+755618480+752800522
1128+747979172+744401168+744899471+750469214+760310768+772690854+785822548
1118+798511797+810335913+821299386+831432018+840687329+849029285+856580586
1108+863756151+871135324+879071069+887453546+895879289+903999553+911719032
1098+919106778+926142697+932646759+938534237+944009610+949303880+954283696
1088+958490272+961418808+962533828+961343727+958106498+954436402+952606210
1078+954013849+958419009+964374803+970088813+974242478+976543982+977523375
1068+977658332+976852943+974865959+971997435+969061733+966827406+965727656
1058+965703679+965656795+963418048+957347524+948084779+937816653+927433664
1048+914736914+895613594+867129878+830314453+790966858+757572445+736544254
1038+727649811+724200669+718987240+710289305+701625328+696607201+695839787
1028+698562505+705020018+716150730+732082365+751763128+773429803+795080337
1018+815070530+832361112+845960032+854779863+858688931+859247647+858991329
1009+860206344+864081991+870299862+877500276+884573233+891348213+898017304
999+904501741+910611781+916365374+921875039+927113384+931943709+936318663
989+940362487+944226613+947815333+950534769+951379004+949758113+946649344
979+944577167+945772692+950277915+956142487+961314860+965048182+967768556
969+970088746+972004333+972841201+971837361+968751164+964278759+960297626
959+959171420+961866812+966933228+972033401+976088476+979304340+981763975
949+983033509+983118234+983114149+984493859+987746894+991984145+995907143
939+998767296+1000408348+1001011268+1000966126+1000643702+1000331526+1000449538
929+1001340121+1002653726+1003422680+1002916139+1001108718+998434960+995554982
919+993352067+992708761+994012252+996912390+1000616443+1004360682+1007611373
909+1010053259+1011620235+1012540890+1013274950+1014317301+1015832102
901+1017416625+1018463531+1018887021+1019268585+1020153877+1021341834
892+1022053791+1021869875+1021268495+1020890749+1020500814+1019333887
884+1017449176+1016022716+1016130280+1017704422+1019764946+1021336141
875+1022135837+1022629988+1023444352+1024658229+1025745990+1026243087
867+1026253937+1026122128+1025858778+1025347481+1025020302+1025667494
858+1027381549+1029286353+1030603909+1031464554+1032348573+1033245921
850+1033809860+1034023782+1034284052+1034904520+1035781038+1036587565
841+1037191959+1037770366+1038565842+1039695329+1041118909+1042590243
833+1043780611+1044680973+1045645095+1046756700+1047349439+1046375404
824+1043257058+1038506032+1033619313+1030236143+1029282870+1030850717
816+1034456047+1039118530+1043647462+1047383195+1050548090+1053628996
807+1056568851+1058770895+1059765023+1059648619+1058991247+1058518797
799+1058674717+1059236916+1059627454+1059644667+1059328271+1058138573
790+1054876562+1047934343+1034533137+1010368315+972298694+922909621+872111301
781+832569207+811473505+805575846+804867974+802227638+799299169+802751057
771+816062850+835442956+852152118+858699446+855486262+852006311+858753362
761+877143225+899353881+917000442+926257829+925317751+911350529+881348462
751+835267345+779887249+730305619+704104989+710287430+743427133+789017180
741+833598364+870243937+897844103+918237158+933975031+946667294+955703324
731+958941826+956266260+952461675+954198034+962753242+971826779+974817937
721+972850243+973128864+980005179+990507721+998303486+999062393+992330680
711+980266788+964325777+942084312+908307196+861604473+810560686+771021070
701+755486269+765253144+792019188+825197201+857419397+885335154+908161456
691+926375373+940830785+952300865+961475804+968988461+975215977+980145695
681+983618546+985820993+987450390+989263370+991565477+994111578+996166877
671+996996981+997155781+999567461+1006229787+1013478155+1018081699+1020577167
662+1022363556+1024195758+1026091587+1027613220+1028345069+1028478821
653+1028656910+1029231232+1030228307+1031821403+1034111119+1036630497
645+1038691490+1040160010+1041451044+1042728616+1043631254+1044093926
636+1044841113+1046487589+1048614955+1050290098+1051118526+1051327693
628+1050930524+1048981114+1043699034+1033130387+1015832102+992777210+970275878
618+958814102+964939480+984527347+1007026871+1024628023+1035297469+1040436287
608+1042625807+1044311465+1046648064+1049286526+1051409337+1052861784
599+1054188985+1055705795+1056996360+1057481536+1057046324+1056106179
591+1055425232+1055527170+1055996137+1055882411+1054922039+1053831131
582+1053238793+1052762257+1051257301+1047746006+1041999512+1034306221
574+1024409345+1010466034+989985373+963513221+937234295+918695477+909174270
564+903253840+895756320+885432203+870760860+846712108+810592298+769442909
554+735790035+714998136+701195206+687155650+674880180+673723166+690090079
544+721668633+760645046+799650727+833786701+859875080+876453504+883821090
534+883090714+876079375+866271979+857452885+849580164+837723765+817827874
524+793123961+771405781+757905517+753095084+753604907+754940413+756446239
514+762843072+779050448+804590157+834045430+862039685+886179792+906250691
504+922488206+934292699+940904525+944106592+947781242+953849288+960802894
494+966288180+969847498+972832025+976752747+981879509+986623971+988495152
484+986654445+983277504+980849013+978025898+969196824+949122374+918452420
475+883287356+850408459+824353435+807237928+800900973+807837566+827581086
465+854410155+881159656+903626362+921716640+937839358+953064863+965041284
455+971855110+974634422+974716401+971602811+964406282+953860607+941711924
445+928224519+911361714+889406706+863537541+836712089+812066579+793628158
435+785741239+789694176+802491859+819795368+839019554+859216838+879241457
425+897397104+912189406+922594900+928774796+934479898+945345116+959485204
415+970259937+974808762+974428538+972078007+969172913+965599731+962800192
405+963504983+968030968+973453967+976453564+975706913+973705931+975638798
395+981687957+987353074+991075880+994415784+996589028+993510600+984255557
385+975655006+975674161+982267502+986741916+983779155+972011567+951954464
375+930072326+918444584
##END=
