##TITLE=SG-V3484 6-13
##JCAMP-DX=5.0
##DATA TYPE=LINK
##BLOCKS=1


$$ === CHEMSPECTRA SPECTRUM ORIG ===
##TITLE=SG-V3484 6-13
##JCAMP-DX=5.00
##DATA TYPE=INFRARED SPECTRUM
##DATA CLASS=XYDATA
##$CSCATEGORY=SPECTRUM
##ORIGIN=Angelika Moesle
##OWNER=
##XUNITS=1/CM
##YUNITS=TRANSMITTANCE
##XFACTOR=1.0
##YFACTOR=8.7914742e-10
##FIRSTX=3997.453
##LASTX=373.96442
##MAXX=3997.453
##MAXY=0.9439773534365467
##MINX=373.96442
##MINY=0.19232529364593415
##NPOINTS=2559
##XYDATA= (X++(Y..Y))
2559I91242963I90949193I90007476I88995994I88499439I88629815I89034842I89325290
2551I89369087I89214575I89011587I89055520I89565160I90321924I90823698I90856038
2543I90673051I90601388I90680237I90754138I90756714I90733391I90621795I90244227
2535I89626449I89145421I89210575I89871811I90769053I91397339I91544665I91526224
2527I91752128I92125492I92153968I91592937I90711086I90002391I89854048I90238532
2519I90586133I90398265I89892490I89699875I90105986I90762544I91130960I91128519
2511I91139231I91394017I91753619I92020202I92168341I92282106I92362040I92256885
2503I91841960I91304252I91043161I91195436I91571106I91918233I92010439I91713008
2495I91197538I90975160I91440866I92306446I92971343I93366065I93726819I94004453
2487I94050420I93995639I94147846I94547652I94772742I94505753I93936519I93501390
2479I93394269I93382404I93258401I93049582I92835476I92714727I92801034I93011887
2471I93164568I93460304I94243713I95056069I95057020I94287917I93527289I93421185
2463I93921264I94498092I94633756I94113540I93278062I93124432I94261611I95180411
2455I94716672I93581324I92544011I91889351I91779721I92408618I93629393I94837625
2447I95526930I95685646I95548422I95289229I95072750I94971391I94815116I94508600
2439I94334901I94555313I94930034I95067529I94942509I94708334I94341003I93944384
2431I93898349I94319171I94801489I95052002I95180210I95456894I96071621I96757197
2423I96846284I96090130I94922576I94104048I93968723I94320325I95000883I95673442
2415I95731274I95042105I94241272I94020519I94360868I94754572I94953492I95104954
2407I95381028I95831208I96369798I96760722I96833199I96572989I96019145I95375198
2399I95028816I95093631I95207126I95197024I95274517I95438521I95475403I95424894
2391I95448284I95421976I95215465I95117223I95549778I96710280I98385371I99782083
2383A000199652I99692386I98798805I98275809I98301980I98269301I97904884
2376I97390771I96833266I96141521I95539676I95599406I96419426I97611929I98841993
2368I99839983A000219992I99788998I98876909I98018583I97551250I97480468
2361I97515995I97395382I97216869I97266904I97473485I97493486I97471316I97686033
2353I97941632I97890851I97391720I96518276I95608152I95159599I95403741I96135216
2345I96974558I97647049I98046177I98296691I98682395I99177594I99506076I99624181
2337I99633266I99529941I99206137I98638937I98049228I97831189I98033363I98188350
2329I98234520I98569240I99222137I99748658I99958968I99895238I99604790I99321665
2321I99395226I99945205A000802243A001553041A001687552A001150116A000469286
2314A000388945A001319543A002609880A003191860A002811715A001905455A001062859
2307A000621222A000535864A000616747A000702444A000628205A000359792A000193211
2300A000596475A001573719A002048917A001265440I99978088I99063354I98750533
2293I98886400I99331970I99945409A000492608A000960145A001546871A002296719
2286A003054772A003660210A003843129A003261285A002033730A000878719A000602509
2279A001308221A002001187A001720502A000935195A000876685A001719689A002415231
2272A002304787A001762402A001564295A002023289A002464317A002189734A001513038
2265A001296424A001868980A002690763A003213691A003513088A003802111A003921097
2258A003621565A003000872A002448113A002225803A002163428A001992916A001675010
2251A001288085A001008350A001053029A001329035A001377375A000958247A000494303
2244A000575458A001179201A001852777A002346280A002652118A002776934A002861275
2237A003226098A003990794A004873663A005431981A005268520A004187341A002547098
2230A001229304A000871194A001299407A001931287A002391434A002517742A002286685
2223A001931423A001738672A001775148A002018679A002494284A003136062A003740076
2216A004100288A004071542A003632684A002984736A002437672A002195903A002277668
2209A002532318A002787036A003070772A003553563A004212833A004736914A004858340
2202A004597181A004110254A003536139A003038229A002791511A002818020A002934633
2195A002951718A002927650A003125756A003637701A004156764A004270530A003926318
2188A003408611A002928667A002541200A002416519A002805816A003653633A004514603
2181A004975835A005044040A005047226A005243638A005622562A006048470A006437293
2174A006713707A006723741A006319053A005532051A004671624A004135611A003968963
2167A003717499A002903785A001578126A000250297I99404786I99198340I99347700
2160I99138610I97828477I95297230I92180680I89262576I86856959I84837657I83144599
2152I82100642I82198407I83622916I86036804I88789480I91325202I93435761I95167532
2144I96596922I97745424I98567003I98905452I98640157I97996752I97568877I97844884
2136I98732431I99711979A000401691A000715326A000595865A000125142I99792659
2129A000074836A000828752A001501039A001744435A001595821A001358460A001454462
2122A002073731A002899514A003373152A003217013A002647575A002144986A002032917
2115A002304177A002839648A003570106A004355820A004975224A005274757A005189670
2108A004829051A004641250A005066140A005876263A006316477A006018300A005361335
2101A004888849A004746744A004804441A005036378A005540051A006228407A006766657
2094A006921441A006832286A006809845A006980222A007206939A007247686A006910593
2087A006204813A005443575A005068718A005257672A005757277A006138778A006178779
2080A006023250A006001486A006235255A006483803A006473362A006277357A006214915
2073A006457226A006862049A007156972A007183413A006965713A006612620A006230712
2066A005897823A005600595A005247028A004873391A004739693A005028514A005501610
2059A005647579A005230688A004610605A004370396A004597046A004760711A004431686
2052A003778382A003158842A002637268A002167089A001813860A001558532A001298662
2045A001171201A001411478A001861794A002109190A002093121A002083901A002149258
2038A002154682A002152309A002287702A002445469A002425129A002336653A002437604
2031A002724526A003015177A003286642A003664752A004185307A004752372A005227705
2024A005498830A005596188A005752599A006173762A006772284A007297382A007679764
2017A008055773A008464664A008750230A008852267A008968405A009231055A009398788
2010A009129155A008520869A008143639A008439782A009216411A009834663A009846053
2003A009319668A008635380A008187708A008206149A008563921A008829012A008738298
1996A008488868A008392188A008478969A008600532A008655177A008617278A008583786
1989A008811927A009434857A010150060A010457932A010209791A009671879A009119324
1982A008673211A008451240A008540327A008856877A009250785A009638387A009933377
1975A010101178A010316573A010749193A011185543A011169949A010523561A009564012
1968A008871928A008869623A009491197A010247486A010682277A010706616A010538748
1961A010514815A010877196A011525890A012102650A012465235A012795819A013103284
1954A013070130A012634662A012255535A012309366A012662799A013093589A013658687
1947A014286973A014439248A013617127A011958850A009974056A007938413A005938909
1940A004231681A003071992A002407095A002152241A002525606A003681702A005249672
1933A006620281A007518540A008019230A008216183A008214556A008312186A008774434
1926A009339939A009254920A007859497A004851832A000183245I94314155I88408658
1919I83512269I79667295I76507423I74508324I74850841I78029358I83156125I88702427
1911I93604579I97602302A000798446A003283252A005140042A006403191A006950323
1904A006702249A005775718A004189172A001758671I98609106I95493166I93358403
1897I92745846I93515695I94928068I96164437I96983711I97734169I98669378I99451566
1889I99466346I98548630I97181275I95891617I94721756I93465525I92097831I90691492
1881I89208473I87689928I86401016I85465265I84519005I83038766I80990513I78913786
1873I77397614I76676715I76733598I77570499I79218810I81549578I84199879I86757703
1865I89034232I91112722I93119076I95027526I96753468I98351336I99952528A001500090
1857A002736933A003540071A004098797A004703218A005497745A006426513A007292771
1850A007955296A008534496A009233632A009969514A010470678A010687904A010746753
1843A010519561A009619539A007869667A005442964A002332856I97904884I91250624
1836I81859483I69779465I55569226I40622562I27262445I17871508I13752494I14796383
1828I19905319I27559808I36298119I45010735I52950858I59657798I65007418I69235383
1820I72739197I75811135I78578252I81116415I83485895I85668727I87592367I89203863
1812I90459893I91302422I91720669I91794027I91639447I91345135I90970753I90587015
1804I90297042I90206192I90374806I90785392I91312931I91749617I91950573I91953217
1796I91904538I91910030I92012337I92250512I92654929I93176772I93670275I94002622
1788I94193339I94412598I94817489I95424283I96148572I96941676I97840748I98868366
1780I99914154A000775056A001342459A001727418A002159292A002767578A003534105
1773A004442534A005531645A006763267A007953601A008887928A009462247A009760560
1766A010024023A010457119A011036928A011570094A011899458A012033699A012101497
1759A012113972A011759116A010626140A008677345A006295053A003900283A001718129
1752I99773744I97937564I96176573I94857829I94572399I95614796I97775526A000515728
1744A003177961A005258146A006733978A008022484A009472959A010998623A012276620
1737A013173794A013854692A014582302A015497985A016512247A017342979A017753836
1730A017795329A017767870A017962720A018428293A018930678A019189396A019200447
1723A019211973A019393469A019719239A020138232A020645634A021236903A021916309
1716A022618970A023103998A023167457A022985622A022965622A023240340A023541026
1709A023612485A023568348A023731606A024207076A024765326A025146081A025301203
1702A025329136A025364324A025565210A025964541A026291464A026218175A025825962
1695A025546497A025612533A025864268A026109697A026333228A026508826A026535877
1688A026435197A026359534A026362720A026358517A026325701A026350788A026419264
1681A026366856A026135190A025906845A025872607A026023255A026256820A026527809
1674A026817240A027093246A027313726A027423220A027417729A027394406A027407898
1667A027366067A027243284A027217521A027404373A027659769A027814009A027877672
1660A027911164A027924860A028006828A028311649A028837627A029394454A029849041
1653A030215016A030484718A030584584A030552923A030559228A030682349A030842014
1646A030981136A031141411A031344806A031560201A031784815A031979398A031948753
1639A031488197A030696113A029999282A029787684A030061657A030461395A030643637
1632A030616992A030677265A031020663A031506912A031864480A032045433A032227607
1625A032508970A032818401A033178342A033767779A034570375A035218458A035389717
1618A035156965A034756481A034242367A033583233A032923352A032488020A032336559
1611A032403543A032662465A033030135A033254004A033173053A033013592A033178681
1604A033774627A034496339A034945231A034984758A034822720A034774312A034952215
1597A035219407A035405175A035450328A035361106A035186593A035089845A035279612
1590A035774404A036380927A036973483A037577769A038128223A038513995A038923632
1583A039660802A040499195A040741574A040103592A039102619A038405925A038123409
1576A037896624A037486852A037080198A037011111A037314235A037693704A037890522
1569A037911743A037877641A037854725A037937507A038283006A038841596A039187909
1562A038912106A038165580A037576209A037645432A038347686A039198825A039622632
1555A039462763A039196723A039410288A040103118A040771812A041055073A041017513
1548A040977918A041271959A041981943A042805556A043380146A043655881A043746731
1541A043634389A043280143A042821624A042464802A042328866A042463242A042839658
1534A043295533A043593574A043530861A042982645A041981807A040884221A040283529
1527A040516619A041310130A042107437A042670298A043157835A043697306A044120570
1520A044171893A043898463A043745510A044167554A045160595A046303131A047240442
1513A047985002A048716409A049405510A049790130A049757248A049554056A049430731
1506A049287405A048939330A048542778A048471995A048880616A049573379A050217259
1499A050573877A050611980A050519639A050551029A050719033A050689338A050197733
1492A049475004A048929906A048528133A047922017A047073929A046311538A045889765
1485A045799322A045771525A045304870A044068772A042385003A040878119A039681006
1478A038466672A037178844A036196719A035782879A035800981A036018884A036410622
1471A037113351A038169580A039310353A040087863A040387938A040690454A041554338
1464A042893897A043994737A044214267A043544353A042542837A041842346A041742344
1457A042179371A042880201A043459063A043613033A043427537A043331738A043641915
1450A044285252A044944522A045326633A045378363A045365414A045586707A045977428
1443A046182382A045963258A045352667A044548919A043886870A043685983A043884903
1436A044051958A043934193A043703136A043562930A043521234A043614321A043913379
1429A044267489A044418204A044352576A044278269A044341864A044537055A044775433
1422A044997337A045226427A045405008A045285276A044777264A044258065A044129113
1415A044207352A043988092A043356823A042591855A041916653A041600984A042226626
1408A044188843A046997181A049650669A051715803A053542423A055386602A056862367
1401A057518586A057527807A057404821A057364752A057391600A057635335A058322741
1394A059440599A060648628A061557734A062232394A063082652A064081184A064641605
1387A064467770A064021454A063806737A063688768A063345913A062862172A062325888
1380A061412985A060012680A058840720A058898213A060335129A062161545A063251266
1373A063265572A062486095A061312101A060198922A059669418A059943526A060648967
1366A061087350A060748630A059595314A058005310A056428323A054980898A053432251
1359A051616208A049713043A048086903A047011418A046606799A046911688A047900525
1352A049371476A050903377A052175882A053325808A054680891A056188249A057520824
1345A058592510A059473820A060036138A060153429A059944676A059535245A059034284
1338A058820923A059188118A059758844A060051325A060340552A061023755A061601600
1331A061410748A060888023A060969517A061659567A062209207A062285006A062114696
1324A061818690A061185657A060027121A058537729A057127052A055819224A054197897
1317A052088558A049686060A046919959A043442723A039209401A034327115A028733896
1310A022872603A018124421A015685990A015446730A016539976A018448429A020986388
1303A023676419A025876198A027379830A028335175A028642301A027925266A026030780
1296A023127456A019335298A014489554A008256523A000750106I93385048I88526559
1289I87557315I89655535I92860764I95643611I97245615I97687389I97946852
1282I99220849A001743825A004799830A007537049A009261903A009448145A007992449
1275A005051633A000529016I94298494I86840756I78785172I69526577I56955700
1268I38947742I14708042H84584947H49541596H11248476G71893905G33802957
1261F99495897F70712563F46613340F24281551F01092384E76541558E52579492
1254E31748958E14562444D99629984D86424040D76305662D70595627D69410785
1247D72890733D81996951D97103280E16313707E35931058E52468438E63892814
1240E69766616E71331060E71344620E72840384E77420833E84703584E93266094
1233F01862843F09864798F17167888F24147785F31567624F40228916F50576419
1226F62532773F75736886F90027331G05397734G21223266G36083283G48880404
1219G59770631G69707276G79533272G89617584G99775591H09403754H17994807
1212H25615871H32820722H40057845H47183101H53757699H59913304H66434817
1205H73692008H81125067H88188220H94993468I01583456I07538108I12882439
1198I18483929I24961780I31790621I37881140I42731155I46742167I50471815
1191I53931627I56956378I59812989I62649124I64699411I65146201I64620968
1184I64771073I66174090I67526326I67621176I67225438I67941523I70154864
1177I73190937I76690207I80503112I83778309I85437942I85430756I84936778
1170I85455366I87738269I91293540I94852338I97335651I98524900I99302749
1163A001042859A004117102A007297856A009177088A009632082A009367872A008748061
1156A007714680A006693638A007141310A010480238A016161255A021508435A024129989
1149A024275077A024378198A026262447A029351673A031764070A032375136A031487589
1142A030105590A029050310A028802643A029710869A031692611A033775847A034712616
1135A034386981A034120195A035183746A037481021A040193018A042910914A045302632
1128A046683886A046893382A046974198A048033410A049727010A050714423A050243903
1121A048684680A046798396A044880792A042793420A040575536A038552979A036863650
1114A035201373A033017253A029928365A026234107A023006843A021365516A021706270
1107A023837507A027551630A032398119A037190910A040624961A042482565A043635406
1100A044902962A046334589A047493058A048084191A048167515A047903102A047415700
1093A046967215A046847144A046942740A046934875A047133185A048312060A050661335
1086A053488727A055855767A057204138A057464280A056975523A056421272A056541071
1079A057451127A058309860A058243214A057504484A057088744A057434856A058268027
1072A059360393A060643950A061926624A063025634A063930740A064720318A065460743
1065A066130996A066720434A067369670A068160874A068928758A069539417A070052989
1058A070429269A070351437A069523078A068184808A067062409A066693451A067087697
1051A067916938A068832282A069629114A070294757A070899043A071316680A071287866
1044A070843109A070353335A070198484A070610900A071597297A072754138A073497953
1037A073738908A073741823A073541479A072940041A071991679A071197965A070785684
1030A070029870A067866699A064382887A060820903A058098329A056442696A055600100
1023A055066324A054671467A054758791A055776104A057743066A060031528A061799028
1016A062679931A062888953A062764136A062546165A062435382A062509011A062738440
1009A063051939A063209909A062949835A062305210A061397595A060244345A058999435
1002A058004496A057447533A057286716A057465500A057979275A058881060A060099530
995A061281253A062110900A062610709A062960954A063317437A063787889A064333394
988A064825813A065185211A065239178A064902492A064490482A064297732A064216171
981A063964300A063157773A061324237A058354471A054724079A051084195A047707368
974A044392238A040674454A036412385A031941905A026964091A020561225A012265501
967A001604093I87386464I69809839I51301734I30918262H99792566H47305070
960G78561116G06696951F34807566E67252420E11033376D65097868D22725191
953C81254636C42530928C08073559B80625375B68257757B75509490B94618219
946C17377070C41363137C66168885C91724345D19134054D47966237D74315479
939D97579901E23248585E53428529E81039361F03925062F26177325F46483778
932F62409245F76361037F91012168G05725131G19053248G31876199G44540910
925G52462523G53164100G50668650G49982123G55054247G67567699G84099825
918G98600172H09675760H19692475H29211280H36704883H42587804H48746867
911H56231250H64445684H72059223H78443783H83646416H88129778H93156678
904H99985520I06279298I10011387I13052613I17538551I23488660I28825737
897I33000752I36841997I40673885I44541165I48911981I54268381I59588780
890I63321681I65800793I68104916I70739556I73397247I75534044I76994689
883I77681960I77344324I75930867I73232293I68210546I59460370I46609621
876I29555381I07707400H82631747H60383146H48832767H51664428H66604109
869H88387343I11514678I31896861I48091284I60927863I71781886I81361844
862I89559329I95999212A000742580A004350667A007352502A009956293A012124955
855A013570481A013818216A012491676A009174173A002390078I89137014I68659302
848I44502045I16750532H81231239H39679734H05497287G88188872G84594684
841G88206567G94619196H03235470H17455743H37224489H54246454H68440356
834H83665738I00032572I16198044I31326000I44500757I55317694I64609646
827I73112019I80733423I87971562I95418249A001226795A004293920A005651715
820A006353359A006934526A007486539A008031161A008771044A009914190A011527110
813A013611566A016113119A018575415A020049143A019833140A017841702A014544539
806A010687429A006721097A002835105I99013115I94566771I88351029I81149500
799I74920266I68902630I61084138I49121546I29435243H97974420H56547054
792H13686568G73460925G34111914F98708353F81221018F90995558G19946760
785G56408515G94505973H30869692H61330220H82992366H96502995I04493357
778I09738974I14678957I20437129I26283032I31383154I35426031I37633474
771I36599754I31934150I24972492I16711819I06362961H92191299H75550832
764H59967882H44791450H28441973H12176024G99364665G92315140G89450529
757G86123941G77822318G62231232G38634124G02780857F44648615E66668914
750E02095264D78653040D95788774E44361973F09846628F72822715G23264399
743G62669887G93879313H17776631H36593897H53497828H68476967H79562318
736H87382912H93480753H98134153I00747707I00154066H94116633H78195912
729H46256773G96224454G33465797F66065129F05224956E67121061E62122127
722E86231621F25974337F67296074G03748067G36164302G66590591G94814794
715H19384671H40257307H58602154H75083770H89481268I01516133I11529458
708I20385670I28894077I37276380I45472848I53633925I61642660I68856121
701I74990505I80470840I85486554I89474920I91928674I92945851I92836018
694I91837621I90200090I88287366I86430644I84677110I82751030I80105475
687I75927341I69218163I58533975I41155660I13492081H74889596H31360823
680G92641318G65609483G50456238G41603619G33615902G26492545G23282027
673G23436064G21322997G11219093F91731101F65435419F36201430F06919643
666E78088307E48198200E15931494D81784743D47395443D14187121C83558115
659C57832481C40124904C33125482C37860918C52832599C73565740C93142752
652D04783642D06041299D01044976C97786491D02722914D17627848D40375987
645D67409720D95573311E22818134E48106367E70951254E90983532F07701356
638F20466205F28711013F32128722F30718790F24831259F15565613F05929721
631F01656872F08399068F24707730F37807705F30049892E92598553E32636030
624D66724483D08861061C64513015C32286920C08594589B90931589B78412390
617B70765207B67481009B67778525B70953889B76524429B84135476B93445412
610C04024547C15339293C26962351C38814669C51111507C64094157C77871504
603C92425074D07643846D23356155D39369725D55458281D71315780D86617876
596E01191649E15055981E28197551E40333232E50983521E59794377E66705695
589E71763748E74764295E75032776E71652763E64172617E53032587E38913232
582E21757668E01257820D78865757D58873447D46626442D45257256D54110079
575D69947306D89215768E09460186E29476599E48796689E67205537E84644532
568F01281202F17378673F33076473F48350535F63057328F76945593F89736273
561G01185768G10974274G18558727G23105141G23438302G18024138G05091285
554F83474360F54979100F26727575F09292920F09806763F26324379F49565682
547F69540602F79908919F77815987F62464092F35109200F00194464E66083104
540E43702499E42236464E64025427F03135077F49281133F93474058G30760986
533G59296111G78066594G85438026G79073941G56636454G16671292F59786470
526E89952863E14551630D42231523C79978538C31675820B98526347B79977055
519B74309529B79063592B91497026C09028328C29502480C51258120C73224681
512C95033340D16792302D38656217D60707796D83109419E06074817E29643281
505E53461750E76455725E96078366F07227784F02176410E73873969E22544093
498D60024594D05423589C73832357C68143915C80835677D01791875D23934948
491D43884308D60414230D73335354D83089418D90585123D97084194E04008496
484E12470326E22672605E33858771E45063616E55816213E66057747E75773540
477E84962031E93699800F02001084F09737541F16810049F23358206F29706494
470F36064003F42347408F48364433F54053180F59470327F64685910F69760065
463F74737473F79621997F84362314F88872049F93135134F97265199G01372349
456G05454277G09476950G13380569G16993401G20204801G23226297G26465493
449G30193311G34451990G39156916G44166121G49338042G54576811G59791242
442G64813735G69359471G73060712G75561247G76626289G76278552G75047675
435G74077754G74562308G76745953G79635853G81825397G82219508G79541003
428G71193549G52970807G21042787F76457785F28470058E90725356E71519539
421E69086599E77953592E96578920F25146995F58374029F84733373F92258164
414F73482527F27732210E63207747D97006057D49074772D32012668D44798839
407D75999858E12751655E47134785E76510371F00964788F21423719F38938783
400F54407629F68348641F80789753F91582555G00938847G09388677G17236526
393G24413376G30812377G36508581G41697858G46473024G50682684G54084732
386G56416650G56763169G51769015G33338743F90676092F21913833E46715148
379D99503236E02123773E45454575F01437748F48033374F78429765F93324698
372F94159294F84551742F72489826F66999931F72239243F85609937G01534997
365G16122600G28340114G38589377G47444708G55239946G62080585G68086220
358G73509333G78529725G83112072G87174814G90762764G94019926G97145697
351H00381978H03851146H07344925H10444592H12948517H15071415H17127464
344H19135377H20483746H18791775H08969438G86956842G57923604G37665489
337G39798287G62139230G90139088H11938526H25515055H33950309H40010115
330H45188612H50026626H54394121H58231976H61782502H65092276H67722102
323H68867485H67666643H62934936H51279538H25463732G77745706G08999583
316F35650162E83907023E72411967E99274035F46308994F94197058G32813035
309G60816893G80350718G93356860H00485845H00176278G88357012G63040608
302G31883725G11531440G14892131G39862831G73006677H02210971H21887240
295H27591987H13991932G84136843G55663888G48577684G66691339G96707246
288H23995222H43374127H56509019H65923686H73068738H78765214H83581533
281H87943061H92050685H95705214H98200799H98430364H95310967H87824889
274H73816214H48520217H05054971G37462909F44397016E31483257D12231244
267C07191165B38486398B18763417B42533818B90295912C43022024C92611689
260D39755531D85777550E29032249E67215470E99797641F27613020F51574476
253F72284600F90208284G05811844G19472037G31203844G40691258G47618068
246G51462567G50612784G41768233G20520944F84045899F36074850E89811164
239E62447084E63742539E89757943F27708684F65771561F98142170G23778920
232G43459324G57902112G66441299G65451988G48545955G12499667F66299236
225F31148427F25686127F50388346F89192192G25245803G51855865G70608382
218G84920047G96729823H06460225H14155664H20387407H25993643H31202514
211H35670011H39093279H40118185H33791864H14828630G82723792G42848734
204G08869139F95661568G04868297G25631371G47355079G65981085G81449592
197G94120879H04137119H11773166H17336690H21286751H24412114H27469611
190H30742503H34039734H37012823H39540951H41846837H44139909H46335012
183H48375943H50546978H53066021H55593133H57519959H58651850H59420275
176H60512912H62251462H64152321H65401639H66052841H67117748H69136169
169H71489717H73311524H74300700H74645319H74875155H75721819H77497116
162H79650117H81315173H82291197H83226541H84749222H86662827H88261510
155H89290551H90190302H91329244H92480390H93334716H94254399H96080206
148H99049904I02259066I04526578I05647893I06403436I07344679I08064222
141I07958931I07038435I05250798I01313348H92480458H74877324H44902910
134H03446255G59761817G28172720G18524150G30119072G54550302G82651383
127H08689770H30317815H46931637H58935382H67725017H74798543H80493527
120H84341077H86456178H87587392H87707869H84841089H74810272H52689402
113H17557915G77913100G49545369G44361177G60917438G85335041H02241277
106H04982563G94155456G72099130G42994568G14972811F97288454F94729139
99G06180668G26935674G51390091G75227205G96189403H13528666H27201537
92H37048959H42839335H45651945H47993222H51672496H56552139H61663855
85H66799164H72367501H78174691H83304442H87155314H90080943H93100473
78H97038466I01723392I05981392I08627286I09687176I10489365I12349545
71I15552673I19584363I23718496I27224681I29693690I31447156I32990176
64I34138473I34189459I31730959I23036378I03194817H72607710H38898156
57H11562178G98729667H02647320H16392125H29449048H34894941H31850460
50H25034705H22659394H30948677H49176030H71405241H91294328I05814473
43I16113703I24554245I31561801I35536135I35214500I31318271I25469046
36I17885203I05678809H81671182H36531048G72513852G05741199F43797205
29E88376350E47937482E33181603E45262808E74757719F09378549F40605332
22F66144521F87630663G06747190G23440404G36327764G45237062G52623612
15G60268677G67984455G75598129G83556015G91736618G99117541H05221958
8H10751447H15593258H17843821H16018082H10993351H07037527H10664055
1H21316514
$$ === CHEMSPECTRA INTEGRALS AND MULTIPLETS ===
##$OBSERVEDINTEGRALS= (X Y Z)

##$OBSERVEDMULTIPLETS=
##$OBSERVEDMULTIPLETSPEAKS=
$$ === CHEMSPECTRA SIMULATION ===
##$CSSIMULATIONPEAKS=
##END=


$$ === CHEMSPECTRA PEAK TABLE EDIT ===
##TITLE=SG-V3484 6-13
##JCAMP-DX=5.00
##DATA TYPE=INFRAREDPEAKTABLE
##DATA CLASS=PEAKTABLE
##$CSCATEGORY=EDIT_PEAK
##$CSTHRESHOLD=0.93
##MAXX=3997.453
##MAXY=0.9439773534365467
##MINX=373.96442
##MINY=0.19232529364593415
##$CSSOLVENTNAME=- - -
##$CSSOLVENTVALUE=0
##$CSSOLVENTX=0
##NPOINTS=39
##PEAKTABLE= (XY..XY)
376.7974837842062, 0.7095049597052303
410.79424919468283, 0.46874523066891427
441.95795082095356, 0.7232388837738635
451.8736740656759, 0.7022011260205091
514.2010773182169, 0.6107693301506714
528.3663962392493, 0.6544032083077134
558.1135659734164, 0.631688652680193
660.1038622048472, 0.6115890727003546
689.8510319390148, 0.5500703442818423
711.0990103205627, 0.49447390278512326
747.9288395152462, 0.19232529364593415
784.7586687099292, 0.6581101395581753
798.9239876309616, 0.6255410297248848
817.3389022283031, 0.5032345039651751
851.3356676387803, 0.6485167132356832
895.2481562939793, 0.586391268478828
909.4134752150117, 0.4391369812110511
951.9094319781075, 0.3798028224795166
968.9078146833463, 0.5003110152674246
988.739261172791, 0.6805284603084947
1073.7311746989835, 0.3236527730609493
1107.7279401094602, 0.2411585147017652
1136.0585779515245, 0.47670578835552285
1153.0569606567628, 0.5356582986422664
1189.8867898514463, 0.39144676784867954
1245.1315336434714, 0.23515523896134677
1266.3795120250193, 0.5289450867440703
1291.8770860828772, 0.3497129672735032
1303.2093412197028, 0.29286640803655645
1327.290383385457, 0.6358715279694204
1396.700446098514, 0.49418821767696236
1433.5302752931975, 0.4208065851911568
1488.7750190852225, 0.5988937004244735
1565.267741258796, 0.6897743921843152
1607.7636980218917, 0.7462491371195111
1678.5902926270523, 0.6593448502398674
1716.8366537138386, 0.23583811496153695
2140.379689452697, 0.4126812805529247
2964.801250656763, 0.8033231476186655
##END=


$$ === CHEMSPECTRA PEAK TABLE AUTO ===
##TITLE=SG-V3484 6-13
##JCAMP-DX=5.00
##DATA TYPE=INFRAREDPEAKTABLE
##DATA CLASS=PEAKTABLE
##$CSCATEGORY=AUTO_PEAK
##$CSTHRESHOLD=0.93
##MAXX=3997.453
##MAXY=0.9439773534365467
##MINX=373.96442
##MINY=0.19232529364593415
##NPOINTS=81
##PEAKTABLE= (XY..XY)
3743.893791313526, 0.8776316019307627
3675.900260492572, 0.8772407154048824
3401.0930734245503, 0.8770101044868474
3718.3962172556685, 0.8769323799425925
3708.480494010946, 0.8769243339854047
3714.146621579359, 0.8767006375618279
3733.9780680688036, 0.8752261376630359
3760.8921740187648, 0.8751252273638734
3766.5583015871775, 0.8749248960412781
3698.564770766224, 0.8748919939490846
3755.226046450352, 0.8748547409563094
3770.807897263487, 0.8747770164120547
2848.6456355043, 0.8743757585840606
3827.4691729476153, 0.8741669628301054
3789.2228118608286, 0.8738905764642058
3894.046171876466, 0.8738687015181014
3799.138535105551, 0.8738450383861447
3816.13691781079, 0.8737831692656096
3862.8824702501956, 0.8733636717660926
3854.383278897576, 0.8731027821317654
3059.708887427678, 0.8727699492266173
3877.0477891712276, 0.8727425910380543
2916.6391663252543, 0.8720303154689919
3844.4675556528537, 0.8719205829254698
3953.5405113448005, 0.871697721691942
3930.8760010711494, 0.871348080367271
3915.2941502580143, 0.8712730381017946
3905.3784270132915, 0.8712132551980872
3973.3719578342457, 0.870884654508619
2926.5548895699767, 0.8705372189648246
3943.624788100078, 0.8702276324757562
3936.542128639562, 0.8700920916805724
3962.0397026974197, 0.8696046448769638
3983.287681078968, 0.8694869850611555
3991.786872431587, 0.8690367314682974
2198.4574970289286, 0.8682084655843773
2031.3067337607504, 0.8659046272418127
3420.924519913995, 0.8634112455946437
3024.2955901250975, 0.8586428141663253
3086.6229933776385, 0.8567364788131241
2044.0555207896793, 0.85033374837607
2051.1381802501955, 0.8480440352951025
2964.801250656763, 0.8033231476186655
1607.7636980218917, 0.7462491371195111
441.95795082095356, 0.7232388837738635
376.7974837842062, 0.7095049597052303
451.8736740656759, 0.7022011260205091
1565.267741258796, 0.6897743921843152
988.739261172791, 0.6805284603084947
1678.5902926270523, 0.6593448502398674
784.7586687099292, 0.6581101395581753
528.3663962392493, 0.6544032083077134
851.3356676387803, 0.6485167132356832
1327.290383385457, 0.6358715279694204
558.1135659734164, 0.631688652680193
798.9239876309616, 0.6255410297248848
660.1038622048472, 0.6115890727003546
514.2010773182169, 0.6107693301506714
1488.7750190852225, 0.5988937004244735
895.2481562939793, 0.586391268478828
689.8510319390148, 0.5500703442818423
1153.0569606567628, 0.5356582986422664
1266.3795120250193, 0.5289450867440703
817.3389022283031, 0.5032345039651751
968.9078146833463, 0.5003110152674246
711.0990103205627, 0.49447390278512326
1396.700446098514, 0.49418821767696236
1136.0585779515245, 0.47670578835552285
410.79424919468283, 0.46874523066891427
909.4134752150117, 0.4391369812110511
1433.5302752931975, 0.4208065851911568
2140.379689452697, 0.4126812805529247
1189.8867898514463, 0.39144676784867954
951.9094319781075, 0.3798028224795166
1291.8770860828772, 0.3497129672735032
1073.7311746989835, 0.3236527730609493
1303.2093412197028, 0.29286640803655645
1107.7279401094602, 0.2411585147017652
1716.8366537138386, 0.23583811496153695
1245.1315336434714, 0.23515523896134677
747.9288395152462, 0.19232529364593415
##END=

##END=

