##TITLE=ARW-R40
##JCAMP-DX=4.24
##DATA TYPE=INFRARED SPECTRUM
##DATE=1/12/2021
##SAMPLING PROCEDURE=Diamant-ATR
##ORIGIN=Angelika Moesle
##XUNITS=1/CM
##YUNITS=TRANSMITTANCE
##RESOLUTION=4
##FIRSTX=3997.453
##LASTX=373.96442
##DELTAX=-1.4165319
##MAXY=0.94784147
##MINY=0.53898698
##XFACTOR=1
##YFACTOR=8.8274615e-010
##NPOINTS=2559
##FIRSTY=0.88783437
##XYDATA=(X++(Y..Y))
3997+1005764075+1005452530+1004900201+1004339432+1004044767+1004184604
3989+1004680080+1005121943+1005042402+1004451788+1003930047+1003955165
3980+1004287035+1004310938+1003890007+1003504052+1003567657+1003925321
3972+1004090614+1003754625+1003005741+1002198990+1001680422+1001655506
3963+1002223635+1003277178+1004409250+1005260497+1005846452+1006241657
3955+1006267451+1005853002+1005379336+1005327074+1005734298+1006154149
3946+1006183521+1005976094+1006041658+1006525114+1006905532+1006688112
3938+1006012218+1005332543+1004927277+1004862726+1005136392+1005547398
3929+1005674609+1005405669+1005232138+1005630787+1006223629+1006078862
3921+1005012557+1003921404+1003856448+1004932409+1006220658+1006919307
3912+1007097969+1007072986+1006713635+1005802563+1004732949+1004296758
3904+1004749155+1005489869+1006092907+1006880752+1007952053+1008690269
3895+1008605259+1007940709+1007351176+1007033689+1006347869+1005108033
3887+1004431464+1005360160+1006893783+1007247125+1006753000+1006806545
3878+1007259144+1007062588+1006259551+1005518431+1005123023+1005257797
3870+1006231529+1007470690+1007966705+1007907961+1008099926+1008517751
3861+1008466097+1007757860+1006590745+1005034975+1003553950+1003804186
3853+1007022345+1010261435+1010776492+1009615859+1008145908+1006875417
3844+1006072245+1005876634+1005940915+1005958336+1006416539+1007690406
3836+1008864678+1009009783+1008475145+1008084598+1008089190+1008192093
3827+1008138278+1007758063+1006886558+1005917012+1005993650+1007375417
3819+1008302154+1008034902+1007962316+1008866029+1009660558+1009411875
3810+1008263531+1006831866+1006018160+1006325384+1007043749+1007629974
3802+1008630445+1009961300+1010312819+1009619235+1009077980+1009127136
3793+1009205326+1009041248+1008916805+1008970755+1009089526+1009284934
3785+1009638951+1009993576+1010224838+1010609105+1011359340+1011992290
3776+1011870953+1011015249+1009882435+1009026123+1008943746+1009538749
3768+1009973252+1009740234+1009076022+1008229230+1007350906+1006898982
3759+1007294458+1008107421+1008417414+1008049757+1007630312+1008014443
3751+1009508026+1010753129+1010229295+1008671768+1008089663+1009536791
3742+1011267848+1011489117+1010670010+1009823286+1009494792+1009958802
3734+1011314033+1012766563+1012981620+1011706943+1010071294+1009510120
3725+1010410051+1011574532+1011713965+1011042325+1010558396+1010554615
3717+1010483784+1009894319+1009082706+1008897967+1009771969+1010904243
3708+1011422473+1011433277+1011252183+1011094992+1011157787+1011175951
3700+1010514642+1009378182+1008815725+1009334563+1010292698+1010737059
3691+1010549821+1010678112+1011922135+1013423280+1013947655+1013521997
3683+1012815449+1012313491+1012048603+1011826186+1011768590+1012238475
3674+1012723686+1012366631+1011889724+1012636853+1014368451+1015332798
3666+1014980604+1014006129+1013007751+1012319906+1012074464+1012143606
3657+1012318893+1012292424+1011468523+1009572442+1007400670+1006912217
3649+1009729903+1013673921+1015149138+1014207074+1012739216+1011992290
3640+1012093978+1012459879+1012580405+1012460419+1012282161+1011913087
3632+1011242730+1011038341+1012634355+1015455688+1016880331+1016228137
3623+1014539146+1012823686+1011919906+1012189049+1012820040+1012900189
3615+1012879054+1013512274+1014439551+1014706870+1014217270+1013692760
3606+1013555285+1013589114+1013590397+1013688506+1014049410+1014575946
3598+1015102548+1015734418+1016648326+1017511660+1017585934+1016680466
3589+1015558321+1015269530+1015852378+1016156294+1015747990+1015323210
3581+1015364668+1015568922+1015439415+1014949274+1014436716+1014167101
3572+1014098364+1013973246+1013750086+1013946169+1015044075+1016296740
3564+1016537658+1015912405+1015412946+1015617875+1016223141+1016599845
3555+1016541574+1016281817+1016021858+1015702412+1015277295+1014945763
3547+1014916526+1015114297+1015325438+1015487761+1015527936+1015208558
3538+1014481483+1013792760+1013699039+1014202212+1014797822+1015126114
3530+1015266897+1015408220+1015496808+1015424628+1015346707+1015478780
3521+1015748935+1015937118+1015965207+1015869799+1015687355+1015426383
3513+1015039821+1014581415+1014416864+1014841577+1015474796+1015662777
3504+1015387626+1015152582+1015143062+1015138605+1015170003+1015496201
3496+1015966896+1016041980+1015572973+1015098092+1015163048+1015640630
3488+1015930164+1015758928+1015554067+1015884924+1016679251+1017243733
3479+1017131107+1016659670+1016456024+1016784720+1017367434+1017714023
3471+1017601262+1017193160+1016712337+1016216254+1015819563+1015828206
3462+1016381952+1017190324+1017865475+1018262571+1018329012+1017956832
3454+1017222262+1016497820+1016148057+1016301871+1016906529+1017710107
3445+1018246163+1018175062+1017643260+1017154200+1017096131+1017433740
3437+1017852105+1018089850+1018060005+1017795117+1017478169+1017387352
3428+1017573308+1017775536+1017818952+1017835495+1018016926+1018402138
3420+1018860949+1019109970+1018916047+1018397682+1017953523+1017869188
3411+1018087959+1018307000+1018290997+1018141099+1018088904+1018026244
3403+1017625705+1016999710+1016794983+1017465205+1018732320+1019920232
3394+1020607199+1020746496+1020413141+1019789172+1019219017+1018944001
3386+1018878167+1018790456+1018529552+1018089039+1017699033+1017713956
3377+1018184313+1018736911+1019024892+1019049740+1019017060+1019070267
3369+1019162232+1019158383+1019133872+1019368511+1019899030+1020405984
3360+1020687347+1020909494+1021294301+1021842241+1022366143+1022615839
3352+1022478297+1022157365+1021982754+1022048993+1022212733+1022308547
3343+1022184307+1021804496+1021469993+1021562430+1021955678+1022109290
3335+1021811518+1021392005+1021166887+1021058042+1020788225+1020262905
3326+1019709429+1019415776+1019364797+1019308957+1019176681+1019117600
3318+1019168579+1019198086+1019147849+1018969119+1018350079+1017004976
3309+1015338537+1014299646+1014415649+1015458794+1017009838+1018655210
3301+1019776410+1020013749+1019829617+1019884310+1020171953+1020395248
3292+1020685659+1021334342+1022201862+1022834947+1022925629+1022509424
3284+1021929344+1021609696+1021726306+1022110370+1022436771+1022395852
3275+1021805306+1020770197+1019742447+1019265000+1019567160+1020402743
3267+1021305240+1021987008+1022437446+1022689572+1022688492+1022440214
3258+1022093962+1021793558+1021599837+1021604159+1021908750+1022427183
3250+1022892273+1023144400+1023307397+1023614082+1024075728+1024390853
3241+1024298078+1023942035+1023677687+1023626573+1023705168+1023904425
3233+1024201251+1024372622+1024213203+1023781536+1023324075+1023132516
3224+1023406384+1024030624+1024604762+1024829475+1024717658+1024404897
3216+1023962832+1023418471+1022815636+1022260066+1021915367+1021881471
3207+1022085320+1022354327+1022596392+1022865940+1023188356+1023365331
3199+1023136770+1022536771+1021844874+1021199636+1020512668+1019728807
3190+1019016384+1018751024+1019237518+1020206727+1020795720+1020423742
3182+1019435290+1018461963+1017526380+1016315781+1015027194+1014271084
3173+1014198363+1014268046+1013940498+1013249884+1012550898+1011959947
3165+1011257855+1010263596+1009147595+1008336522+1008147664+1008504044
3156+1008991957+1009257385+1009399721+1009847121+1010798504+1011910994
3148+1012657785+1012938676+1013210046+1013924562+1014953730+1015739144
3139+1015955754+1015781278+1015590259+1015608422+1015768854+1015810988
3131+1015673378+1015661157+1015956497+1016227057+1016007341+1015145627
3122+1013715650+1011938137+1010284257+1009201342+1008703369+1008481559
3114+1008235645+1007720251+1006838280+1005909585+1005504184+1005802495
3105+1006349220+1006525654+1006080955+1005194664+1004262390+1003691357
3097+1003714247+1004242403+1004886899+1005153610+1004674070+1003455301
3088+1002014993+1001088255+1001007837+1001446391+1001830726+1001906080
3080+1001900611+1002237882+1003054289+1003936934+1004222349+1003608035
3071+1002352669+1000879140+999479750+998504262+998447004+999505071+1001208242
3061+1002773668+1003769683+1004272315+1004543078+1004806616+1005220727
3053+1005750706+1006106681+1006040037+1005688383+1005447060+1005533083
3044+1005814109+1006015729+1005987505+1005794663+1005606074+1005474137
3036+1005214245+1004525252+1003294869+1001763069+1000276440+998852000+997213177
3026+995329250+993591373+992230268+990872944+989023115+986785172+984794020
3016+983536223+982956481+982646420+982269851+981863167+981782681+982371539
3006+983743245+985869508+988665790+991848769+994873140+997239578+998902573
2996+1000201694+1001310267+1001909118+1001550240+1000171444+997990826+994907441
2986+990271662+983537911+975285865+967430441+962069342+959901891+959727617
2976+959368739+956786703+950287051+938516576+921479938+901641347+883004103
2966+868782113+860473888+858580913+862631144+870489875+879199518+887021180
2956+894032918+900913934+907915138+914899125+921659749+927960347+933500717
2946+938066408+941741757+944846276+947539452+949511563+950155991+949081719
2936+946517847+943268291+940237438+937959859+936566411+935972624+935883832
2927+935808140+935402942+934756623+934142849+933643998+933203485+932873169
2917+932797071+932997139+933253992+933225633+932724013+931842515+930750822
2907+929489649+928078105+926629897+925191816+923647930+921942058+920245504
2897+918798511+917727615+917110127+917081903+917727547+918874473+920116807
2887+921134767+921964340+922859072+923907146+924943134+925836380+926627803
2877+927257782+927381077+926644076+925005254+922626797+919629435+916155909
2867+912568271+909348492+906814735+905081854+904218858+904187325+904618925
2857+904932496+904787729+904268284+903574699+902736888+901708733+900545400
2847+899304416+897876329+896127446+894178698+892335892+890768507+889456490
2837+888390996+887608418+887094711+886853051+886953658+887361153+887843258
2827+888216722+888576681+889143391+889963984+890915165+891953110+893166410
2817+894562222+896009755+897468969+899094558+901029329+903209946+905412441
2808+907411425+909092111+910436741+911417969+911979345+912158346+912097711
2798+911877995+911449434+910756862+909819794+908726143+907698866+907096774
2788+907110143+907434180+907445389+906781109+905599679+904256873+902961196
2778+901831826+901059443+900800227+901001915+901478484+902096444+902828110
2768+903708393+904817911+906246876+907980229+909825264+911527692+913005272
2758+914401489+915835653+917166711+918136662+918692772+919042130+919431258
2748+919962250+920571297+921129703+921593578+922066366+922684460+923449685
2738+924193304+924724768+925012614+925143673+925098299+924729157+924009982
2728+923121867+922240572+921396414+920546044+919667044+918827140+918210396
2718+917979809+918112489+918457998+918881765+919279874+919584803+919845572
2708+920199792+920733147+921447055+922318290+923291077+924263729+925186280
2698+926114165+927081685+928007950+928846706+929738670+930845960+932081070
2689+933171683+933975260+934581741+935127183+935635690+936047640+936321306
2679+936515567+936821373+937416781+938230486+938973969+939499222+939956682
2669+940500030+941058909+941562622+942157422+942993409+943942767+944736823
2659+945321157+945936822+946841142+948024934+949223109+950161055+950770035
2649+951204808+951661661+952163213+952527088+952563145+952292855+952011289
2639+952144577+952931004+954169624+955374282+956236941+956880154+957641935
2629+958677720+959813235+960812085+961691220+962586154+963396889+963885612
2619+964097833+964371229+964942734+965760491+966597559+967188713+967383986
2609+967331792+967431251+967964201+968782093+969449614+969682024+969554341
2599+969373045+969520175+970260282+971389247+972225775+972284991+971837524
2589+971528342+971635499+971968517+972306193+972612810+972845625+972831378
2580+972461561+971874256+971354135+971146776+971382089+972015444+972810716
2570+973516792+974093294+974655751+975179180+975429078+975327323+975253724
2560+975723001+976816517+978162835+979380321+980298889+980852163+981015228
2550+980907193+980859657+981239063+982056752+982870390+983270255+983373225
2540+983630146+984270928+985133790+985936692+986529601+986906306+987101646
2530+987134395+987027170+986862282+986813193+987047832+987560322+988200632
2520+988873014+989543439+990053026+990202925+990058698+989917307+989956740
2510+990140737+990434389+990877063+991457075+992085231+992671523+993141745
2500+993467335+993700488+993896977+994048698+994176585+994396571+994825942
2490+995494409+996254840+996721415+996568546+996002173+995629857+995783605
2480+996217162+996422834+996118445+995575030+995466455+996164428+997274419
2470+998079887+998289475+998179887+998195755+998573202+999260237+1000043558
2461+1000657601+1000879680+1000757871+1000697169+1001059154+1001725932
2452+1002247943+1002329037+1002013710+1001554764+1001295210+1001524311
2444+1002195479+1002857260+1003137476+1003216881+1003512425+1003995138
2435+1004260904+1004192167+1004104659+1004254962+1004575083+1004895542
2427+1005148074+1005307290+1005345507+1005323293+1005386628+1005650841
2418+1006227748+1007267044+1008659007+1009803502+1010117884+1009747594
2410+1009373185+1009348000+1009419843+1009289053+1009035644+1008873456
2401+1008791350+1008615590+1008238413+1007664478+1007019914+1006608233
2393+1006744628+1007407489+1008201006+1008749418+1009052119+1009375008
2384+1009878991+1010500192+1011140704+1011731791+1012081486+1011989859
2376+1011618151+1011417882+1011623621+1012130777+1012811735+1013577433
2367+1014190666+1014314771+1013790329+1012873045+1012153059+1012056638
2359+1012475071+1013048467+1013624968+1014214636+1014680604+1014764061
2350+1014382698+1013720984+1013107143+1012907076+1013282700+1013898566
2342+1014292556+1014583778+1015167032+1015803493+1015864465+1015474189
2333+1015457916+1016076618+1016678103+1016654470+1016005856+1015044682
2325+1014164805+1013721929+1013737729+1013982361+1014464805+1015353460
2316+1016474187+1017391269+1017869458+1017968715+1017891471+1017904502
2308+1018131781+1018356493+1018302341+1018053523+1017917061+1017974792
2299+1018074185+1018167500+1018371011+1018668242+1018797816+1018545555
2291+1017980464+1017293835+1016588502+1015997821+1015853864+1016464599
2282+1017702544+1019007607+1019961758+1020717395+1021613004+1022558648
2274+1023181267+1023372151+1023306992+1023186803+1023209963+1023474311
2265+1023835958+1024182750+1024659522+1025359454+1026069581+1026424543
2257+1026092268+1024987206+1023495243+1022217662+1021509898+1021509156
2248+1022287750+1023568842+1024566274+1024578091+1023747437+1022954191
2240+1022844062+1023208005+1023549328+1023882143+1024451622+1024884572
2231+1024325897+1022702199+1021343187+1021586603+1022953920+1023755270
2223+1023479781+1023306655+1024134540+1025397063+1026072079+1025997602
2214+1025920087+1026431835+1027109485+1027277209+1027402935+1028511711
2206+1030316772+1031510828+1031870990+1032333919+1032984020+1032743845
2197+1031209681+1029346416+1028216303+1028091995+1028570590+1028682879
2189+1027594832+1026025084+1025926705+1027974372+1030479500+1031421969
2180+1030542700+1028883824+1027304893+1026066610+1025180251+1024487679
2172+1023534743+1022200984+1021528805+1022889775+1025920020+1028361812
2163+1028715559+1028200638+1029288617+1032634459+1036196236+1037873614
2155+1037798732+1037320407+1037178882+1037391440+1038001568+1039006293
2146+1039887183+1040131207+1039990761+1039965710+1039956865+1039746332
2138+1039764495+1040354906+1040805547+1040100957+1038209197+1035967742
2129+1034181385+1033239657+1033163830+1033660048+1034304544+1034876319
2121+1035452213+1036031686+1036238775+1035755454+1034923179+1034359507
2112+1034080102+1033588880+1032697119+1031698742+1030920350+1030588615
2104+1030955056+1032114473+1033666868+1034835671+1035208392+1035235671
2095+1035569971+1036074764+1036087999+1035473280+1034817373+1034782059
2087+1035503867+1036348025+1036385500+1035561531+1034931822+1035202720
2078+1035799140+1035971051+1035854846+1035760248+1035467473+1034916495
2070+1034670715+1035134928+1036066932+1037204607+1038620135+1040077122
2061+1040790692+1040349572+1039333031+1038575773+1038253964+1038037489
2053+1037632628+1036816627+1035417980+1033777671+1032944519+1033697253
2044+1035498263+1037011225+1037554100+1037594208+1037932155+1038876111
2036+1040106899+1041116013+1041898861+1042772256+1043285354+1042462331
2027+1040427087+1038505686+1037846808+1038898258+1041259226+1043302100
2019+1043381573+1042004600+1041278133+1042091028+1043398994+1043946663
2010+1043550445+1042999737+1043244233+1044600477+1046494802+1047783524
2002+1047587778+1046094803+1044247338+1042589542+1041163278+1040333840
1993+1040519255+1041334986+1042155309+1043035591+1044068338+1044763745
1985+1044813373+1044590957+1044493590+1044406352+1043920195+1042663951
1976+1040655581+1038695962+1037901500+1038574423+1040160038+1042348084
1968+1045216209+1048016204+1049060970+1047523160+1044491564+1042034445
1959+1041571988+1042869015+1044431335+1044960436+1044329309+1043089068
1951+1041608990+1040136203+1039019122+1038359771+1037904201+1037547753
1942+1037549509+1038182864+1039508858+1041349976+1043248487+1044728499
1934+1045644230+1046061920+1046100880+1046036397+1046134168+1046295275
1925+1046141123+1045410537+1044186366+1042714525+1040936134+1038525470
1917+1035787594+1033922843+1033721223+1034733511+1035976790+1036968281
1908+1037874762+1038966995+1040295487+1041651056+1042623033+1042947678
1900+1042821884+1042644302+1042496632+1042115403+1041374351+1040544778
1891+1040008722+1039944711+1040312638+1040985493+1041756390+1042267463
1883+1042257199+1041931541+1041745316+1041854769+1042146666+1042602573
1874+1043198994+1043721410+1044091092+1044565636+1045235317+1045704797
1866+1045799192+1045835452+1045970563+1045981366+1045721002+1045346526
1857+1044977924+1044573738+1044217696+1044120937+1044314117+1044588121
1849+1044677385+1044442138+1044083868+1044142612+1044828363+1045601826
1840+1045939030+1045796289+1045385959+1044875088+1044164826+1043035523
1832+1041615337+1040614730+1040763143+1041980900+1043602774+1044972387
1823+1045757396+1046100475+1046317085+1046559488+1046768198+1046709589
1815+1046193385+1045378531+1044672658+1044191160+1043431134+1041776039
1806+1039305752+1036919598+1035652213+1035867810+1037031887+1038223985
1798+1038897447+1039137015+1039417636+1040197445+1041370975+1042113783
1789+1041866248+1040925939+1039932085+1039288939+1038949507+1038727968
1781+1038553964+1038282594+1037705619+1036850320+1036060652+1035851875
1772+1036475777+1037488132+1038431277+1039366184+1040294137+1041109058
1764+1042025802+1043265840+1044485690+1045299058+1045937207+1046720190
1755+1047579743+1048350370+1049091827+1049968463+1050923087+1051698305
1747+1052330715+1053063530+1053875615+1054591549+1055196747+1055662918
1738+1055946307+1056429966+1057743063+1059734485+1061046029+1061103085
1730+1060537792+1059861966+1059291677+1058944479+1058825573+1058750421
1721+1058647046+1059027194+1060693227+1063282555+1065097002+1065668034
1713+1065657095+1065420566+1064987076+1064154464+1062492414+1059785261
1704+1056408359+1052898911+1049748882+1047618028+1046905673+1047670223
1696+1049487640+1050641994+1049827140+1047239298+1043359763+1038795489
1687+1034266327+1029629197+1023733258+1015732797+1005347128+992037628+975191942
1677+953093056+923131050+886878236+850204762+814028450+775043163+735992177
1667+704367985+680767482+661607889+645599676+633507933+625270944+619546307
1657+615227678+613186695+619389454+641100696+664852044+676319750+683275985
1647+695640315+714431778+731377599+743454218+753870069+764197737+774272334
1638+785902633+802861823+822907370+838214909+848303077+857445061+868189609
1628+879867781+890447508+899430276+906861933+910997443+910593527+907416557
1618+904584894+903589149+902150326+897983959+892137580+887487418+886782490
1608+890713342+897598139+904849714+909249370+906671318+894988014+878357588
1598+866059632+865642348+877255024+894635821+911404059+925185604+936368572
1588+945655188+953403994+959968468+965727540+970716257+974601463+977326645
1578+979560942+982069784+984240949+984901515+984601245+984496249+983956412
1568+978790451+962442603+929905381+883368991+832789934+788510934+763266274
1558+771387125+796239349+817778681+836679597+854265525+869666109+882991004
1548+894371945+903885908+912690283+921562450+929909905+938469986+948713455
1538+957273401+961778120+964605327+968417273+973530837+977913004+980719077
1528+983163840+986224065+989410758+992099275+994949710+998482588+1001530996
1519+1003006686+1003135180+1002396829+1001144704+999686502+998164357+995999810
1509+989821291+972276011+945414270+925886954+919062319+922259883+933208752
1499+948960517+965148743+977437448+984063299+985658097+981433661+967339827
1489+942308265+916682039+903096847+904714536+917008034+932863851+946627300
1479+956695481+964498305+971708152+979159052+986810290+992786648+994355383
1469+990756199+982388825+969933543+956318980+946523046+942446415+942492532
1459+945634526+952225671+959769886+963440711+963161170+961493043+960694057
1449+962041253+964546178+965194253+962501955+958085756+954002305+949988740
1439+942564646+925769128+897153980+866603521+846591668+840702751+848152435
1429+864807845+883094988+898335612+910757605+921415320+930555549+939244394
1419+949109808+959261852+966896884+971774729+975466621+978931976+982303747
1409+985400636+988137364+990760858+993528713+996152206+998221548+999980627
1400+1001946323+1004129034+1006171772+1008008164+1009694859+1011010725
1391+1011787901+1012160757+1012154950+1011030846+1007345910+1000247406
1383+990640128+981363303+975914290+976077693+981072081+988819335+996949167
1373+1003390818+1007485410+1009925514+1011478449+1012414909+1012705591
1364+1011956301+1008989999+1002037477+989920346+973398292+956155847+943560525
1354+937637510+934200580+928558050+922581422+922660153+931678910+946081251
1344+960333153+971599105+980131569+987159985+993134925+997575027+1000080222
1334+1000849836+1000453685+999627893+999108448+999232283+999593930+999316482
1324+997871853+995610479+993445053+992204812+992309606+993712305+996033503
1315+998912364+1002184945+1005713772+1009269809+1012617272+1015557848
1306+1017924421+1019599233+1020399839+1019839948+1017155550+1011888576
1298+1004677514+997274352+991424597+987772273+985911304+985009887+984255061
1288+983308540+982534132+982375455+982720964+983388350+984893277+988101645
1278+993161326+999108853+1004541795+1008396954+1009872779+1008139291+1003310467
1268+997873000+995703591+998716348+1005145170+1011681082+1016487826+1019669456
1258+1021907535+1023613541+1025012999+1026303071+1027594156+1028872682
1249+1030030007+1030783280+1030577204+1028916437+1026139871+1023638659
1241+1022780119+1023610368+1025001858+1025998953+1026580181+1027178222
1232+1027972751+1028758030+1029186862+1029004418+1028093818+1026400168
1224+1024087072+1021917258+1021149062+1022636163+1026003409+1029899217
1215+1033114067+1035362409+1037011833+1038372195+1039488601+1040412232
1207+1041293527+1042190150+1043002168+1043650917+1044204732+1044739235
1198+1045140989+1045199733+1044803920+1043704597+1041032623+1035458290
1190+1026338655+1015018214+1004904995+999700209+1001001422+1007461169
1181+1016087219+1024190178+1030479027+1035015077+1038508252+1041590759
1173+1044434373+1046826065+1048615528+1050033487+1051440372+1052934225
1164+1054379193+1055613087+1056531856+1056941511+1055976894+1052110526
1156+1045207363+1038471115+1036317235+1039832220+1045907295+1050932675
1147+1053640301+1054263798+1052720991+1047842403+1036515277+1013774664
1139+977676543+936414014+906943837+902008868+919372852+945996916+970353867
1129+988344994+1000657736+1008975819+1014782360+1019261556+1022996999
1120+1025672890+1026265462+1023952096+1019317127+1014771421+1013365752
1112+1016620845+1023377688+1030949114+1037284216+1041909529+1045280557
1103+1047741593+1048842739+1047167928+1041307977+1032052016+1023471678
1095+1020421581+1024386329+1032478754+1040505953+1046062798+1048831801
1086+1049261510+1047575152+1043565097+1036642758+1025380250+1006682778
1078+976357166+932464459+879575817+829312627+794755827+782672658+790499317
1068+810085512+833560425+856292598+876507759+893958441+909070775+922447729
1058+934448521+945062279+954172325+961812962+968141244+973333133+977567765
1048+981046693+984019342+986743781+989349921+991839586+994231413+996542077
1038+998656929+1000423570+1001800138+1002759691+1003149090+1002769887
1030+1001549902+999500074+996521686+992623718+988719807+986860391+988810219
1020+994236207+1000865433+1006529773+1010583582+1013431045+1015489246
1011+1016971620+1018169593+1019435290+1020912870+1022464050+1023862224
1003+1025026706+1026057427+1027080045+1028135141+1029219205+1030303538
994+1031297662+1032115419+1032818726+1033629596+1034709068+1035913860
986+1036894885+1037456194+1037668753+1037684012+1037594546+1037274560
977+1036241881+1034169366+1031789896+1030707588+1031883819+1034628312
969+1037329860+1038887724+1039199203+1038531749+1036805891+1033491514
960+1028178018+1021551559+1015632527+1012206807+1010669064+1007040846+994279691
950+965822949+924404107+887668242+877492093+899689425+938483288+972681547
941+992524325+1000207838+1001096358+998550852+993860313+987247224+978675056
931+968583647+958247538+949611090+944539727+943609074+945277471+946365923
921+943738783+935848518+922871361+905776249+885664396+863711628+841185667
911+819485363+800237992+785028293+774830807+769875987+770012448+774892792
901+783798450+795570342+808902732+822726006+836250563+848769855+859855051
891+869944367+880244013+891572287+903503126+914890009+924958191+933682080
881+941403608+948417574+954886976+960884266+966351510+971132664+975157911
871+978600444+981862559+984835276+985353236+979712664+967604107+955919656
861+953650584+962467856+975715033+986585915+993574898+998233094+1001706756
851+1004372990+1006504115+1008352323+1010087836+1011606875+1012356840
843+1011331251+1006614310+995373342+976577692+954772932+939129607+936636701
833+946554039+962232745+977155544+988350125+995818108+1000841058+1004662389
823+1007740507+1010009849+1011632871+1013060283+1014606533+1016364532
815+1018337857+1020450076+1022559053+1024526099+1026259452+1027596452
806+1028150266+1027842704+1027876128+1030160797+1035062545+1040656459
798+1044771645+1046923904+1048008304+1049068667+1050671501+1052839087
789+1055196139+1057248601+1058772299+1060105922+1061838330+1064109900
781+1066619619+1069175321+1071569780+1073214477+1073741823+1073665253
772+1073673693+1073461540+1071743784+1067318875+1059661021+1047737812
764+1027519747+991343774+932988563+856744995+779848017+720428460+682437364
754+657566370+641188745+637912315+650525395+673525764+701174135+733762606
744+772034795+811651411+846661351+874732880+897075992+915621744+931501867
734+945073892+956423841+965460492+971200118+971655890+966255426+958813304
724+956047609+961772179+973647582+986246550+996016690+1002610738+1007113162
714+1010560219+1013589316+1016479116+1019260543+1021756083+1023637984
705+1024714552+1025261749+1025906651+1027010633+1028347700+1029608265
697+1030851140+1032091989+1032999145+1033483546+1033981587+1034820951
688+1035883543+1037041205+1038377934+1039899742+1041403656+1042696429
680+1043690823+1044162666+1043619115+1041592447+1038030129+1033243034
671+1026662152+1014259133+988445804+950207848+914438963+889331575+876942060
662+881209373+902438239+932911994+962976633+987436285+1005635581+1018660544
652+1027951077+1035329661+1042271784+1048877243+1054264270+1057724427
643+1058934756+1057265616+1050997091+1036276520+1006877848+958830590+899591451
633+849934472+830188857+844074994+878304921+915982108+947446880+970861834
623+988190639+1002062528+1013925710+1023619281+1030691451+1035712510+1039788263
613+1043437143+1046641595+1049432678+1051892836+1053992833+1055658934
605+1056662849+1056454611+1054383109+1049974000+1042745382+1030942024
596+1008836724+965675684+892144805+793661838+696014048+630144737+610579812
586+631494229+676845611+730432834+781592916+825766785+861923920+890677218
577+913500005+931857438+946809541+958981028+967493642+969716258+965125381
567+959227686+959761986+968850966+981935010+993852007+1002867929+1009299992
557+1013877905+1017868716+1022220228+1026248379+1028647632+1029528455
548+1030307994+1031923387+1034127165+1036360652+1038359568+1039776987
540+1040204603+1039912031+1039506292+1038443363+1034568285+1024554661
531+1004227211+971441103+932216519+902751338+899097056+921093173+953253961
521+981531095+1001489740+1014788909+1024300441+1031838039+1037979758+1042917563
511+1046932209+1049996688+1051637536+1051800804+1051525247+1052341654
503+1055126119+1059212541+1062581341+1063873033+1063892007+1064358853
494+1065605441+1066422726+1066154124+1065424078+1063996463+1058996066
486+1046501149+1025647569+1000094469+972097416+936484912+887186676+831563467
476+791981354+788641926+822602441+874159350+920148273+952121890+972603087
466+983640950+983836763+970638674+944093610+910694607+883668451+877006746
456+893438591+922394319+952682523+977989979+996132828+1009020316+1019233332
446+1026774104+1031400363+1035172268+1039773341+1043966380+1046167929
438+1046912898+1047244160+1046885484+1045588794+1044623029+1044944298
429+1045427147+1044563205+1042036133+1037352480+1029514545+1018241909
421+1001421881+973391472+936214554+904359303+885573984+879198977+884233001
411+899398541+921851849+947900289+973217468+993564499+1007034971+1015281076
401+1021863443+1028773425+1033942627+1034301033+1031284968+1028089159
392+1026423935+1027595439+1032075243+1038262472+1043633227+1046745038
384+1048135651+1049635716+1051914105+1053573792+1052397021+1044284475
375+1020085728+975405378
##END=
