##TITLE=CZ-001
##JCAMP-DX=4.24
##DATA TYPE=INFRARED SPECTRUM
##DATE=8/1/2019
##SAMPLING PROCEDURE=Diamant-ATR
##ORIGIN=Angelika Moesle
##XUNITS=1/CM
##YUNITS=TRANSMITTANCE
##RESOLUTION=4
##FIRSTX=3997.453
##LASTX=373.96442
##DELTAX=-1.4165319
##MAXY=1.0074413
##MINY=0.71674132
##XFACTOR=1
##YFACTOR=9.3825281e-010
##NPOINTS=2559
##FIRSTY=0.99848455
##XYDATA=(X++(Y..Y))
3997+1064195643+1064496572+1065113167+1065710705+1065810824+1065231074
3989+1064218703+1063331481+1063091412+1063562594+1064273464+1064617782
3980+1064300590+1063452628+1062503467+1061985148+1062207112+1062946633
3972+1063579428+1063685011+1063407968+1063137278+1063000441+1062878024
3963+1062758973+1062761515+1062798233+1062563691+1062034572+1061697115
3955+1061986101+1062631284+1062933864+1062692270+1062444196+1062601235
3946+1062808207+1062612734+1062259776+1062325019+1062753701+1062797662
3938+1061977016+1060687286+1059780497+1059687557+1060127737+1060656221
3929+1061163740+1061677040+1062125162+1062452772+1062633062+1062567439
3921+1062272037+1062068496+1062362944+1063139184+1063818481+1063894905
3912+1063527399+1063274942+1063343297+1063318522+1062721492+1061560722
3904+1060350527+1059740729+1060014468+1060887587+1061766233+1062286394
3895+1062558100+1062863222+1063262173+1063448943+1063100178+1062362500
3887+1061720874+1061522987+1061603476+1061588356+1061462318+1061278026
3878+1060813451+1060092098+1059632733+1059757945+1060080219+1060140316
3870+1060076788+1060103279+1060105058+1060119669+1060390168+1060962613
3861+1061687904+1062360022+1062632491+1062289570+1061762612+1062122049
3853+1063685392+1064728891+1064402170+1063485916+1062580335+1061800665
3844+1061108725+1060608131+1060536853+1060947811+1061471974+1061563200
3836+1061200459+1060987007+1061341426+1061933373+1062000204+1061353115
3827+1060670895+1060547271+1060777812+1061026204+1061510472+1062254821
3819+1062560006+1062272164+1062016213+1062003761+1061784719+1061234891
3810+1060756022+1060769807+1061277581+1061586387+1061100149+1060382609
3802+1060567981+1061747175+1062615974+1062508041+1061858856+1061220279
3793+1060885109+1060893241+1061019152+1061006129+1060956260+1061153195
3785+1061535438+1061823788+1062061063+1062458045+1062914171+1063208683
3776+1063362419+1063302894+1062719650+1061623360+1060693765+1060675851
3768+1061442815+1062269941+1062746840+1062895239+1062799758+1062393374
3759+1061604365+1060695036+1060150925+1060075518+1060093369+1059858699
3751+1059596205+1059706361+1059855904+1059814421+1060280520+1061756894
3742+1062966581+1062662857+1061288381+1059949353+1059610752+1060493591
3734+1061729069+1062325972+1062118110+1061430110+1060684935+1060369459
3725+1060825394+1061856696+1062840352+1063270432+1063037858+1062382320
3717+1061634477+1061009559+1060683728+1060832954+1061339901+1061750478
3708+1061918952+1062028664+1062147523+1062291667+1062390833+1062029426
3700+1060942538+1059749369+1059299405+1059663988+1060148257+1060074628
3691+1059459113+1059071723+1059609037+1060593646+1061180575+1061334501
3683+1061371538+1061321288+1060923671+1060014659+1058884763+1058322102
3674+1058720290+1059285429+1059522640+1059910919+1060803477+1061706708
3666+1062166010+1062209336+1061885029+1061135661+1060054808+1059068483
3657+1058774098+1059339936+1060040641+1060133899+1059813785+1059905138
3649+1060872785+1061829887+1061694638+1060626617+1059359311+1058445980
3640+1058038008+1058048617+1058481491+1059381546+1060460112+1061081409
3632+1060880853+1060308345+1060427522+1061566503+1062508358+1062335564
3623+1061160754+1059565966+1058379784+1058233100+1058777973+1059044025
3615+1058576211+1057506856+1056358728+1055938050+1056568939+1057347847
3606+1057028051+1055702999+1054487976+1054126570+1054547184+1055199291
3598+1055581217+1055587506+1055463374+1055375389+1055073571+1054322424
3589+1053500826+1053340547+1053824625+1054055292+1053799150+1053657611
3581+1053897744+1054074033+1053738799+1053056008+1052497032+1052256771
3572+1052181428+1052158431+1052413303+1053297729+1054654164+1055692199
3564+1056012758+1055954821+1055877572+1055759411+1055384918+1054755109
3555+1054201659+1054063678+1054355903+1054851035+1055439424+1056145530
3547+1056805261+1057054034+1056819110+1056490102+1056354598+1056272521
3538+1056052399+1055829863+1055792382+1055777326+1055601991+1055513052
3530+1055773832+1056008819+1055591890+1054649653+1054012665+1054178344
3521+1054879241+1055614696+1056133396+1056401354+1056466343+1056384774
3513+1056157410+1055815823+1055573276+1055623717+1055772815+1055658085
3504+1055356013+1055392478+1056017395+1056787854+1057122770+1056941209
3496+1056603117+1056426511+1056396590+1056331919+1056205119+1056179199
3488+1056315910+1056375435+1056082511+1055568766+1055316054+1055542084
3479+1055871473+1055845364+1055498187+1055181122+1055024210+1054867425
3471+1054622146+1054356157+1054053132+1053621591+1053163623+1052945216
3462+1053073796+1053473763+1054084388+1054714578+1054890612+1054345040
3454+1053503367+1052998262+1052888296+1052814414+1052668365+1052635203
3445+1052728715+1052739769+1052614620+1052556175+1052696888+1052843001
3437+1052680054+1052204488+1051776569+1051678165+1051791561+1051823642
3428+1051674862+1051457852+1051298208+1051254946+1051350301+1051549141
3420+1051710373+1051678800+1051504799+1051449403+1051614701+1051734514
3411+1051599518+1051474242+1051724286+1052250609+1052676623+1052861996
3403+1052881562+1052746757+1052451228+1052104751+1051829741+1051681722
3394+1051779110+1052276084+1053075066+1053760970+1054040236+1054084133
3386+1054229929+1054486515+1054612109+1054552901+1054467521+1054385253
3377+1054186730+1053929317+1053853720+1053977344+1054002882+1053806202
3369+1053716374+1054079623+1054737575+1055150312+1055014808+1054625322
3360+1054524759+1054861136+1055304365+1055558347+1055597290+1055471760
3352+1055345277+1055567876+1056193557+1056644727+1056375816+1055638900
3343+1055124964+1055072364+1055133159+1055010488+1054853576+1054918501
3335+1055109210+1055106287+1054821431+1054484292+1054358254+1054476033
3326+1054617064+1054585364+1054514975+1054680782+1055031960+1055228895
3318+1055113784+1054831468+1054545532+1054340847+1054328078+1054550551
3309+1054795575+1054734716+1054342499+1054025498+1054219065+1054924028
3301+1055728473+1056229767+1056313814+1056055321+1055540496+1054912593
3292+1054463264+1054454434+1054842522+1055357474+1055825861+1056226400
3284+1056466724+1056349198+1055852796+1055297123+1055088436+1055330793
3275+1055775293+1056119674+1056269599+1056326329+1056405484+1056505539
3267+1056558521+1056568304+1056591873+1056622048+1056617474+1056556170
3258+1056351104+1055918484+1055460134+1055367194+1055691628+1056038868
3250+1056118721+1056064215+1056139304+1056465199+1057053716+1057792030
3241+1058403289+1058659431+1058602257+1058405576+1058129995+1057738985
3233+1057282541+1056972846+1057024049+1057388378+1057759377+1057881159
3224+1057696739+1057245441+1056716068+1056526503+1056939494+1057601385
3216+1057811596+1057326693+1056709525+1056713273+1057375545+1057983501
3207+1058011898+1057727232+1057647505+1057794952+1057811215+1057594333
3199+1057479666+1057760266+1058261941+1058573479+1058535934+1058251142
3190+1057813820+1057355788+1057145513+1057328090+1057730154+1058096961
3182+1058331821+1058427557+1058368095+1058200129+1058078220+1058160933
3173+1058421712+1058603019+1058483651+1058190537+1058071741+1058221157
3165+1058313716+1058008912+1057362395+1056766890+1056600385+1056913956
3156+1057325232+1057336031+1056895978+1056443346+1056318197+1056462468
3148+1056698980+1056906396+1056948197+1056788871+1056593651+1056495311
3139+1056468249+1056526630+1056792746+1057242964+1057530488+1057252366
3131+1056517863+1056053098+1056438899+1057392697+1058146639+1058298787
3122+1057936554+1057278857+1056617919+1056314513+1056529489+1057116100
3114+1057793872+1058247393+1058219696+1057780595+1057343718+1057239279
3105+1057431957+1057704362+1057879761+1057827415+1057500440+1057044187
3097+1056701775+1056580311+1056595049+1056623382+1056616204+1056569130
3088+1056464310+1056261785+1055934492+1055523026+1055109019+1054714197
3080+1054309084+1053969086+1053885420+1054107003+1054373373+1054331382
3071+1053897490+1053325935+1052920758+1052733671+1052581269+1052325444
3063+1052059138+1052003679+1052272653+1052733353+1053059057+1052944009
3054+1052306450+1051329718+1050325923+1049488126+1048696512+1047649900
3046+1046248743+1044699757+1043193398+1041713785+1040254754+1039018449
3037+1038236429+1037904118+1037846752+1037981240+1038336992+1038827804
3029+1039207253+1039285073+1039055740+1038642114+1038238271+1038003538
3020+1037887473+1037625106+1036973316+1035926513+1034747193+1033808451
3012+1033305759+1033120323+1033050697+1033088623+1033357089+1033924070
3003+1034815675+1036074596+1037691111+1039519235+1041271635+1042579344
2995+1043147405+1042962604+1042318374+1041630373+1041271825+1041430135
2986+1041911545+1042217238+1042070935+1041754506+1041685070+1041833025
2978+1041877812+1041799102+1041883085+1042088913+1041810156+1040540245
2969+1038581064+1036735343+1035304454+1033771351+1031586266+1028832296
2961+1025826820+1022490050+1018547547+1014047529+1009325229+1004838298
2952+1001360306+999799060+1000323859+1002023849+1003773072+1005050034
2944+1005710654+1005535192+1004374803+1002356096+999595328+995894038+990855118
2934+984166713+975846800+966482943+957232418+949350716+943621191+940216066
2924+938946283+939522666+941677003+945171257+949733405+955030881+960769300
2914+966793337+972997284+979111975+984649520+989167834+992640807+995482826
2904+998119526+1000608207+1002750093+1004428991+1005637598+1006233992
2895+1005933381+1004614745+1002503035+1000058569+997860779+996539793+996513556
2885+997718732+999762849+1002306926+1005143102+1008034609+1010703644+1012952509
2876+1014684898+1015857929+1016462391+1016506479+1016003216+1015021847
2867+1013729194+1012264255+1010537965+1008290878+1005389333+1001872336
2859+997700246+992774659+987289777+981809279+976988385+973453028+971796173
2849+972319448+974771092+978511642+982899217+987480232+991986539+996264466
2839+1000171648+1003515787+1006122374+1007975592+1009262210+1010243516
2830+1011082457+1011814736+1012451851+1013058664+1013714710+1014429328
2822+1015140770+1015840015+1016669999+1017798942+1019188537+1020583215
2813+1021757898+1022714619+1023624774+1024625519+1025708342+1026783922
2805+1027788352+1028702382+1029524235+1030253147+1030855639+1031297980
2796+1031674188+1032157885+1032711970+1033065054+1033129725+1033179213
2788+1033440882+1033780308+1033947512+1033914859+1033865053+1033993505
2779+1034328294+1034634559+1034584944+1034152705+1033721418+1033642962
2771+1033773129+1033612151+1032871042+1031692484+1030320930+1028826896
2762+1027230773+1025637001+1024122510+1022683046+1021358820+1020262911
2754+1019450969+1018861118+1018381995+1017942513+1017594956+1017520057
2745+1017880257+1018636676+1019560363+1020449046+1021295292+1022190582
2737+1023116492+1023939171+1024595916+1025164294+1025739534+1026328304
2728+1026851070+1027231281+1027517853+1027878497+1028380362+1028855991
2720+1029124267+1029267457+1029527030+1029982520+1030485783+1030872855
2711+1031110638+1031259927+1031418237+1031678445+1032054208+1032482382
2703+1032938889+1033463624+1033997444+1034322831+1034306060+1034091465
2694+1033917146+1033853745+1033874709+1034051824+1034468308+1035034400
2686+1035563074+1035971999+1036297513+1036537265+1036550478+1036207304
2677+1035672595+1035368363+1035487858+1035749145+1035843674+1035871181
2669+1036101086+1036530086+1036925607+1037167265+1037359752+1037646260
2660+1038006714+1038279881+1038367358+1038350714+1038374092+1038471480
2652+1038578332+1038666508+1038762689+1038836190+1038802012+1038695477
2643+1038698463+1038886122+1039074290+1039030901+1038759893+1038486726
2635+1038437556+1038697954+1039190735+1039704099+1040028152+1040152411
2626+1040233345+1040298524+1040182269+1039877021+1039704735+1039939658
2618+1040444700+1040868364+1041034297+1040997515+1040887041+1040858581
2609+1041045478+1041404470+1041718803+1041856403+1041895219+1041942737
2601+1041970943+1041868029+1041569578+1041191146+1041059263+1041462090
2592+1042303000+1043117801+1043464406+1043294153+1043015840+1043142259
2584+1043756568+1044417887+1044692579+1044605991+1044476522+1044463118
2575+1044446283+1044314274+1044176928+1044173688+1044217268+1044149357
2567+1044028020+1044044537+1044236199+1044407087+1044305825+1043922755
2558+1043630148+1043844045+1044504919+1045121578+1045340176+1045213756
2550+1044975148+1044840343+1044962252+1045293420+1045552547+1045525802
2541+1045293293+1045029845+1044781771+1044591443+1044598749+1044819887
2533+1044997891+1044853557+1044440439+1044149357+1044323993+1044886591
2524+1045395889+1045480444+1045167699+1044837103+1044905141+1045436102
2516+1045979895+1045933838+1045160266+1044193890+1043796336+1044287719
2507+1045229956+1045780737+1045449887+1044543099+1043865708+1043990602
2499+1044783359+1045636467+1046138841+1046355786+1046463084+1046439388
2490+1046232797+1045914335+1045564491+1045255875+1045135173+1045253842
2482+1045405545+1045389663+1045329630+1045536539+1046130963+1046889288
2473+1047383149+1047320956+1046872771+1046560852+1046719543+1047164361
2465+1047446931+1047331121+1047007703+1046877726+1047112078+1047482506
2456+1047693353+1047692146+1047548384+1047302279+1047051283+1046928929
2448+1046936807+1046991821+1047091242+1047225475+1047210482+1046821886
2439+1046117495+1045486606+1045306062+1045650062+1046359217+1047156293
2431+1047645326+1047583133+1047264480+1047216644+1047461224+1047483395
2422+1046946908+1046108411+1045548355+1045642629+1046240738+1046868134
2414+1047247137+1047432891+1047488351+1047415675+1047418915+1047784451
2405+1048407209+1048788119+1048609226+1048030683+1047376797+1046822712
2397+1046460543+1046341239+1046328152+1046208149+1046027096+1046031480
2388+1046214819+1046227398+1045869866+1045422189+1045284081+1045457129
2380+1045638690+1045711810+1045812692+1046000224+1046224920+1046543319
2371+1047047916+1047741126+1048586864+1049329562+1049381844+1048456316
2363+1047143779+1046397651+1046597253+1047229667+1047392678+1046772970
2354+1045980848+1045655207+1045708316+1045775083+1045790457+1045915542
2346+1046293847+1046864830+1047240848+1046988899+1046166411+1045340176
2337+1045047823+1045406816+1046125246+1046659002+1046584739+1046034910
2329+1045474345+1044998717+1044352581+1043582630+1043099569+1043055481
2320+1043153948+1043183869+1043240917+1043377564+1043507160+1043700981
2312+1044161427+1044781263+1045126724+1045043757+1044883986+1044934618
2303+1045066945+1045137778+1045266548+1045536411+1045827176+1046020172
2295+1046077029+1046003019+1045963696+1046216916+1046734536+1047167093
2286+1047337410+1047486064+1047870785+1048355371+1048546778+1048227681
2278+1047574938+1046972509+1046551514+1045986566+1044995413+1043923454
2269+1043404500+1043591333+1044140336+1044749118+1045344114+1045957788
2261+1046610467+1047131581+1047206798+1046798381+1046316971+1046352038
2252+1047291797+1048862128+1050054535+1050148174+1049562580+1048925973
2244+1047926879+1046158915+1044412042+1043952613+1044948721+1046511301
2235+1047948352+1049247040+1050428139+1051093015+1050852247+1049852455
2227+1048599570+1047497117+1046761154+1046503678+1046725833+1047416184
2218+1048590358+1049931737+1050651374+1050195502+1048944459+1047870975
2210+1047653839+1048289620+1049244499+1049878691+1050044625+1050305976
2201+1051215432+1052395960+1052733988+1051607078+1049665367+1048176796
2193+1047825172+1048429062+1049426123+1050049961+1049702848+1049051249
2184+1049689698+1051572519+1052354730+1050661347+1048044532+1046466006
2176+1045998064+1045894705+1046036117+1046502725+1046984198+1047179544
2167+1047152228+1046958470+1046200780+1044578166+1043101729+1043921103
2159+1047834002+1052572883+1055193447+1055128395+1053893170+1053207457
2150+1053561685+1053934146+1053075765+1051182589+1049734040+1049649675
2142+1050319126+1050561482+1049949842+1049009003+1048586991+1049162802
2133+1050389641+1051327685+1051457535+1051250436+1051393626+1051777013
2125+1051773710+1051265492+1050738597+1050475848+1050257123+1049892413
2116+1049542696+1049368694+1049272323+1049241195+1049621914+1050656329
2108+1051874147+1052302447+1051322793+1049250534+1047164044+1046176766
2099+1046650299+1048027697+1049423773+1050288569+1050590387+1050585877
2091+1050406031+1049877548+1048996361+1048403652+1048747842+1049687728
2082+1050299369+1050334944+1050283042+1050382653+1050403681+1050289205
2074+1050303181+1050516823+1050591213+1050270591+1049869289+1049852772
2065+1050005174+1049699989+1049025520+1048763534+1049213053+1049959117
2057+1050708612+1051486122+1052039508+1051820021+1050769471+1049823232
2048+1050178222+1051682993+1052577965+1051611779+1049640401+1048397998
2040+1048419343+1048910790+1049164899+1049241449+1049498798+1050209859
2031+1051562164+1053268126+1054294472+1054033629+1053558953+1054417715
2023+1056275951+1057097994+1055765827+1053380950+1051809666+1051759162
2014+1052698794+1054167799+1056208613+1058413644+1059514445+1058606386
2006+1056204547+1053480180+1051207301+1050016164+1050629965+1052937021
1997+1055479065+1056729409+1056455797+1055331301+1053907655+1052642128
1989+1052239555+1053011857+1054195560+1054586126+1053750869+1052211095
1980+1050709946+1049759578+1049704309+1050802314+1053183190+1056606738
1972+1060194504+1062826376+1063959004+1063738882+1062458871+1060450138
1963+1058278522+1056498869+1055418841+1055175532+1055526584+1055600847
1955+1054540196+1052445193+1050349301+1049379621+1049927226+1051290649
1946+1052293617+1052592704+1052975519+1054143468+1055805468+1057211454
1938+1057748260+1057047427+1055340576+1053485135+1052185875+1051552508
1929+1051513439+1052130352+1053328858+1054625831+1055329332+1055105461
1921+1054163733+1052664744+1050514790+1048076295+1046211897+1045282874
1912+1044914352+1044635658+1044287656+1043961126+1043821937+1043927456
1904+1044100377+1044049619+1043661531+1043174658+1043080955+1043739542
1895+1044975148+1046143224+1046724054+1046775320+1046771064+1047029175
1887+1047367966+1047521766+1047581482+1047784832+1048160787+1048627204
1878+1049187705+1049803157+1050281327+1050512821+1050709565+1051234681
1870+1052179967+1053157080+1053713642+1053856642+1053843619+1053837838
1861+1053893933+1053987890+1054000277+1053836377+1053601898+1053531510
1853+1053677749+1053811665+1053751759+1053634678+1053753156+1054249241
1844+1054934700+1055356204+1055309892+1055067536+1054989016+1055221272
1836+1055604532+1055780502+1055562985+1055242807+1055333651+1055867471
1827+1056403959+1056784233+1057107778+1057246394+1056980596+1056436676
1819+1056059196+1056166875+1056588506+1056893691+1056886131+1056682971
1810+1056507890+1056547721+1056825335+1057144814+1057261768+1057087449
1802+1056730934+1056433309+1056330776+1056267248+1056082511+1055936906
1793+1056107922+1056484575+1056547149+1056059006+1055303730+1054749836
1785+1054693296+1054998037+1055308812+1055463628+1055514005+1055520422
1776+1055466995+1055381551+1055487260+1055978009+1056579421+1056957345
1768+1057199320+1057422936+1057604434+1057822714+1058153754+1058441342
1759+1058594697+1058757136+1058935013+1058968110+1058862401+1058824666
1751+1059097960+1059716716+1060369967+1060842292+1061261191+1061766106
1742+1062348524+1062962197+1063465841+1063721729+1063935372+1064485518
1734+1065317280+1065833694+1065810824+1065539499+1065157319+1064817003
1725+1064604377+1064523444+1064486788+1064337182+1064027232+1063626184
1717+1062975157+1061853075+1060488953+1059026746+1057273838+1055126362
1708+1052544931+1049239734+1045077427+1040269810+1033828779+1022758707
1700+1005367099+984325150+959968348+930806851+902526540+881491834+866870586
1690+855946436+847605241+840579760+832409072+821022443+807718371+794952120
1680+782793635+771651014+764136119+763910660+771745860+784496102+800966946
1670+822838815+847673216+868715228+884411357+898049646+911836780+924577620
1660+934221378+940890916+945683922+949605969+954458754+961662493+967623067
1650+970036023+971570461+974675484+979478400+983855683+986718286+988556829
1640+989993244+991551695+993998257+998066671+1002662870+1005644141+1007046887
1630+1007977371+1009061909+1010373302+1011762644+1013189911+1014651991
1622+1015815176+1016296839+1016305924+1016474843+1017075049+1017556522
1613+1017499919+1017073397+1016563082+1016194179+1016020877+1015821338
1605+1015205250+1013731354+1010944666+1006410598+999623598+989869683+976449991
1595+959398635+940200184+921732106+907484145+900531720+902269382+911596647
1585+925550032+940897332+955254814+967302635+976943598+985346478+993811233
1575+1001512391+1006650032+1009717192+1012288649+1015050117+1017338242
1567+1018352391+1017964240+1016324855+1013627931+1009255159+1000472576
1558+986392899+973708726+965742342+961943220+962678294+967962493+976149380
1548+984560709+991482895+996993950+1001634871+1005669870+1009933185+1014907498
1538+1018700839+1020416520+1021233925+1022294640+1023882822+1025376475
1530+1026351810+1027121824+1028098174+1029230612+1030265471+1031251986
1521+1032246887+1033003941+1033475758+1033905647+1034342080+1034642310
1513+1034812944+1034979004+1035216024+1035697561+1036526592+1036295988
1504+1032860052+1025361737+1013179874+996906282+981158760+973927958+978029406
1494+986466718+992142245+993342402+991078417+987379160+984350180+982874695
1485+983025255+984905980+988487965+993235803+998400761+1003457532+1008053540
1475+1012098893+1015874510+1019276967+1021639674+1022938235+1023816817
1466+1024859554+1026087600+1026915551+1026979268+1026521491+1025943583
1458+1025369043+1024319254+1022260907+1019210391+1015364640+1011168791
1449+1007676315+1006283734+1007403593+1009665481+1010996187+1009899833
1441+1005984965+999769012+992488659+986876596+985748923+988840605+994580167
1431+1002040747+1009959740+1016606980+1021248473+1024224472+1025915314
1422+1026364197+1025335055+1022139062+1015995784+1006948801+995488036+982458845
1412+970141479+961897353+959777067+963000568+968968384+974802538+978457262
1402+979864646+980564335+981978452+984325340+987066669+989981428+993076985
1392+996132774+999106867+1002368738+1006248540+1010527419+1014556891+1017956744
1383+1020780277+1023153021+1025093017+1026611001+1027856771+1029086532
1374+1030386808+1031518673+1032266008+1032734077+1033127629+1033508665
1366+1033879919+1034311777+1034831811+1035305852+1035580353+1035644897
1357+1035599920+1035590327+1035713506+1035915015+1036057761+1036137297
1349+1036363073+1036958832+1037890777+1038870558+1039663632+1040334417
1340+1041113770+1042054100+1042960507+1043715466+1044434785+1045242598
1332+1046005878+1046286923+1045481778+1042938336+1038138787+1031334635
1323+1024272943+1019733856+1019660609+1023618104+1029290391+1034501088
1315+1038409668+1041096744+1042804294+1043586950+1043276492+1041699046
1306+1038975950+1035579718+1032134634+1029201834+1027136880+1026019562
1298+1025673275+1025719332+1025603966+1024661603+1022297181+1018259324
1289+1012842671+1006858338+1001341756+997157787+994770813+994272314+995510842
1279+998180893+1001880404+1006153376+1010508361+1014509754+1017953123
1271+1020863116+1023228046+1024904531+1025904641+1026565007+1027251356
1262+1028008728+1028566879+1028560716+1027744772+1026134356+1023958356
1254+1021465927+1018876047+1016477257+1014524428+1012990372+1011634636
1245+1010295227+1008865546+1007071281+1004581647+1001238270+996926039+991393258
1235+984461733+976297017+967402119+958564585+950838208+945249840+942347660
1225+942079067+944036406+947666735+952289488+957126264+961513522+965169262
1215+968195702+970769382+972856698+974213831+974548239+973684712+971815549
1205+969745322+968733778+969838009+973297386+978477083+984280363+989594864
1196+993562524+995736300+996176671+995325215+993542259+990690964+986341823
1186+980461294+973847660+967974944+964468493+964454263+968045777+974428363
1176+982495056+991263726+999670671+1006404753+1010411863+1011601983+1010851853
1166+1009223141+1007139954+1004267187+1000238923+995629638+992093329+991292440
1156+993603817+997797252+1001699987+1003042255+999995042+991478321+977486502
1146+959545891+940962766+926199726+919215854+921676329+932301520+947770666
1136+964406173+979516453+991848685+1001320348+1008466594+1013938262+1018236899
1126+1021674804+1024381829+1026199217+1026485916+1024136931+1018348897
1118+1010021679+1002201407+998177082+998679201+1001251167+1002430614+1000277738
1108+995079111+988411986+982003927+977414399+976235714+979595099+986846929
1098+995236595+1001642431+1004816571+1005863437+1006822254+1009009880
1089+1012448611+1016332542+1019754820+1022164663+1023492574+1023989738
1081+1023931357+1023560548+1023350273+1024028490+1026063713+1029220193
1072+1032776831+1036045818+1038640653+1040508736+1041848018+1042871823
1064+1043691706+1044465913+1045362410+1046254778+1046804606+1046935473
1055+1046853332+1046591854+1045947306+1044904315+1043798305+1043004977
1047+1042685371+1042849144+1043477175+1044464008+1045545305+1046442755
1038+1047064751+1047481680+1047793218+1048086714+1048387833+1048581718
1030+1048498942+1048110854+1047548320+1046915843+1046142081+1045015107
1021+1043348151+1041160843+1038841780+1037192294+1037090079+1038833077
1013+1041840522+1045076855+1047703581+1049408780+1050348920+1050835285
1004+1051038064+1051028471+1050984828+1051144536+1051660886+1052636537
996+1054067998+1055556696+1056291833+1055603579+1053613841+1051324953
987+1049939296+1049923415+1050577174+1050311947+1047404240+1041181490
979+1033134617+1026492268+1023915094+1025496605+1029174009+1032709810
970+1035071055+1036468083+1037644990+1039101607+1040736227+1042099078
962+1042852892+1042915467+1042356617+1041408346+1040504416+1039987749
953+1039737642+1039291172+1038169217+1035646358+1030578978+1022561645
945+1013451389+1006691007+1004467425+1005906699+1008312160+1009793870
936+1010599015+1012380192+1016524331+1023049852+1030768607+1038221309
928+1044403974+1048883854+1051650404+1053004233+1053352744+1052762512
919+1050571583+1045538698+1036543046+1023356308+1007060418+989849164+974102023
909+961197219+951170963+943693930+939272495+939226247+944484908+954598069
899+967835565+981949039+994853716+1005010202+1011574666+1014365293+1013736182
890+1010408560+1005193288+998578765+990451466+980340147+968118389+954539751
880+941130922+929643349+921481110+917334050+917186222+920653794+927147870
870+935676661+944856797+953424784+960745858+966937862+972666624+978602168
860+984816660+990797309+996063212+1000541948+1004409107+1007918227+1011415276
850+1015179522+1019103601+1022717859+1025659108+1027994307+1030002468
841+1031814583+1033382500+1034587613+1035240927+1035200524+1034644088
833+1034013008+1033580515+1033264466+1032913161+1032508365+1031917879
824+1030668678+1028286342+1024848945+1020914891+1016827419+1012393978
816+1007357662+1001907657+996661956+992421447+989858503+988965436+988634840
806+986949652+981856099+971635958+955427037+933974003+909859875+886936693
796+869762221+863004507+869562809+888071226+912884536+937416673+957579023
786+972380370+982437119+988552191+991054785+989822673+984966394+977504226
776+969202545+961848437+956732205+954442364+954787952+957053907+960599618
766+965206743+970798986+977021101+983281778+989100432+994193032+998353433
756+1001588306+1004229960+1006453987+1007778276+1007557710+1005946976
748+1003883102+1002102368+1000613353+999243641+998361374+998715412+1000509930
738+1002952363+1005041839+1006552835+1007788441+1008480316+1007339811
730+1002716423+993363938+977944597+953555015+916519820+867845158+818566034
720+785935694+780720676+799647358+831197925+865052499+895447378+920013439
710+938415195+951547490+960591106+966241730+968916291+969692150+970530520
700+973215119+978316295+985259954+992906922+999997138+1005710464+1010053569
690+1013491665+1016332288+1018632674+1020441740+1021875424+1023079138
681+1024191565+1025265557+1026254676+1027121442+1027752332+1027738419
673+1026692125+1024833126+1022858191+1021342176+1019987075+1017548009
664+1012905817+1005466519+995827716+986366281+979943419+978075972+980242569
654+984301518+987956877+990094633+990679847+989669001+986356117+979549614
645+967964145+950623994+927509277+900276785+872473565+848927435+834552927
635+832486639+842009378+858303044+874601538+884963853+886347033+879796164
625+870474298+865404186+869241234+881521310+898206940+915511198+931682384
615+946082302+958274965+968171053+976078992+982397669+987587911+992260786
605+996914731+1001635443+1006138955+1009993091+1012896987+1014928271+1016414746
595+1017513260+1018151201+1018396797+1018662087+1019462721+1021082476
586+1023414562+1025827011+1026973805+1024911329+1018123757+1006992253+993904491
577+981894215+973704279+971502423+976060188+985766774+997176718+1007356138
567+1015585652+1022496276+1028411554+1033145734+1036739218+1039673225
558+1042374468+1044865690+1046973462+1048557451+1049440480+1049465319
550+1048786975+1047892257+1047277122+1047194473+1047612419+1048369664
541+1049309932+1050012289+1049618039+1047640880+1044819252+1042297537
533+1040016399+1036665399+1031173403+1023750304+1015554777+1007381422+998097863
523+984286716+961686760+928033567+887146778+850401267+830183712+830852400
513+848018613+874203349+903229724+931145006+954963224+972084968+981487450
503+984119703+981558537+974954305+965340151+954658929+946236228+943522978
493+947821869+957557170+969834388+982272075+993452177+1002846908+1010815515
483+1017772324+1023487238+1027957398+1031794763+1034894894+1036173889
475+1035394790+1034043374+1033752610+1034550322+1035112856+1033754961
466+1029273874+1022228000+1015315724+1011673578+1012696876+1017519104
458+1023679979+1028339896+1030263565+1030167639+1029260152+1028228532
449+1027345630+1027202376+1028747804+1032079429+1035422679+1036199236
441+1033833417+1030611631+1029377804+1031315068+1035367918+1039016861
432+1039742470+1036596218+1031149389+1026397994+1024600235+1026311025
424+1030152646+1033657891+1036136725+1040519472+1049049978+1057628384
415+1061722018+1061388055+1059675296+1059982959+1062950953+1065810824
407+1065810824+1064913056+1064286550+1064615177+1064173027+1062212766
398+1061598457+1065149314+1070410453+1073741823+1073715904+1068636390
390+1056437374+1038726669+1022679171+1016955554+1024027219+1037709216
381+1051041113+1061356799+1067901379+1070117338+1068671203+1065810824
##END=
