##TITLE=X9682
##JCAMP-DX=4.24
##DATA TYPE=INFRARED SPECTRUM
##DATE=19/11/2018
##SAMPLING PROCEDURE=Instrument type and / or accessory
##ORIGIN=Default
##XUNITS=1/CM
##YUNITS=TRANSMITTANCE
##RESOLUTION=4
##FIRSTX=3996.5625
##LASTX=399.65625
##DELTAX=-2.0390625
##MAXY=1.0431658
##MINY=0.34550673
##XFACTOR=1
##YFACTOR=9.7152386e-010
##NPOINTS=1765
##FIRSTY=0.96793509
##XYDATA=(X++(Y..Y))
3997+996306033+996849732+996962987+996700954+996247626+995756690+995435821
3982+995788593+996785803+997681170+998276036+998572488+998152781+996871941
3968+995287718+994440328+995270355+996937956+997494416+997197351+997617917
3954+998734456+999576263+999905967+999672340+999110542+998775685+998066275
3939+996964582+996539599+996797154+997640555+999264719+1000278433+1000096219
3925+999859156+999518470+999560741+1000404756+1000117569+998319596+997179068
3911+996972374+997619266+1000844096+1005860764+1008874605+1008577356+1005483880
3897+1001288896+1000053641+1002578754+1003987205+1003305158+1004561641
3884+1005463695+1005085217+1005210988+1003269758+1001978612+1004143652
3872+1007980342+1010986821+1010084215+1008524716+1008499255+1006179056
3860+1003208468+1004540045+1011718317+1021091815+1018586334+1007753157
3848+1002078738+1002333286+1005711004+1010337107+1015006892+1016267608
3835+1012681785+1008853806+1006114269+1003884932+1003368596+1004152057
3823+1007304062+1012822341+1014238093+1012972469+1010514904+1004921898
3811+1001324480+1002695568+1006206358+1008421400+1011936361+1013831270
3799+1010127836+1006351025+1002728575+999591908+998861822+999157722+999581723
3785+999953944+1000362853+1002223712+1002929686+1000515496+999497119+1002559551
3770+1007163996+1008349434+1006632691+1004414029+1003558541+1005592104
3758+1007153260+1007576893+1011983234+1020969112+1024959610+1021716805
3746+1021193352+1019783858+1013106032+1009791444+1013003145+1018797016
3734+1018508663+1010790373+1004055244+1002329543+1003505594+1004908830
3721+1005096137+1003904442+1002752748+1003750633+1008565024+1013463958
3709+1010874547+1004582623+1001779157+1002758883+1003053616+1001387795
3697+1000327085+1001210182+1005539587+1012242997+1014176067+1007688553
3685+1000734951+998442484+1001227176+1008215258+1016766520+1018794378
3672+1015652005+1014665899+1010090350+1002626608+998723168+997975106+998698259
3658+1001172573+1003507435+1004624956+1009941143+1019491640+1020770271
3646+1010650982+1001644674+998215728+997603008+997401591+998274503+1000487459
3632+1004947543+1011527023+1011294009+1004100767+1000734522+1003562958
3619+1008293972+1008647113+1007397317+1007912549+1007947458+1006898528
3607+1004408753+1000977229+999857990+1001417366+1002822811+1003091409
3595+1002989626+1002235185+1002205674+1004961654+1006717049+1003688116
3583+1000577216+999832038+999655345+998859062+998371990+999385275+1001992968
3568+1005353937+1006408818+1004051686+1002018306+1001016065+999658168+998950598
3554+1000048364+1000848697+1000136159+1000024069+1000313036+999345642+997847617
3540+997112501+997482268+998006150+998036151+998774151+1000444267+1001090484
3526+1000467765+999874187+998962132+997557240+996592914+996498371+997032805
3511+997767001+998205911+998510400+999554667+1000776609+1000415370+998857282
3497+997822463+997575032+997571903+997437972+996961576+996686659+996877033
3483+996657026+995715891+995277288+996124677+996890347+996372170+995443121
3468+995096178+995218820+995478337+995596930+995111884+994437874+994551313
3454+995123724+995053599+994462598+994397320+994748313+994793346+994822794
3440+994759970+993749569+992241851+991660912+992352652+993378452+993758342
3426+993756440+994079150+994744325+995139492+994729540+994221486+994269279
3411+994334251+994067187+993947183+994251917+994448426+994271058+993962889
3397+993670671+993721961+993724967+992857331+991913006+992046936+993038319
3383+993830492+993945956+993820001+993475572+993075866+993121880+993406490
3369+993574348+993739262+993914605+993798405+993647357+993627847+993332071
3354+992952120+993027582+993257712+993125438+992889234+992746653+992752788
3340+992810152+992594500+992678552+993317285+993391275+992807452+992776592
3326+993454590+994142956+994099458+993148629+992598182+993120837+993698279
3311+993674904+993224644+992840337+992503025+991834169+991691158+992626158
3297+993007888+992022641+991391332+991835150+992267373+992233384+992047182
3283+992073686+992168965+992471736+993410110+994014976+993600791+993042122
3269+992861074+992963040+993170102+993217772+993202619+993313174+993414282
3254+993242927+993029361+993200901+993255872+992902363+992952917+993583490
3240+993741716+993086725+992713277+993193907+993626559+993355262+992827330
3226+992250624+991813002+992046262+992368051+992126387+992115712+992976783
3212+993669198+993085989+992191665+992087490+992341977+992387622+992059268
3197+991734350+991745147+991737601+991848955+992544990+993272866+993217098
3183+992998440+993300168+993313174+992911137+992690454+992319645+991563240
3169+990842664+990633945+990843461+990951195+990629037+990204545+990185342
3154+990370194+990307186+989512068+988253008+986687681+984018452+980862889
3140+977995433+975414735+973921312+973761184+973966282+974370467+976125433
3126+978744108+980516681+981590091+982582638+983146767+982880194+981918077
3112+980977310+980691227+980915958+981160383+981235846+981294621+981590336
3097+981878566+981500640+980373793+978918285+977619531+977035217+976986750
3083+977360811+978256791+978535082+977517074+975624803+972962262+969643441
3069+966281613+963970249+963733064+965068383+966464748+967479383+968216953
3055+968553160+968309778+967165569+965293605+963221145+960899842+957824772
3040+953642487+948887853+944471573+940344996+936907399+935350047+935173109
3026+934998134+935192619+937369132+941360306+944311261+944314697+942041064
3012+938828689+936785186+937887186+941959834+947416885+952497419+955946612
2997+957849742+958880696+959072972+958581668+957961525+957604458+957611452
2983+958393809+960042452+960990397+960079263+957233525+951715553+944562987
2969+938875562+933900613+926182078+915297979+901905393+885576698+868651051
2955+857260064+855058458+860068193+867841515+874144053+876005341+872336816
2940+863941510+852453035+839730901+827625841+817694473+810170791+803245165
2926+795513132+789226423+789803865+800171506+817521706+837178547+855856214
2912+871986989+885540500+896461288+904373694+909633315+912855506+913826949
2898+911793570+906997768+900692469+894917495+892697545+896272018+905069852
2883+915969535+925826484+933255807+938374257+941834738+943968244+944943920
2869+944829745+943253374+939901730+934388053+925664270+912659488+895732614
2855+878213757+866036548+863891202+871603602+885456878+901573541+916734713
2840+928860877+937820006+944499611+949851688+954420120+958133616+960926284
2826+963054943+964944944+966879915+968640280+969856700+970692924+971459145
2812+972053336+972473534+972903364+973388472+974005548+974668698+974946560
2798+974735694+974443108+974578634+975255773+976028006+976669316+977368848
2783+978308449+979043381+979014239+978632448+978405324+978539316+979024301
2769+979587939+980135196+980568523+981093203+981973477+982688900+983004984
2755+983367143+983765929+984032502+984170421+984292449+984637798+985101433
2741+985621695+985966553+985659672+985344815+985788449+986181836+985870354
2726+985497826+985610713+986189505+986690503+986668723+986475036+986546940
2712+986683693+986423562+985985695+985642861+985375613+985409664+985587461
2698+985505556+985384816+985548073+985626849+985482611+985404326+985388988
2683+985375245+985170269+984828970+984844860+985262113+985678507+986135209
2669+986719032+986877074+986653876+986854312+987399729+987679125+987765385
2655+987949195+988305894+988641058+988741184+988897079+989019414+988738362
2641+988426511+988119016+987228374+986109871+985667893+985939129+986679092
2626+987939256+989242918+989515074+988835481+988529950+988863765+989107024
2612+989052360+989110153+989609065+990357495+990882481+990801865+990392342
2598+990265160+990686892+991356362+991279549+990401177+989917235+990106627
2583+990482223+990878616+990960275+990945857+991478206+991869998+991906441
2569+992394126+993313113+994164245+994315845+993841474+993494775+993775889
2555+994675857+995418703+995224648+994163632+993386121+993551035+993834112
2541+993892334+994038720+994071297+993712451+993085621+992547260+992376947
2526+992871319+993670793+993798528+993224951+992595850+992532044+993175317
2512+993907918+994265659+994221302+994042462+994060070+994463089+995213298
2498+995721842+995775525+996016024+996598558+997069187+997273856+997627426
2484+998128424+997682949+996236276+995235016+995247041+995885590+996502604
2469+996701384+996849180+996995381+996919366+996683837+996321371+995583740
2455+994592725+994427935+994958934+995130289+995133541+995155075+994940774
2441+994725613+994862980+995440115+996179158+996325114+995706872+995264833
2426+994981879+994158171+993356120+992779230+992075649+991560417+991486059
2412+992006874+992914450+993492444+993499622+993242743+993451952+994552540
2398+995267717+994860342+994364620+994080684+993868469+993506739+992137430
2384+989844349+987509058+985065971+982512575+980589996+979115715+977772726
2369+976670727+975327002+974245187+973635965+972800907+972848086+973266812
2355+972909683+973730078+976467653+978630668+978088503+975245159+973166624
2341+973647499+975499584+977224549+977802911+976961411+975503511+974483171
2327+974093158+973921986+974235678+975591489+977514190+978954667+979646714
2312+980504043+982118574+983848508+985324630+986601175+987400342+988186012
2298+989639250+991257463+992028101+992100435+992715057+993974300+994783468
2284+995083294+995096484+994190320+993447289+993658094+993570545+993787055
2269+994719723+995012432+994887766+994967830+994700336+993577661+991320041
2255+988904870+987772625+986895357+984342083+980628771+978103228+978426183
2241+980599935+981943538+983094250+986037230+988982357+989854533+989974476
2227+991195559+992180499+991805824+991473482+991689685+991963130+991926258
2212+991857114+992769782+995237102+998447944+1000996248+1002206165+1001155088
2198+998408433+997155509+997712398+997333429+997480980+999737250+999806332
2184+997194897+996288302+997026609+996893721+996714022+998164928+1000514883
2170+1002526605+1002602129+1001043244+999823142+1000003394+1000841274
2157+1000321502+999489573+998294687+995821968+994757823+997426131+1000869864
2143+1001043918+998803232+997456562+997659636+999303739+1002387766+1003403566
2129+1001780937+1000789125+1000179166+999298033+999352452+999853389+1000462795
2115+1002015791+1003034904+1001451171+999009128+998491688+999006919+999139623
2100+999762220+1001238219+1002530470+1002671150+1002554213+1003025579
2088+1002843119+1002407276+1003558541+1005198349+1005706464+1005428725
2076+1005117856+1005497316+1005747508+1004471638+1001911616+999981920
2064+1000535252+1002231319+1003683944+1005136691+1005519709+1005206938
2051+1005402589+1005058345+1004541641+1005273628+1005345839+1003037665
2039+1001458533+1004754654+1010394164+1011662303+1008587417+1005736956
2027+1004837049+1004124940+1000809555+997740129+998880044+1001161898+1001761488
2013+1001881799+1002070517+1003537068+1006581155+1006897853+1002847168
2000+997730865+994803346+996127316+999756760+1002141378+1003930516+1005430811
1986+1003877202+999947379+998390335+999767312+999692586+998589053+999498101
1972+1001421231+1004547714+1007373942+1006316729+1003839348+1003849777
1960+1005299641+1005372404+1004087638+1003160246+1001889406+999677739+999260547
1945+1002265370+1005242829+1003918184+1000408806+998636294+998682369+998946120
1931+998423342+997451040+996722550+996471315+995500547+993197220+991046536
1917+988887446+986714860+985670224+984650191+982984124+982292568+983476410
1902+985860537+988018706+989369548+990617871+992224059+994417873+996285051
1888+995603863+993627295+993216239+994395725+995848963+997073482+998762126
1874+1000905018+1003624371+1006891043+1007307314+1004322615+1002740968
1862+1003245218+1003413567+1003198161+1003156074+1002630228+1001805907
1849+1002257823+1005026871+1009035162+1009517939+1006046168+1004393537
1837+1004876866+1004549248+1003939167+1004348444+1002477033+998665068+997017897
1823+996393582+996271983+997735835+999302082+999867929+1000688201+1001623017
1809+1001033795+999544790+999238583+1000446292+1001025452+999499083+998207506
1794+1000015541+1001872841+997728043+991555755+988462770+987662744+987772747
1780+987075976+984813755+984523316+988056867+990010121+984611969+976081198
1766+968941026+964800890+961569312+957251317+953060198+948500785+945132822
1752+944951834+944659309+940351070+934740334+931317522+929878825+927946798
1737+928093061+935688586+944759681+944700047+941231712+939149436+940057195
1723+943426386+949680762+961115309+972388562+973860512+971943578+973991682
1709+981000194+990671922+998288123+1004647104+1013037931+1016902598+1014834493
1694+1009131607+1003799714+1003160491+1005906839+1013060018+1020921871
1682+1015082784+1004946562+1001489516+1003722902+1006222064+1008535636
1670+1011717090+1009315478+1004969937+1005357925+1005758797+1002911526
1658+1003149816+1011599663+1025573312+1025466007+1020564436+1022363022
1646+1018165584+1008667481+1005406209+1009649845+1019302615+1024269526
1633+1016360678+1009904945+1010470056+1013308738+1015635624+1016449638
1621+1014535649+1015465189+1019095430+1015930173+1009286459+1004492989
1609+998253398+989639680+982342692+976317586+966271797+948200039+926509021
1595+914718144+921060376+936599229+948400720+953994033+959202608+967275388
1580+976035001+984695591+989212672+982912465+976483420+975876161+976840671
1566+979753650+986757806+998556352+1018569278+1028709120+1018470134+1010651043
1552+1007520388+1006104146+1004898523+1006194087+1012708779+1023498765
1539+1025697610+1015998949+1012425457+1014506139+1013824399+1013933728
1527+1018634188+1025073786+1032239726+1036077889+1033790329+1030177205
1515+1025365145+1021709443+1023187712+1029754982+1023114703+976900673+923263393
1501+875113656+834285323+824786362+856193894+897797528+934530818+957401629
1486+959021743+946679376+926977810+909338520+905960556+918466978+939061457
1472+956777682+963987121+968564817+975841927+978785397+972495989+955171249
1458+898658783+810143857+783423595+807460702+840650808+867330026+882271252
1444+882954158+867891210+840415340+811456354+798719127+813638696+847434466
1429+883908975+906094671+913255949+909778473+898551111+876858989+847724107
1415+829850454+828170951+838177598+854464144+873336174+892022185+905636926
1401+912843665+915334483+915672040+917610263+922026666+929082725+937968906
1387+944122237+944665690+943133677+942625132+943584980+945718117+947213258
1372+945850637+943589397+941334170+938530213+936854084+931895333+919273447
1358+909010472+911457055+923918446+937347597+947849291+954193732+956056493
1344+957142725+959951958+960030488+953823291+947022700+944825757+945685478
1329+946871897+948768340+952979275+958590625+962268905+962271973+961034263
1315+962137797+965116299+966923229+964895494+956494851+943749096+935128874
1301+935934729+943530438+953349288+962746221+970772619+976655205+978451460
1287+973754742+963761101+955934342+956463009+962798002+969046612+973115580
1272+975605661+977287496+978838835+980852889+983362787+985293770+985421934
1258+983457698+979392104+972648755+961758582+944634033+919202156+883767682
1244+839956061+798501819+776062556+779297693+799371602+824276222+847662878
1230+867395366+882356347+891543458+892414652+877684905+840059930+785867479
1215+740234940+729630298+753744462+786436577+806646749+814672717+825731607
1201+849700675+878475177+900497923+913639029+920963993+924095507+921662482
1187+912959191+901977113+895005044+895329288+902033618+910179222+913841674
1172+912612738+911349076+913480067+917285651+916880117+906686592+888549249
1158+877345815+887590813+912715747+936566836+954230175+967563066+977163013
1144+983586230+987624951+989425562+988991192+986405463+981317444+971458470
1130+955526230+942301502+942491140+948311024+937957801+901991101+864561346
1115+857347368+871341078+878070440+876953716+881596936+893893290+911497548
1101+931040029+942940726+936369160+911163303+888979141+893379898+919938070
1087+948393849+967729023+976785823+975349334+963064514+946713610+939677674
1073+947600756+964177863+980757793+993072307+1001037967+1005781252+1008901170
1058+1011794087+1014443253+1016179507+1017493415+1018810390+1019423662
1046+1017835266+1009651747+987842136+951835066+919247556+910757155+921371491
1032+930575658+935445817+949720457+973797872+993798896+1004822693+1010503002
1017+1012749210+1012467729+1012903448+1016871370+1021914419+1024437323
1005+1020716649+1011612793+1008709078+1015878945+1023003043+1025110965
993+1023889882+1019609128+1010414839+991555325+949680701+877567540+819562571
979+831501858+891718494+944537465+973753883+988048707+995769881+999824124
964+999399754+992880522+979350508+961061442+944400344+930743148+917868615
950+915758239+932681678+956167846+971347792+977744811+980998292+984402637
936+988924196+994220505+997542638+996230632+990497929+981198053+969132014
922+954423679+935317470+908430637+869161865+815371452+753744033+701138198
907+676261186+685190927+715588365+747208911+769349207+790521251+822355178
893+860391087+894127162+920901537+942045297+957781519+968601751+976299733
879+981595428+983967346+986156989+992020064+999612645+1004362125+1005730330
865+1005357495+1003679465+1000975082+997047653+989613053+974324515+944415559
850+888954416+803504069+710814834+647827187+632640247+658965098+705370116
836+747882798+773637998+783593416+788959973+803532107+829239330+856000943
822+877504163+894986147+910314319+922786997+931770175+938509660+943219262
807+943751795+938330206+925431195+898945541+858817109+826930297+824958821
793+843067329+855691424+856762747+863188847+885132573+911705775+932582165
779+948092551+959712564+969009801+978348082+987663541+994939240+999167906
765+1001608845+1002903979+1001680688+997556749+991331453+984489204+978256546
750+970516353+956164779+931304393+893514259+840656882+771873277+686281821
736+588488125+496856839+433843332+406455778+403399819+405171165+391294667
722+363813245+355633805+385149435+433559703+468913408+470381278+462092325
708+490768541+556247866+619689700+649926642+631586593+578577432+542816076
693+564010022+628362806+699037209+749528128+772009662+781086954+796349417
679+816357190+826147511+816122949+789370109+766959804+780480063+832843436
665+869032045+888323598+901884963+909543250+910690773+900697500+872533264
650+823136676+757068620+694389020+665067445+681501787+728609160+785085306
636+837177075+872091471+887704682+900771184+919452839+935963810+946059539
622+949550329+950957921+959698207+974694650+987607650+995195322+997164159
608+991243106+968442973+917286817+851351404+812928488+818449896+843142055
593+867716174+892155687+917171169+937697916+946610907+932923710+874889170
579+778817309+718200046+743576828+813867353+876484866+918336422+944125304
565+960674129+973138525+983795562+993294217+1002265492+1008323789+1010325020
551+1011055474+1011645677+1012155326+1011171735+1007648798+1006864539
538+1010988723+1016259448+1020058775+1018834624+1011061241+998671632+977997580
524+937050226+865449842+775989793+721122779+740606118+805430451+868690071
510+912317329+935614350+939883693+921968627+866116060+769502648+678492609
495+656035799+713797386+801252216+869271624+910587088+938356035+956769461
481+965212621+963797667+946966624+911697922+869702865+851872955+870732285
467+899500344+913932290+917335592+920683247+927590468+940440766+956627555
453+975020489+995045378+1007958256+1010337843+1012060353+1019192366+1026371190
438+1032842200+1041661998+1047739989+1045629613+1040662088+1040979522
426+1046361294+1050934081+1056359167+1065404372+1066139120+1059287607
414+1059291656+1067266519+1073741823+1069698623+1058003638+1049570233
402+1053263606+1062411145
##END=
