##TITLE=X8402
##JCAMP-DX=4.24
##DATA TYPE=INFRARED SPECTRUM
##DATE=31/10/2018
##SAMPLING PROCEDURE=Diamant-ATR
##ORIGIN=ComPlat
##XUNITS=1/CM
##YUNITS=TRANSMITTANCE
##RESOLUTION=4
##FIRSTX=3997.453
##LASTX=373.96442
##DELTAX=-1.4165319
##MAXY=0.97623676
##MINY=0.53719622
##XFACTOR=1
##YFACTOR=9.0919133e-010
##NPOINTS=2559
##FIRSTY=0.8863368
##XYDATA=(X++(Y..Y))
3997+974862793+974042402+973827897+974315450+975076249+975456813+975130662
3988+974436864+974004247+974052039+974283852+974403101+974403232+974319253
3978+974112287+973924135+974051056+974492194+974914322+975187763+975509980
3968+975916374+976097182+975789716+975083985+974353343+974022800+974254940
3958+974794810+975231884+975416626+975495426+975607465+975788536+976084071
3948+976393569+976343549+975814300+975378537+975669155+976388718+976662356
3938+976149694+975158262+974162569+973621717+973852546+974618524+975194647
3928+975156361+974706569+974282147+974106255+974079311+974064888+974132872
3918+974502618+975300785+976285661+976982148+977174232+976999062+976525144
3908+975576915+974194889+972966073+972588525+973165893+974369405+975915980
3898+977243068+977575512+976735191+975409677+974742625+975237784+975823019
3888+975526435+975136956+975876514+977196588+977706628+977790738+978446055
3878+978962716+978249578+976729684+975404760+974649402+974559457+975417544
3869+976631610+977006601+976594635+976386686+976742075+976940125+976316735
3859+974849681+972905104+971333026+971849753+975411512+978843598+979537069
3849+978527347+977198685+976220824+975819610+975957216+976426545+977084418
3839+977880291+978499681+978492667+977964860+977513953+977529228+977758615
3829+977728065+977388672+976855097+976032411+975263286+975677612+977365661
3819+978442908+978558618+979358358+981044769+981815992+980902639+979109697
3809+977688665+977639628+978386004+978046283+976539894+975897624+976957432
3799+977879438+977905793+978177530+979077967+979841126+980150822+980369523
3789+980680726+980859306+980604548+979798776+978651776+977706628+977580101
3779+978368303+979124644+978777843+977459802+976166083+975830296+976796357
3769+978453725+979623474+979844994+979480165+978820784+978064049+977803588
3759+978660495+980123943+980676661+979526252+977214616+975399843+976176573
3750+979001527+980577603+980168981+979828277+981018873+982038233+981028969
3740+978455167+975551347+973758012+974419753+977174691+979895539+981377475
3730+981888892+981887974+981644951+981462176+981495872+981470436+981085349
3720+980534466+980232376+980181241+980017936+979706929+979895867+981139893
3710+982582560+982835089+981679762+979736955+977977382+977446494+978368238
3700+979686279+980489756+980837344+980910244+980584094+979792876+978976549
3690+979244025+981231609+983355946+983695863+982281190+980270661+978701272
3680+977755731+976829791+975721077+975496541+976679402+977627237+977747864
3670+978410588+980250732+981854540+982239561+981800258+981147367+980591567
3660+980166556+979951001+980302982+981077941+980939090+979082097+976626103
3650+975852586+978121412+981342467+982928967+983063886+982753600+982604784
3640+982802965+983075883+982934933+982301513+981623055+981100034+980417642
3631+979837848+980695280+982953421+984187285+983700846+982639529+981905085
3621+981965726+983034581+984357211+984668742+983909123+982948635+982293908
3611+981950320+982227105+983453758+984876233+985304916+984682706+983937444
3601+983797740+983997888+983765617+982990657+982446855+982780807+983537934
3591+983820948+983567370+983620931+984475281+985373489+985619462+985379914
3581+985038816+984863121+984978569+985237457+985370539+985365557+985341956
3571+985184093+984746559+984299127+984370126+984972603+985588453+985932829
3561+986010843+985865829+985558887+985192877+984957525+985157542+985930862
3551+986842969+987186492+986803372+986286514+986334436+986902430+987275257
3541+987053278+986571756+986354104+986443000+986469027+986309918+986246458
3531+986470928+986914165+987509889+988202180+988731888+988834420+988634403
3521+988542229+988828389+989450926+990132466+990519978+990449176+990089394
3512+989764096+989644060+989636652+989588860+989580731+989858106+990382307
3502+990688724+990512570+990219396+990264696+990557412+990650176+990446423
3492+990337465+990606908+991070927+991410451+991555727+991561955+991448933
3482+991371772+991569429+991978182+992311216+992553977+992899729+993240237
3472+993253217+993014783+993000885+993419078+993972911+994365669+994629146
3462+994817100+994786288+994520188+994305224+994348951+994503799+994488983
3452+994098651+993223650+992028793+991006287+990503786+990389781+990478677
3442+990846588+991489383+992154074+992642677+992951389+993173499+993504500
3432+994138379+995004137+995789323+996288481+996581000+996877322+997271980
3422+997662311+997912611+998054479+998229387+998473918+998652956+998611720
3412+998387709+998211227+998180809+998072441+997654576+997067964+996723129
3403+996912592+997596164+998465330+999148180+999394744+999190269+998811344
3393+998696683+999057252+999657696+1000122895+1000322191+1000379292+1000509949
3383+1000860355+1001295201+1001399831+1000868091+999873250+998973403+998651383
3373+998933413+999475183+1000014790+1000566197+1001135043+1001552581+1001734373
3363+1001835725+1001994506+1002142471+1002165285+1002081698+1001970381
3354+1001817435+1001523801+1001052440+1000553020+1000353134+1000754348
3346+1001717066+1002789264+1003471656+1003621653+1003471656+1003366305
3337+1003481162+1003629782+1003409442+1002734065+1002082354+1002000734
3329+1002524214+1003257413+1003827177+1004071052+1003935150+1003411474
3320+1002631336+1001982837+1001944158+1002574366+1003321135+1003641910
3312+1003637780+1003715794+1003884343+1003851499+1003598642+1003372205
3303+1003277671+1003274196+1003441172+1003889260+1004453189+1004742364
3295+1004557491+1004099832+1003722940+1003605132+1003695864+1003838453
3286+1003892079+1003838190+1003766601+1003664528+1003378433+1002954995
3278+1002792542+1003183792+1003860677+1004249566+1004090195+1003574451
3269+1002979448+1002444037+1002093695+1002087009+1002424632+1002896255
3261+1003286390+1003499715+1003518137+1003382629+1003177826+1002947980
3252+1002719642+1002604653+1002698598+1002875145+1002877309+1002639530
3244+1002388509+1002395393+1002742259+1003322381+1003903289+1004183615
3235+1004023654+1003705239+1003730282+1004241371+1004829819+1004995156
3227+1004591057+1003774403+1002785331+1001904168+1001406125+1001365282
3218+1001558219+1001668225+1001570019+1001376951+1001222366+1001022152
3210+1000514603+999586041+998484538+997623304+997217567+997134308+997019844
3200+996561333+995739958+994882330+994427162+994579453+995164688+995823282
3190+996346041+996781541+997242610+997725640+998124691+998293634+998144752
3180+997799131+997568760+997663885+997981382+998262625+998374729+998373680
3170+998382465+998474246+998644237+998817179+998864118+998694848+998383514
3160+998145014+998141146+998297829+998309630+997919757+997276897+996900267
3150+997158827+997883307+998597822+999025522+999265595+999555229+999911077
3140+1000009742+999510060+998525053+997641267+997393131+997774743+998267411
3131+998320644+997811652+997046067+996361971+995839278+995362804+994754296
3121+993808099+992417092+990709244+988889685+986967004+984827589+982607472
3111+980817742+979935923+979869644+979993221+979783698+979210919+978430583
3101+977435218+976217546+975059598+974479280+974949264+976579754+978907582
3091+981096887+982579478+983499976+984369536+985352183+986120456+986287628
3081+985617364+983878770+980898116+976864340+972433087+968459559+965550691
3071+963812162+963095484+963351356+964473838+966028412+967569415+969061905
3061+970662894+972288926+973614047+974320236+974334856+973983334+973798527
3051+974046335+974540838+974914977+974866333+974128217+972428564+969692900
3041+966302181+962993672+960425771+958983825+958975696+960653978+963868083
3031+967937194+972025973+975535482+978193264+980047896+981345417+982152107
3021+982235955+981554743+980592747+979865448+979331545+978636238+977755141
3012+977066521+976866766+977103495+977590197+978236073+978978581+979663661
3002+980137579+980428131+980751856+981317293+982121163+982958731+983659151
2992+984262939+984934645+985743498+986549270+987128801+987448920+987716396
2982+988074932+988420357+988627651+988748539+988854284+988883130+988743950
2972+988433927+987980267+987333145+986381900+985077561+983425699+981274680
2962+978246038+973976778+968377940+961777902+955111715+949867807+947423810
2952+948242497+951716932+956675730+961978968+966861783+971024183+974545231
2942+977633006+980366048+982665818+984453647+985741728+986641772+987309413
2932+987782413+987968991+987959747+988137868+988737394+989521729+990106898
2922+990389191+990510145+990577604+990588159+990587175+990743465+991106328
2912+991423759+991460209+991351973+991320964+991186702+990534991+989324662
2902+988031271+987143683+986690809+986361774+985963182+985594419+985418790
2893+985464877+985720618+986286317+987293417+988649547+990011708+991116031
2883+991995358+992769662+993423930+993910238+994258809+994523204+994788976
2873+995201007+995810171+996457161+996892465+996935668+996563758+995996486
2863+995608318+995587864+995732681+995678203+995250241+994519336+993597724
2853+992489337+991125209+989486065+987706694+986094888+984999678+984587057
2843+984765833+985371588+986353710+987724919+989378682+991020513+992321574
2833+993168451+993686161+993931610+993698552+992806309+991462963+990120272
2823+989056006+988289962+987787133+987560369+987645332+988080374+988831536
2813+989708503+990455076+990947481+991266027+991612500+992161351+992894222
2803+993577794+993991989+994174895+994368160+994736726+995214512+995633427
2793+995913490+996078499+996194012+996360726+996672060+997098186+997483338
2783+997667556+997578332+997305546+997133718+997314199+997767270+998194576
2774+998468477+998672558+998841239+998931512+999001724+999167389+999434734
2764+999741348+1000039899+1000185896+999948314+999349246+998773976+998523742
2754+998458249+998263280+997883045+997552961+997532310+997846922+998255151
2744+998515219+998659315+998875984+999218524+999590303+999922681+1000239391
2734+1000572425+1000865534+1001013302+1001041295+1001114917+1001270485
2725+1001330536+1001190636+1000983670+1000871828+1000874188+1000933846
2717+1001015924+1001113015+1001204665+1001227348+1001150121+1001101608
2708+1001297102+1001772331+1002332785+1002834368+1003341655+1003924071
2700+1004497768+1004990894+1005450586+1005839541+1005955054+1005737467
2691+1005457535+1005400500+1005511620+1005518635+1005310554+1005039014
2683+1004874726+1004810872+1004757967+1004720206+1004773308+1004919174
2674+1005034884+1004964474+1004666645+1004277231+1003955604+1003669903
2666+1003232173+1002521067+1001528062+1000236179+998650924+996934619+995313766
2656+993869330+992618814+991745058+991484400+991792981+992370218+993029009
2646+993810393+994746297+995727502+996658686+997565482+998463691+999276412
2636+999981290+1000689446+1001443034+1002105824+1002602752+1003061526
2628+1003555898+1003910697+1003924923+1003657054+1003381514+1003313334
2619+1003417964+1003491783+1003421898+1003320939+1003405574+1003781679
2611+1004323384+1004748199+1004889673+1004911045+1005165999+1005817841
2602+1006644264+1007256443+1007495533+1007531917+1007589215+1007754945
2594+1008084767+1008639190+1009324073+1009887215+1010099360+1009800154
2585+1008916106+1007698041+1006779247+1006622695+1006976183+1007198097
2577+1007043839+1006762661+1006488039+1005991963+1005141415+1004256908
2568+1003807968+1003853465+1003990416+1003879295+1003599232+1003396199
2560+1003382039+1003609524+1004084557+1004608233+1004956476+1005158591
2551+1005307932+1005315209+1005087789+1004654124+1004017819+1003206999
2543+1002407652+1001785705+1001368232+1001250359+1001567594+1002185083
2534+1002780283+1003223389+1003564027+1003799249+1003998283+1004445191
2526+1005296525+1006263897+1006926163+1007222943+1007454297+1007928805
2517+1008682720+1009396449+1009622689+1009248878+1008595856+1007989052
2509+1007537555+1007366515+1007561287+1007813750+1007686568+1007287059
2500+1007116805+1007271194+1007388477+1007374447+1007580233+1008197067
2492+1008943444+1009482198+1009849453+1010315045+1010973509+1011663571
2483+1012201735+1012440694+1012130212+1011054604+1009365636+1007540571
2475+1006020546+1005019871+1004504258+1004222949+1003986154+1003976583
2466+1004509306+1005499754+1006507969+1007300432+1008005311+1008699634
2458+1009216099+1009501538+1009829917+1010401057+1010960266+1011126062
2449+1010937452+1010777163+1010898379+1011333093+1012096253+1013099157
2441+1013964914+1014302865+1014119631+1013732970+1013405050+1013232043
2432+1013203853+1013240762+1013295765+1013431601+1013699208+1014015525
2424+1014218951+1014156015+1013770797+1013190676+1012658936+1012371465
2415+1012421289+1012742915+1013038385+1012968959+1012462852+1011681534
2407+1010805549+1010046455+1009670153+1009764949+1010109063+1010418561
2398+1010639557+1010873271+1011103510+1011165790+1010958299+1010542334
2390+1010078906+1009775832+1009774652+1009979455+1010125190+1010014266
2381+1009545265+1008646729+1007413323+1006142353+1005017839+1003964127
2373+1003014783+1002554961+1002867409+1003532363+1003631683+1002778185
2364+1001664357+1001212532+1001503216+1001952549+1002150206+1002158926
2356+1002360450+1003226994+1004887247+1006770463+1007968139+1007947685
2347+1006848214+1005392895+1004376748+1003909058+1003636075+1003585596
2339+1004017163+1004872431+1005786636+1006292415+1006040214+1005203630
2330+1004546281+1004665334+1005290756+1005680104+1005502049+1005098147
2322+1004991615+1005371851+1006183457+1007428401+1009063283+1010742220
2313+1011908429+1012232351+1011919902+1011464799+1011168740+1011078270
2305+1011239411+1011637741+1011994703+1012059540+1012074815+1012560009
2296+1013647286+1014923960+1015914277+1016554581+1017186755+1018075065
2288+1018965996+1019379404+1019343609+1019409167+1019845651+1020309998
2279+1020463010+1020495723+1020866453+1021722967+1022629763+1022877375
2271+1022259361+1021508723+1021677207+1023085456+1025076120+1026699530
2262+1027387297+1027044233+1025914343+1024540644+1023568552+1023374566
2254+1023941117+1024978767+1025985342+1026442805+1026255834+1025774836
2245+1025297771+1024880627+1024548183+1024261433+1023905126+1023647483
2237+1023908666+1024687887+1025383128+1025512277+1025184291+1024665925
2228+1023940789+1023072410+1022619143+1023086111+1024137201+1024966180
2220+1025289118+1025370868+1025251947+1024618395+1023532364+1022810047
2211+1023240959+1024515273+1025436164+1025278629+1024421591+1023725825
2203+1023904798+1025158133+1026803832+1027734688+1027555257+1026679469
2194+1025476613+1024246158+1023699143+1024436013+1026126488+1027931493
2186+1029527893+1031014811+1031970710+1031573364+1029770129+1027329606
2177+1024939563+1023293930+1023268690+1024699753+1026034642+1026273076
2169+1026038903+1026207059+1026888205+1027971090+1029195121+1029591746
2160+1028227487+1025693413+1023750475+1023332347+1024104356+1025651718
2152+1027685913+1029448568+1030308097+1030885924+1032299221+1034393729
2143+1035879336+1035901756+1034566277+1032507760+1030717047+1030079693
2135+1030431542+1030670042+1030170360+1029370292+1028814361+1028502568
2126+1028388890+1028712353+1029495573+1030268697+1030522996+1030170425
2118+1029661500+1029733417+1030598977+1031412354+1031220007+1030283775
2109+1029672513+1029843751+1030378113+1030787194+1030894643+1030651358
2101+1030068352+1029347674+1028929808+1029315158+1030626184+1032299221
2092+1033523645+1034078592+1034331056+1034363376+1033861727+1033114695
2084+1033030584+1033683278+1034070529+1033828817+1033834520+1034589616
2075+1035318816+1035134008+1034170111+1033258004+1032914612+1032862690
2067+1032655265+1032620913+1033516827+1035205729+1036584411+1036957697
2058+1036766006+1036756893+1036836874+1036203585+1034727943+1033597004
2050+1033948394+1035271483+1036088072+1036034052+1035930536+1036115278
2041+1036118163+1035848982+1036075485+1037501565+1039750266+1041332701
2033+1040731798+1037943556+1034879972+1033893195+1035805518+1039261204
2024+1041766694+1041757123+1040229494+1039762656+1041287007+1042793331
2016+1042232614+1040408729+1039359541+1039410348+1039504686+1039449420
2007+1040193896+1041928557+1043398102+1043628407+1043171665+1043209230
1999+1044174766+1045616908+1046901318+1047562534+1047150175+1045507230
1990+1043489096+1042515169+1042983121+1043914698+1044448273+1044889347
1982+1045803158+1046871095+1047108087+1045746319+1042929953+1039969884
1973+1038559407+1039148248+1040415940+1041011140+1041264193+1042158796
1965+1043256628+1043267314+1041989984+1040308360+1038907454+1037948735
1956+1037456724+1037315840+1037220256+1037065671+1037278013+1038480082
1948+1040645852+1042898813+1044490558+1045471107+1046099020+1046378166
1939+1046395867+1046247116+1045757398+1044922716+1044277298+1044399039
1931+1045331600+1046549665+1047328624+1047389330+1047131754+1046977103
1922+1046821468+1046475716+1046093645+1045760021+1045157478+1044035718
1914+1042666542+1041560449+1040931094+1040617596+1040574328+1041013893
1905+1041810618+1042353634+1042334163+1042269392+1042813195+1043801152
1897+1044486559+1044603252+1044618003+1044886266+1045268796+1045615597
1888+1045986130+1046438676+1047037285+1047890258+1048937021+1049893117
1880+1050437968+1050412138+1050006597+1049667991+1049594369+1049543169
1871+1049265597+1048831997+1048437404+1048072902+1047578989+1046921313
1863+1046271307+1045904248+1045976165+1046365185+1046786132+1047091370
1854+1047419225+1047993840+1048843994+1049801335+1050681450+1051447756
1846+1052248938+1053173894+1053978814+1054453781+1054746431+1054979883
1837+1055018627+1054712275+1054147167+1053579501+1053314385+1053578255
1829+1054215150+1054730697+1054779669+1054331384+1053587171+1052803099
1820+1052116446+1051541635+1050970691+1050241622+1049366818+1048570945
1812+1048033502+1047742425+1047590396+1047453446+1047200065+1046805800
1803+1046468570+1046542388+1047274735+1048491096+1049681168+1050426102
1795+1050600420+1050396208+1050282334+1050482088+1050611434+1050342450
1786+1049815693+1049373833+1049170734+1049113502+1049086034+1049046174
1778+1048917550+1048542034+1047900551+1047336294+1047250282+1047486618
1769+1047690110+1047814211+1047736000+1047216848+1046283041+1045314489
1761+1044800319+1044898984+1045381227+1045890219+1046039101+1045494774
1752+1044075642+1041766432+1038657875+1034766098+1029749347+1022758584
1744+1012390345+995642015+967646183+928200867+886807432+850719203+815429469
1734+774177247+733825593+705109804+689734518+688064759+699595601+721270802
1724+748788979+776510648+800530329+822540793+847387880+875410197+899715973
1714+917099887+930226736+941430641+951462568+960721896+969771766+978282488
1704+984936808+989956771+995709933+1003422619+1010441572+1015010955+1017984201
1694+1019016213+1017656543+1015506442+1015160231+1017869344+1022604195
1686+1028307140+1034629541+1039880398+1042868198+1044509898+1045695971
1677+1046904596+1048516926+1050528831+1052472622+1054086329+1055468158
1669+1056686813+1057655955+1058385220+1059058696+1059923339+1061133210
1660+1062601575+1064031064+1065110343+1065821646+1066657050+1068137084
1652+1069442014+1069889577+1069964248+1070189308+1070819188+1071516592
1643+1071921937+1072094354+1072128509+1072048267+1072050889+1072483571
1635+1073233094+1073729301+1073741823+1073256891+1072273327+1070680139
1626+1067757045+1061135897+1046139339+1019549199+984102453+945336579+912649229
1616+902690203+919779041+947372675+973094960+993594315+1008272983+1017995346
1606+1024298145+1027957585+1029005790+1027310005+1022903139+1016086563
1598+1007081731+995635918+981186833+963476506+943028614+920968457+898116230
1588+874049413+847698035+819477208+792577832+771700798+759874159+756857055
1578+761631437+773875484+789117557+800402754+808017890+816706208+829073831
1568+842552135+854210553+864593018+873929835+881245962+887808632+899080652
1558+916370228+928871851+935208085+939938085+944064297+946977623+948390330
1548+948383905+947576756+947085728+947732915+949749869+953617914+958767484
1538+961825103+962031479+961562413+962589246+965810956+969286047+971129272
1528+971073221+968846285+963760437+954032567+933846776+896450077+845114071
1519+787350510+726488225+673638947+644437703+641791328+657845336+684928667
1509+722861826+775658658+824649593+847291641+854006406+858567660+867379359
1499+882537976+901956610+919448432+930561343+936753677+941856964+947890254
1489+951485513+946509343+933070374+917871635+909295485+912852983+926885120
1479+944307189+959679001+971521505+979224686+980049207+971194896+956440836
1469+943560485+938322083+943976318+958144029+971295658+976705821+973849137
1459+960569408+933440907+905711175+898058080+907435019+922112507+933985365
1449+938068833+930674496+909015619+873460047+829576201+788452734+762112501
1439+757058580+775437072+813610304+855553572+888066340+911392747+927971480
1429+938121017+944118054+950143150+958240399+967106380+974412410+980057336
1419+986399208+995021837+1004548510+1013713041+1022661427+1031314410+1038989598
1409+1044978702+1048976945+1051227416+1052206981+1052183249+1051307462
1401+1049830378+1048077360+1046484566+1045439574+1044907113+1044393729
1392+1043236502+1040683023+1035400108+1025064975+1008198313+987986167+971671502
1383+965699311+972225334+987562139+1004556770+1018002033+1026921443+1032623404
1373+1036419598+1039160245+1041509249+1043714550+1045511819+1046648002
1364+1047104482+1046672193+1044715094+1040474877+1033196183+1021754828
1356+1004493507+980051174+948774630+913026711+876210331+841372684+809906809
1346+781675952+756511434+735087319+719067861+711361665+714661520+728123894
1336+747311633+767327171+784334389+795742835+800787185+801102256+800179857
1326+801520646+806607216+814077076+820494929+821984928+815924365+802261647
1316+783404123+762636112+742908176+726496420+714736977+707908601+705418844
1306+706033908+708193450+710519377+712256005+713326303+714070975+715003601
1296+716653889+719401747+723441358+728867582+735622796+743389961+751640287
1286+759740093+767109060+773454996+778819727+783350431+787112797+790065261
1276+792009445+792463761+790596411+785458248+776646811+764910445+752036060
1266+740158941+731018995+725402062+723165818+723942679+727694817+734506673
1256+744085989+755578480+767724582+779111525+788279072+793686416+793765741
1247+787090639+772638079+750244757+721082454+687794071+654263647+625011792
1237+603979845+592986709+590850571+594091686+599218967+605011988+612592838
1227+623308140+636870489+651375299+664520897+674852358+682482572+688941858
1217+696085698+704840034+714850917+725194703+735264457+744974495+754386048
1207+763450275+772073822+780180708+787648995+794346387+800268032+805480079
1197+809822895+812762182+813663733+812278561+809071995+805184020+801997383
1187+800580612+801368028+804200324+808591914+813870109+818914132+822155641
1177+822804663+822086936+822024459+822824200+822983309+822288526+822978654
1167+827191730+834445905+842351594+849090680+854576366+859558895+864341407
1157+868642790+872278564+875435175+878333291+880986025+883329391+885393743
1147+887246932+888733654+889329575+888373282+885358014+879759831+870586384
1137+856458991+836604660+812079724+786152833+763562117+749192488+746568010
1128+756430797+776276672+801523400+827564886+851287066+871430114+888068307
1118+901761838+912974134+922037837+929361634+935433538+940662106+945362933
1108+949883738+954568569+959551950+964715877+969861056+974795203+979344198
1098+983458872+987205373+990530796+993168779+994773832+994987878+993630568
1088+991200076+988841369+987183476+985313569+981452276+974614132+965036128
1078+952753533+936222527+912990786+882021577+845371583+807608743+773625577
1068+746807886+728709129+719612647+718884168+725025760+735915512+749294037
1058+763280415+776750065+789318950+800894765+811283983+820227125+827663485
1048+833889647+839539882+845366862+851922321+859419781+867857865+876976047
1038+885756605+892239623+894817489+894285881+893955535+896987193+903969892
1028+913465621+924052365+935052581+945921027+955842030+963901190+969348721
1018+971703691+970601204+965513913+955716552+940431867+918868180+890482410
1009+855808592+817218936+778781179+745308840+721172400+709019348+708662910
999+716957750+729107131+740739260+749669225+756444499+763158280+771344622
989+780946686+791096486+801174501+810848220+819717740+827414037+833850640
979+839214912+843868537+848256653+852642999+856746987+859757601+861002414
969+860601134+859113233+856642750+852969412+848672356+845346605+844312757
959+845603985+848491350+852472548+857362444+862832462+868404684+873789607
949+878873685+883488172+887487268+890955672+894089797+896934287+899386938
939+901423625+903237611+905107714+907108082+909025059+910631817+911927306
929+912923720+913162220+911576113+907096740+899734723+891248519+884562403
919+881975424+883446674+886434867+887157905+881847652+868045426+847090051
909+825872182+813756760+815717399+828720278+845124167+858507019+865735495
899+864971287+854181118+833459718+808712344+790651021+787813545+800435270
890+821725056+844236120+864119756+880666955+894210882+905171568+914078522
880+921543727+928007077+933662820+938668295+943233613+947451148+951307130
870+954938839+958609949+962397620+966172704+969878953+973591692+977304692
860+980761034+983494076+985134859+985731829+985399253+983401377+978197787
850+969033322+956913836+943153829+927322916+907285350+881210233+849967582
840+818004910+790074570+765489977+738605613+708382715+684594519+679960889
830+697481688+728726371+762633424+792679119+817202154+836821788+852566821
820+865187562+875244795+883248493+889374810+893379215+895180811+895451303
810+895519483+896712440+899558307+903356664+906159722+904212325+891675825
800+864746489+829634679+803645639+802422591+825898011+860130625+891147691
790+913427073+927801750+936945958+943524756+949476099+955461532+961195813
781+966283628+970664533+974491604+977654050+979024996+975634934+963017863
771+938559534+906363738+877533223+862769526+863938619+873180509+878207158
761+867774214+837502803+795332377+757515059+733677497+718224459+700424515
751+679238834+663656778+661785953+674280234+696480685+722904045+749576788
741+774134109+795264983+812824330+827847637+841411428+853718345+864649004
731+874407752+883205552+891014346+897943813+904360945+910506798+916338236
721+921787996+926865584+931463092+935360572+938413537+940443208+940914635
711+938878407+933208832+922633955+905015343+876596598+833827170+778400878
701+720431661+674337597+649920373+647575302+661680471+686206062+716597641
691+749042622+780325788+808356562+831874004+849754388+860757621+862660307
681+851752068+826544019+793877845+767967999+759872782+769019481+786061839
671+803025789+819473472+839572792+861593549+877731208+887679287+895337494
662+902327143+907030133+904931102+889915072+859122017+819407324+786482458
652+773723979+781736986+800588020+820238991+836394350+848368692+855622473
642+857535255+854844104+850207917+847251913+848837496+855722186+866394614
632+878238036+889142538+898218173+905271740+910181434+913137045+915051597
622+917223923+920523385+924764192+928964485+932521196+935667252+938501188
612+940667219+942327210+944227405+946548678+948705663+950325991+951684416
602+953169236+954730038+955941481+956499117+956455914+956115538+956048669
592+956837461+958323658+959653827+960300162+960174225+958702844+954523334
582+946526192+935912766+927268568+925739759+932105231+941811991+949637175
572+953602704+953593920+948879457+937997834+919581121+893412650+862417874
562+833722540+815946655+813956580+825905813+845295404+865738970+883953502
552+899402213+912689941+924454038+934767339+943126230+949166863+953377775
543+956903346+960574128+964296766+967579904+970546135+973933445+977894189
533+981343188+983111218+983525020+984145853+985944892+988341163+990293738
523+991638199+992738522+993813016+995122600+996922688+998611720+998354734
513+993440647+980678497+957836628+927077926+897393389+880292095+880944461
503+895071854+913401112+928664754+939460758+947895368+955761525+963121248
493+968897683+972460818+974611575+976535502+978449857+980136858+981878272
483+983832355+985387060+986205681+986922556+987990690+988731298+988363715
473+987360024+986675010+985446914+980763001+970400203+955954069+943129376
463+937851575+941667698+951145596+961365412+968314152+969726924+966961628
453+964509305+966562774+973713957+982883536+990456191+994874856+997371300
443+1000256698+1004037355+1007384805+1010036293+1013519055+1018565831
435+1023128986+1024601678+1023357980+1021845691+1021115638+1020361198
426+1019481674+1020007120+1023095420+1027602589+1030323306+1028325758
418+1024050730+1022833320+1024270414+1025599993+1026303626+1027174169
409+1027522740+1025519291+1021193587+1017362844+1017451675+1022783889
401+1031567005+1039013395+1038527939+1029451452+1020652865+1018035205
392+1019449354+1019960378+1017166826+1012860526+1010703935+1012575350
384+1015901035+1016018252+1011663046+1003665249+989526580+961250882+914558340
374+866735711
##END=
