##TITLE=YCW-1
##JCAMP-DX=5.0
##DATA TYPE=LINK
##BLOCKS=1


$$ === CHEMSPECTRA SPECTRUM ORIG ===
##TITLE=YCW-1
##JCAMP-DX=5.00
##DATA TYPE=INFRARED SPECTRUM
##DATA CLASS=XYDATA
##$CSCATEGORY=SPECTRUM
##ORIGIN=Lara
##OWNER=
##XUNITS=1/CM
##YUNITS=TRANSMITTANCE
##XFACTOR=1.0
##YFACTOR=6.9676331e-10
##FIRSTX=3997.453
##LASTX=373.96442
##MAXX=3997.453
##MAXY=0.7481439066789142
##MINX=373.96442
##MINY=0.4009406839813006
##NPOINTS=2559
##XYDATA= (X++(Y..Y))
2559A034841842A035080256A035467347A035703195A035615682A035493781A035634331
2552A035900547A035937332A035569659A034901895A034181776A033629241A033416403
2545A033743871A034657065A035719791A036255987A036084897A035678644A035482061
2538A035431162A035255538A034957499A034750822A034694448A034694277A034827468
2531A035287189A035956579A036382506A036265825A035794298A035464866A035571199
2524A035799261A035670773A035381802A035570085A036284388A036848557A036913230
2517A036798086A036802962A036884059A036849584A036529389A035887373A035143987
2510A034678708A034849028A035740405A036765921A036997577A036321256A035602166
2503A035599343A036041953A036131006A035801572A035650157A035931001A036201495
2496A035989170A035525261A035548102A036418523A037583047A038233617A038064495
2489A037197923A036060089A035119179A034596755A034484178A034571520A034620879
2482A034856983A035787542A037109299A037473207A036680461A036170955A036378915
2475A035949479A034458771A033099204A032797144A033456440A034875376A036878071
2468A038074675A037446432A036105086A035499769A035692331A035852555A035695496
2461A035240738A034407359A033631294A034264411A036858310A038877515A039128504
2454A038730463A038038917A036776015A035017038A033424617A032686278A033185177
2447A035119179A037883995A040039559A041162849A041875269A042237895A041665853
2440A040248973A038875376A038034041A037566965A037712306A038994453A040252737
2433A039573766A037974159A037437364A037977838A038332935A038101707A037541472
2426A036929996A036699966A036976704A037214519A037456355A038400172A039596350
2419A039765814A039183338A038820114A038814297A038793681A038669298A038601204
2412A038760318A039258019A040024075A040695005A040808865A040299017A039644084
2405A039381632A039506784A039626290A039582235A039428425A039235521A039146554
2398A039244246A039384968A039460419A039400195A039007969A038401884A038221983
2391A038909252A039793018A039643485A038194951A036302780A035528255A037125381
2384A039340228A039190438A037189369A035507896A035502164A036235200A036054099
2377A034743209A032887309A031600797A032350257A034947574A036919047A037044798
2370A036230238A035564013A035504645A035990797A036744706A037579110A038323782
2363A038632172A038260051A037312040A036036821A034679219A033679627A033724966
2356A034908225A036280793A037052582A037070718A036702447A036687562A037370468
2349A038006752A037853797A037225726A036768744A036597825A036410310A036213471
2342A036551973A037393907A037514355A036533495A035191892A034018471A033117596
2335A032523058A032414587A033001854A033840965A033324872A031007284A028577464
2328A027744256A028677124A029558666A029270721A028289006A027342793A026679562
2321A026068001A025279789A024301324A023081452A021640872A020468650A020301493
2314A021453872A022599746A021517689A019060834A017172514A016130148A015283680
2307A014109403A012748980A011593352A010558685A009212891A007430987A005609990
2300A004367962A004100377A004174373A003453057A002049520A000632210I99621153
2293I99190776I99085042I98521985I97149415I95421063I93775091I92291823I90901462
2285I89624788I88644356I88160340I88091820I88120562I87946564I87393174I86479722
2277I85390650I84252901I82999495I81577138I80239641I79413362I79326020I79612340
2269I79216778I77695874I75872396I74404015I73270544I72306537I71560327I71146375
2261I70990854I70803339I70214190I69031530I67468193I66220777I66070218I66586995
2253I66357136I65034267I63398047I62243874I61661226I61188248I60495932I59679233
2245I58995044I58454143I57778337I56797221I55665802I54711717I54145838I53889545
2237I53680045I53274733I52562314I51581454I50517786I49608615I48923656I48352643
2229I47858962I47544841I47387010I47163566I46724378I46121371I45514771I45079262
2221I44863945I44639902I44051866I43018738I41842751I40905263I40403712I40293787
2213I40278474I39974618I39265877I38453026I37955841I37871322I37916576I37616740
2205I36611329I35153727I34096476I34032574I34657652I35078961I34624974I33433930
2197I32286685I31796596I31809002I31727649I31419857I31351935I31709597I31880090
2189I31101716I29443596I27770078I26804874I26493319I26300329I25989972I25832740
2181I25992709I26158838I26012385I25620075I25173102I24740330I24319021I23860327
2173I23323790I22814540I22474498I22250969I21981588I21638809I21325885I21126137
2165I20961805I20648539I20242543I20115765I20397123I20612352I20220387I19323704
2157I18615476I18681175I19385039I19984111I19912852I19334311I18858681I18915055
2149I19459378I20020466I19956735I18946535I17395518I16267864I16266752I17043244
2141I17505955I17161039I16697043I16880364I17446931I17591159I17104323I16550932
2133I16527407I17091235I17821875I18260978I18287069I18108365I17972434I17952586
2125I17988944I17980304I17793301I17393805I17019890I16968563I17147609I17139910
2117I16748456I16245021I16113282I16662910I17705362I18582798I18802307I18588444
2109I18539084I18926689I19597362I20276675I20707651I20729893I20445199I20219103
2101I20443317I21228449I22212729I22753461I22515988I21825639I21295515I21231957
2093I21557199I22109991I22736779I23229433I23490175I23703436I24085397I24503883
2085I24598325I24299600I23996601I24107209I24654870I25349582I25904940I26138563
2077I25985352I25609895I25289187I25075153I24885500I24902609I25398428I26241132
2069I27054321I27710454I28259225I28611328I28649909I28442120I28147674I27916189
2061I27898738I28161704I28616290I29110911I29487652I29588509I29415110I29260273
2053I29476788I30123080I30932251I31571186I31878293I31938772I31960673I32043823
2045I32136468I32203448I32267778I32304562I32309868I32436218I32807567I33310403
2037I33764047I34114441I34293572I34182363I33844717I33512460I33255654I32952397
2029I32619969I32551020I33066257I34238994I35849893I37442742I38415816I38339938
2021I37378668I36270775I35772304I36182150I37310403I38615307I39409935I39314638
2013I38652862I38221287I38540370I39336794I39840226I39693260I39434914I39854513
2005I40990636I42107767I42586394I42464834I42166795I42059265I42257730I42616163
1997I42931739I43178879I43370499I43374092I43196672I43179648I43536027I44046904
1989I44491738I44949148I45508268I46121799I46773396I47379226I47637572I47358951
1981I46805561I46484852I46731307I47550914I48679168I49720591I50346526I50466033
1973I50266285I50085699I50158584I50441396I50744311I51026780I51428671I51959136
1965I52346911I52367186I52154606I52034244I52191733I52574547I52970278I53254031
1957I53606220I54185274I54653206I54570056I54130098I53908964I54109139I54547470
1949I55027636I55379567I55522771I55656563I56060165I56682161I57144962I57129564
1941I56692771I56229459I56079669I56218252I56424929I56651709I57058476I57718370
1933I58437291I58990938I59484961I60225610I61189531I61934286I62124282I61883815
1925I61567127I61424010I61560968I62003490I62618390I63123448I63380596I63551430
1917I63742195I63738773I63395481I62973829I62748247I62595635I62272702I61878083
1909I61807851I62316159I63214468I64059737I64651453I65201337I65980310I66966045
1901I67896348I68570271I69028964I69375165I69487056I69062669I67853832I65689115
1893I62534299I58819164I55443043I53168313I52095409I51761441I51620206I51463144
1885I51510195I52096863I53283715I54826434I56462225I58122998I59888990I61759774
1877I63481026I64675149I65148641I64995430I64414408I63501471I62189123I60447684
1869I58610605I57373878I57281492I58251912I59722947I61238719I62790934I64570098
1861I66502560I68240495I69564647I70471339I70849191I70564840I69990490I69869955
1853I70433698I71138419I71498562I71749040I72427668I73608275I74867327I75901995
1845I76824341I77753874I78454915I78596749I78056532I76751198I74452776I70997013
1837I66502049I61220156I55214123I48242461I39979238I30386473I20035180I10355932
1829I03550394I01716738I05511174I13501423I22873309I30899487I36103620I38538317
1821I39346546I40018160I41404931I42739861I41631625I35305313I21918883I01272930
1813H75307530H48056987H24184190H06854647G96810887G93108671G94363189G99372792
1805H06976035H15821050H24644251H32763502H40127131H46908203H53194138H59039003
1797H64609353H70110669H75603003H81010733H86282788H91408989H96311917I00842894
1789I04868217I08322269I11220706I13586283I15322078I16238778I16175218I14924379
1781I12117475I07604803I02154900H97497570H95304282H96108748H99271690I03726362
1773I08540409I13105349I17257190I21133922I24699354I27591375I29585344I30966041
1765I32282408I33867130I35615243I37105523I37909133I37730601I36236813I33085847
1757I28501403I23577516I19344061I15298211I09370538H99959472H88164094H77783888
1749H72851530H74896059H82277655H91839024I01033319I08783699I15036871I20079920
1741I24229111I27697280I30527879I32727326I34465004I36080180I37854470I39753142
1733I41412459I42520866I43174259I43709600I44321589I45053341I45944806I46922672
1725I47766488I48435192I49185764I50174752I51199924I51996860I52556668I53018780
1717I53444968I53829236I54177490I54446700I54516077I54364406I54195112I54251401
1709I54607696I55270413I56298151I57605365I58833706I59653739I60064868I60263419
1701I60409018I60623565I60981828I61369345I61526151I61351981I61056680I60922631
1693I60993291I61079862I61028535I60872245I60744697I60770102I61025370I61476021
1685I61958581I62359188I62753038I63237223I63714733I64027488I64187371I64285235
1677I64306792I64251102I64264875I64465305I64803210I65221953I65711784I66140707
1669I66339257I66420525I66710180I67288294I67836209I68002680I67794806I67570079
1661I67679662I68146824I68723226I69184656I69443430I69495698I69478332I69664820
1653I70147722I70649700I70893418I71007022I71291203I71737489I72059311I72104992
1645I71991816I71895407I71919531I72153582I72650599I73288936I73798611I74023939
1637I74063288I74105121I74233524I74430791I74619418I74686057I74591443I74482888
1629I74591616I74985208I75431839I75572903I75331922I75089060I75272298I75830650
1621I76309274I76407908I76261797I76170777I76184721I76067781I75683598I75289749
1613I75286327I75748867I76389601I76906293I77191843I77267464I77226745I77281665
1605I77656096I78297341I78832169I78973318I78851502I78826010I79131405I79807468
1597I80729900I81586120I82047721I82092034I81965170I81786466I81411865I80788584
1589I80187630I79917137I80010038I80345717I80838884I81376877I81821284I82169195
1581I82516508I82868184I83131235I83255018I83334917I83610456I84218852I84938117
1573I85456691I85833517I86305897I86811639I87144666I87361608I87607807I87795833
1565I87797203I87720127I87745876I87905502I88191052I88693031I89464562I90355682
1557I91087608I91422517I91252196I90695298I90093745I89684498I89352068
1550I88962410I88698078I88653851I88463171I87863330I87290862I87364516
1543I88038269I88759756I89277731I89895110I90877851I91884032I92281474
1536I92007816I91645875I91571964I91594205I91547070I91596515I91799770
1529I91913288I91784542I91574357I91540996I91733043I91883861I91619869
1522I90855009I89946351I89438813I89640698I90376899I91172297I91743995
1515I92163679I92482933I92537853I92314067I92193448I92570873I93369436
1508I94146014I94615826I94877082I95094366I95187781I94980249I94524893
1501I94118554I94014018I94216161I94559368I94899409I95138935I95150997
1494I94883156I94534559I94454489I94824643I95514563I96204912I96621858
1487I96716127I96664289I96676349I96795515I96888417I96800220I96509452
1480I96187033I96109700I96406711I96857193I97134444I97255234I97457719
1473I97615464I97295780I96512788I95916454I96034763I96699277I97363534
1466I97724962I97888265I98054823I98234211I98321638I98320954I98293235
1459I98128050I97650024I97013311I96704923I96967289I97444716I97621367
1452I97448052I97294071I97394672I97578936I97550963I97262075I96907237
1445I96637257I96453762I96381819I96531523I96930077I97472433I98079460
1438I98754582I99431071I99912177A000070436A000047852A000096869A000233484
1431A000206108I99789420I98980934I98010682I97256260I96944791I96865918
1424I96653510I96387807I96578402I97447967I98534045I99188637I99297878
1417I99242017I99237484I99130039I98950822I99184101A000170267A001577908
1410A002723016A003185644A003097618A003024561A003468111A004322024A005003818
1403A005123495A004721263A003932535A002963825A002246872A001957559A001636509
1396A000910317A000074967I99617646I99591041I99764441A000388920A001965002
1389A004094731A005671925A006110343A005663541A004785764A003707896A002529257
1382A001422302A000537340I99756058I98957067I98568864I99246551A000693546
1375A001561398A001112374A000082155I99513537I99628767A000019964A000305856
1368A000488751A000909290A001836770A003118234A004344351A005149501A005274739
1361A004728363A003966413A003484025A003217124A002706335A001780481A000787902
1354A000219883A000242124A000635204A001231367A002213168A003626286A004817415
1347A004934698A003966157A002816945A002386824A002890939A003984549A005194498
1340A006119839A006461505A006211885A005833434A005965088A006822848A007972060
1333A008615273A008171892A006900180A005925050A006209661A007514137A008775328
1326A009320421A009199203A008676093A007971718A007323970A006906083A006788371
1319A007044751A007741003A008812967A010027106A010926443A010892482A009660548
1312A007817137A006364583A005739847A005652848A005795366A006100762A006450126
1305A006869470A007715254A008859846A009398694A009045479A008761469A009204079
1298A009873811A010371940A010980679A011691301A012087974A012261288A012699792
1291A013448140A014169285A014609756A014457657A013269265A011207373A009486120
1284A009347196A010606334A011914574A012438108A012568908A013024264A013983652
1277A015056729A015575130A015125935A014192382A013792288A013880057A012764892
1270A009340609A005217852A003147918A003751781A005277904A006351666A007446557
1263A009732491A013735228A018684095A022643718A024393970A024682770A024556334
1256A023712090A021525302A019015924A018348243A020202348A022710358A023587449
1249A022512663A020740170A019150572A017715295A016456843A015814572A015856147
1242A015831681A014972724A013549511A012762924A013379704A014744832A015576244
1235A015501221A015196082A015180597A015243987A015144241A015237143A015965987
1228A016914425A016974820A015797292A014450642A014062952A014463645A014892653
1221A015195739A015529023A015798744A016084125A016701247A017458149A017748232
1214A017505370A017185431A016861472A016080190A014670664A013170717A012353848
1207A012596453A013667648A014818144A015200615A014694959A014172621A014460223
1200A015439799A016699279A018340546A020346321A021954910A022557147A022708217
1193A023398397A024581998A025110324A024303035A023049287A022558086A022442431
1186A021432400A019659907A018527719A018447905A018546196A018692051A019828944
1179A022219586A024983375A027200788A028427846A028484733A027587792A026497777
1172A025967913A026109062A026652958A027636726A029262766A031083846A031892933
1165A030707792A027926636A025306821A024434005A025100914A025743956A025639591
1158A025724452A027068450A029358148A031097279A031133807A029771416A027999009
1151A026189218A024527078A023857175A024939918A027566835A031128075A034928414
1144A037408022A036809720A033615639A030242427A027946655A026146616A024286097
1137A022804800A022498121A023779927A026293412A028726313A029668420A029228719
1130A028958394A029795797A030831234A030440293A028433150A026467838A025898793
1123A026264923A026559200A026640552A026828410A027009937A026828067A026307527
1116A025877406A025972019A026697783A027667265A028121338A027484798A026009659
1109A024791326A024764807A025459433A025494849A024274805A022545427A021582019
1102A022055168A023541512A024858137A024905016A023576844A021900760A021058823
1095A021273629A021749174A021806403A021604432A021422306A020942912A019841605
1088A018543031A017769362A017654218A017523503A016643931A014971440A012873021
1081A010300339A006477588A000645983I93391336I86929691I83703531I84589264
1074I88325358I92814591I96659154I99298648A000834011A001963718A003289495
1067A004777380A006033780A006780588A007022681A007112760A007606012A008592174
1060A009375255A009346341A008878837A008885424A009450278A009530434A008725455
1053A007698743A006827638A005809652A004419030A003058864A002328568A002369715
1046A002832942A003289666A003584797A003792500A003960083A004181473A004714847
1039A005438472A005533000A004741280A003777701A003203435A003001380A002820195
1032A002364839A001723337A001373458A001635910A002059785A002078007A001865855
1025A001728897A001537362A001131707A000657018A000274116I99909012I99408231
1018I98837817I98456800I98378697I98331904I97938397I97226491I96586270
1011I96347002I96535030I96910915I97173795I97177217I96927682I96510137
1004I96151960I96079417I95931937I94888117I93015449I91083330I89439754
997I87828855I85929413I83828597I81868162I80335366I79318920I78744228
990I78665784I79460412I81190646I82817969I83485220I83410110I82958690
983I82359704I81954221I81971158I82147125I82195372I82313082I82587083
976I82691790I82525747I82391099I82349610I81820685I80320652I78024624
969I75130633I71782402I68497986I66013074I64610135I63972568I64078558
962I65668926I68877720I71527305I72441526I72812450I73272682I73673031
955I74072614I74654149I75169045I75281194I75261262I75986342I77877828
948I79585222I80034248I79703702I79155615I78598118I78288359I78629427
941I79469650I79877271I79494458I79013695I79080163I79408828I79825603
934I80538193I80965662I80632806I79958369I79440991I79084783I78812066
927I79211989I80995774I82861169I83225762I82671002I81948489I81413661
920I81271141I81326833I81115794I80748634I80861212I81495614I81794166
913I81517599I81137522I80921521I80626647I80075566I79491037I79027896
906I78834222I79731675I82545251I84708942I84802528I84636057I85416485
899I86667667I87073065I86782211I86477757I86333528I86306838I86730371
892I88279079I90257992I90970668I90541403I89811960I89229398I88905696
885I88876440I89373540I90646707I92253929I93473459I94620276I96914594
878A000740168A004297045A006560909A008416293A010751760A013751055A016965239
871A019823983A022178439A024234514A026245678A028480713A031200019A034457659
864A038010430A041186117A042505480A039145100A026337211I98292637I52976694
857H97897922H49427419H23662451H25537598H46129142H72513544H98711798
850I24582499I46153194I58516933I65100821I71538257I80400552I89696645
843I96841367A002140711A006162780A008776440A010690510A014275874A019528767
836A020548207A017264732A012485673A007832194A004303033A002214023A001394245
829A001728641A003088122A004283700A000796798I80758898I36806030H94830020
822H72906196H66206394H71655955H86779034I03479479I17087642I29709812
815I43444325I56867368I67992670I78235064I89469267I99556823A006428571
808A011438601A015761534A019149030A021641900A023772483A025971078A029300063
801A035747336A042789318A045849521A046512581A046882306A047920823A050474257
794A055049118A060298760A064288583A067106351A069910688A072968410A073741823
787A068316300A055753498A036729222A011314304I80558382I47851691I15685131
780H83422932H51843980H28047404H22911707H37567540H58058913H75037465
773H89035627I02314527I14717529I23955711I29499543I33297400I37992625
766I44926818I47628333I36798757I13086871H82874844H57015264H48054763
759H60403018H84355714I07120276I24532626I37484659I46395885I50245669
752I45588939I28755301I06148570H90292113H86892295H96469320I14559016
745I32640756I46258414I56224754I63622858I68654277I72447771I76948210
738I82499228I87312847I90736702I93466530I95919106I98021461I99685568
731A001165412A003018831A005599981A008399870A010256880A009884332A005081835
724I91060062I59375377I02776727H29761042G65720657G28777690G22241876
717G43502386G82144107H20205576H47968790H67398464H82253445H94048737
710I03331655I10915824I17912980I24975151I31571101I37012193I41605876
703I45838217I49567553I52632717I55391887I58109995I60391995I61782529
696I62398967I62676389I63024814I63553996I63952550I63781544I62905565
689I61749509I61180207I61887236I63826457I66456539I69392530I72475745
682I75288893I77242485I78300162I79003772I79901138I81199286I82802057
675I84499357I86109913I87510882I88519460I88769850I87640570I83757852
668I74662789I58908558I39660240I24458202I19814561I25698605I36356576
661I46460215I54363636I60451106I65046500I68180443I70071159I71155357
654I71762470I71896006I71320373I69759775I66962966I62743799I57254887
647I51367590I46644223I44554186I45497235I48668560I52806973I56914845
640I60426213I63035249I64569587I65026739I64635713I63795147I62910268
633I62255166I61945150I61974236I62240622I62496744I62267568I60944017
626I58119149I53856525I48563682I42641314I36237241I29260102I21627601
619I13498942I05283710H97516990H90722062H85235802H81109195H78227696
612H76442713H75495729H74989816H74639167H74447461H74527531H74875785
605H75381185H75883676H76186078H76188559H76012935H75849458H75718232
598H75475028H74960472H74111525H73024162H71893770H70795543H69600308
591H68167770H66455159H64302845H61308341H57150254H51975292H46261311
584H40341423H34207844H27638156H20308914H11911899H02347364G91792304
577G80788304G70675597G63760307G62286623G66858235G75981613G87098362
570G97967972H07405044H15223433H21743162H27324292H32173668H36377010
563H39988208H43107351H45913400H48572652H51041055H52989598H54004846
556H53961905H53345125H53242727H54761751H58180216H62723596H67284860
549H71266982H74698963H77812802H80768383H83686838H86670221H89704333
542H92662651H95446629H98043432I00496010I02941144I05584657I08493101
535I11512586I14490494I17416475I20285657I23034476I25656432I28175476
528I30491437I32464619I34149856I35706862I36951283I36924510I33848396
521I25804253I12275049H95674350H81166082H74105280H76821849H87469297
514I01717679I15453304I26397594I34231723I39862383I44382497I48331427
507I51745359I54660648I57315881I59968889I62708982I65399714I67770596
500I69665847I71167162I72418515I73457802I74289898I74938073I75267764
493I74907277I73581842I71548864I69558659I68313807I67965038I68103794
486I68202086I68078730I67985742I68256834I68733662I68363851I65778424
479I61059759I56813900I56512014I61591422I70643969I80853855I88978920
472I90588367I78740550I44582245H82380651G97232541G07350112F35341292
465E94854408E84716209E94343277F13100694F35131322F58365996F81850547
458G04636067G26008766G45600378G63142929G78482181G91844059H03780928
451H14748230H24872143H34125550H42539161H50201002H57194138H63604541
444H69554199H75192558H80612435H85778585H90591435H95006243H99053122
437I02809148I06390235I09902030I13371394I16738361I19903100I22846790
430I25741463I28817321I32086681I35345862I38427622I41315708I44092157
423I46872797I49719310I52572408I55340817I58026161I60687809I63290089
416I65701519I67958881I70382971I73173536I75853234I76675407I71948017
409I57431195I33646509I09851301H98741824I05312282I23140978I42009563
402I56330829I65988437I72711763I77816150I82008542I85550021I88367703
395I90398799I91954179I93618885I95730565I98101189A000304741A002032497
388A003150141A003692241A003885231A004067699A004585588A005681846A007186243
381A008069496A006214537I98417107I80274030I46406491H92862057H22264730
374G47578351F88406334F60199954F65174654F92581574G26573793G54049063
367G67853808G66848055G55683914G43549693G39787165G48427129G66634449
360G88237138H08213444H24485565H37302094H47974351H57756854H67166380
353H76023115H83924910H90445580H94898627H96142709H92666244H82531980
346H63018130H31103840G86335130G35033428F91144631F70023604F78701121
339G11447976G54669436G95787856H28438772H51868958H67619512H76958036
332H80213880H77038534H66081839H44213875H07464412G55050879F93827110
325F37873811F01672305E92262693F06901930F36889572F73062891G08903610
318G40930988G68078022G90901182H10455749H27252177H41256157H52713204
311H62397929H70965606H78556443H85192516H91165784H96827497I02199896
304I06998973I10972540I14076713I16338438I17720846I18168161I17691846
297I16359739I14271756I11575718I08508073I05432558I02799139I00883102
290H99501036H98180306H96612777H94658244H92058617H88668895H84869413
283H81354880H78755166H77626656H78220938H80027392H82052928H83704717
276H85156245H86972794H89532558H92664961H95916271H99283837I03395217
269I08767531I15153297I21752582I27901133I33428797I38438144I42974340
262I47044231I50701110I53903061I56555043I58829771I61136151I63699765
255I66479636I69571918I73375764I78153626I83577694I88969598I94001101
248I98971096A004353162A010198968A015967527A020745559A023034231A019101555
241A000771647I56930158H82644899G90517426G09575053F65789851F61911154
234F78668443F94027542F98505311F95713805F95258877G05599262G29227657
227G62059501G97150247H29186778H56273845H78811712H97618789I13231784
220I26002119I35961444I42673650I44856160I39584104I22189976H87493164
213H34191077G70831289G12692656F73806020F66341617F88871186G18499197
206G43140445G65042199G85880115H04480943H19055166H26681506H22044708
199G98270630G50961229F85874244F22716470E85768541E86734473F17795577
192F61727831G04792658G40599929G67729596G87191093H01082838H11459793
185H19604793H26151212H31534989H36182822H40345701H43928325H46806319
178H49281222H51785211H54253271H56279405H57644020H58247625H57889705
171H56657429H55257056H54389288H53928114H53263344H52428510H52055189
164H51990177H50966802H48204467H44576160H41643248H40085216H39580415
157H39561766H39410351H38501264H36795582H35022404H33828195H33133313
150H32508834H31993169H32388216H34457037H37711852H40594123H42279960
143H43822166H46953883H51997705H57540765H61928115H64829974H67249872
136H70149507H73652490H77352998H80719877H83453471H85835558H88364270
129H90969715H93258729H95431830H97927521I00233130I01226993I00764536
122H99966742I00023714I01422634I04004468I07144742I10010330I11839026
115I11970680I09767382I04465300H94774245H78274403H51202305H11298284
108G64990445G28408050G14429648G23621119G48048506G77657270H04753746
101H25969258H41226815H51857411H59609417H66105793H72229278H77853180
94H82485529H86181588H89524004H92811671H95606427H97301501H97942833
87H98324022H99375370I01527085I04564704I07845527I10746188I13060866
80I14938151I16531768I17818452I18704785I19216772I19526702I19764859
73I19683848I18022136I10839432H89515875H43096744G67288698F75786687
66F01740527E75433118E99449802F51169263G05063450G49234759G82334701
59H04621494H18236585H27784096H36522180H44811751H51886924H57703987
52H62998968H68156307H72094459H73406206H72888146H72848367H74377741
45H77107995H80425861H83801041H86552340H88244421H89385932H91131564
38H93814599H96080518H96299000H94992641H94705465H97283024I00710728
31I02050022I02139331I02358668I02820012I03437477I04562907I05753181
24I04834513H99681964H90459437H78479455H63174164H41837692H15264834
17G93040663G82171139G80239019G84046115G92499248H04997036H20850671
10H39667500H60112935H77484737H87119675H89756943H87957758H81748730
3H68911584H51689914H43171424
$$ === CHEMSPECTRA INTEGRALS AND MULTIPLETS ===
##$OBSERVEDINTEGRALS= (X Y Z)

##$OBSERVEDMULTIPLETS=
##$OBSERVEDMULTIPLETSPEAKS=
$$ === CHEMSPECTRA SIMULATION ===
##$CSSIMULATIONPEAKS=
##END=


$$ === CHEMSPECTRA PEAK TABLE EDIT ===
##TITLE=YCW-1
##JCAMP-DX=5.00
##DATA TYPE=INFRAREDPEAKTABLE
##DATA CLASS=PEAKTABLE
##$CSCATEGORY=EDIT_PEAK
##$CSTHRESHOLD=0.93
##MAXX=3997.453
##MAXY=0.7481439066789142
##MINX=373.96442
##MINY=0.4009406839813006
##$CSSOLVENTNAME=- - -
##$CSSOLVENTVALUE=0
##$CSSOLVENTX=0
##NPOINTS=45
##PEAKTABLE= (XY..XY)
393.7958664894445, 0.5436419214695929
420.70997243940565, 0.6233979426620158
439.12488703674717, 0.6081687173190148
464.62246109460466, 0.4009406839813006
522.7002686708365, 0.4977883663026149
545.3647789444876, 0.6270638067425993
583.6111400312743, 0.5797023143298294
648.7716070680217, 0.40814202752103074
668.6030535574664, 0.4642823906516723
698.3502232916339, 0.4844308764454029
705.4328827521499, 0.4611954065869598
770.5933497888973, 0.6114980537787914
830.0876892572319, 0.41266691436419384
855.5852633150898, 0.4668478641011693
886.7489649413601, 0.5154565537809161
899.4977519702888, 0.4600031052108878
947.6598363017979, 0.6262103281256775
1029.818686043784, 0.4074088011934918
1104.8948763252538, 0.6090444881812769
1157.3065563330724, 0.5945082266979465
1185.6371941751368, 0.5311333506102022
1233.7992785066458, 0.6092829073474559
1313.1250644644251, 0.6408930381085569
1389.617786637998, 0.5032316415358962
1432.1137434010943, 0.6179540117744597
1449.1121261063327, 0.5908934437291455
1473.1931682720874, 0.5733746848070702
1535.5205715246284, 0.6035408342266042
1583.6826558561374, 0.5738977756814728
2850.0621673964033, 0.6081709225748909
2889.725060375293, 0.6238151749834935
2933.6375490304927, 0.552609022795661
2961.9681868725565, 0.6282831390512829
3338.7656701720093, 0.6418806276370977
3350.097925308835, 0.641174908131511
3360.0136485535572, 0.6400043325322081
3368.512839906177, 0.63831412409481
3375.595499366693, 0.6389100511218235
3384.094690719312, 0.6395956836379463
3394.0104139640343, 0.6386026698070372
3402.5096053166535, 0.6387208659478923
3408.1757328850663, 0.6384210549664692
3419.507988021892, 0.6402270159957941
3428.007179374511, 0.6400575596749856
3435.0898388350274, 0.6411029060045822
##END=


$$ === CHEMSPECTRA PEAK TABLE AUTO ===
##TITLE=YCW-1
##JCAMP-DX=5.00
##DATA TYPE=INFRAREDPEAKTABLE
##DATA CLASS=PEAKTABLE
##$CSCATEGORY=AUTO_PEAK
##$CSTHRESHOLD=0.93
##MAXX=3997.453
##MAXY=0.7481439066789142
##MINX=373.96442
##MINY=0.4009406839813006
##NPOINTS=100
##PEAKTABLE= (XY..XY)
1671.5076331665364, 0.6833496645038186
2622.0005327677873, 0.6827703079018436
3589.491815074277, 0.6823584392643263
1701.2548029007035, 0.6821408226635305
1655.9257823534008, 0.6820157724619949
2638.9989154730256, 0.6820100506416932
1687.0894839796715, 0.6820003349740985
1774.91446129007, 0.6818984110435851
1708.3374623612194, 0.6816354351513083
2648.914638717748, 0.680895741466726
2664.496489530883, 0.6801599817077919
2657.413830070367, 0.6795437293982625
1719.669717498045, 0.6795262650258973
2672.9956808835027, 0.6794062809903887
2681.494872236122, 0.6789839225812393
2701.326318725567, 0.6771810607551172
2998.79801606724, 0.6757698015088777
2716.908169538702, 0.6754969315775989
1058.149323885848, 0.674456949628726
1063.8154514542607, 0.6744425252346824
2726.8238927834245, 0.6741673309010016
3566.8273048006254, 0.6731222827861016
2746.6553392728692, 0.6718547895006677
1738.084632095387, 0.6716607172288801
1267.7960439171225, 0.6702480867524465
3076.707270132916, 0.6701524218467468
3097.955248514464, 0.6698849755210732
1347.1218298749022, 0.6697151025358052
2772.1529133307267, 0.6695356330294686
2765.0702538702108, 0.6694116551466671
3017.2129306645816, 0.6669986209676586
1048.2336006411256, 0.6664624769294064
3119.2032268960124, 0.6661612347961444
2796.2339554964815, 0.6648481446229407
3137.618141493354, 0.6646487671953109
3151.7834604143864, 0.6633425310827877
3044.1270366145427, 0.6629446109499733
3165.9487793354183, 0.6619848564189037
3177.281034472244, 0.6594759183443801
1286.210958514464, 0.6581307011117157
3194.279417177482, 0.6571729734651149
3205.6116723143077, 0.6563923316975672
3215.5273955590305, 0.6545637802082054
3222.6100550195465, 0.65371816944258
3500.250305871775, 0.6534743266707959
3232.525778264269, 0.6520118079413663
3491.7511145191556, 0.65079962790806
3245.2745652931976, 0.6497673354390763
3483.2519231665365, 0.6492416818692194
3477.5857955981237, 0.6489318570055049
3282.104394487881, 0.6474744636669837
3292.0201177326035, 0.6465257960337029
3463.4204766770913, 0.6450862844287695
3309.018500437842, 0.6444262823510051
3323.183819358874, 0.6438069301415094
3338.7656701720093, 0.6418806276370977
3350.097925308835, 0.641174908131511
3435.0898388350274, 0.6411029060045822
1313.1250644644251, 0.6408930381085569
3419.507988021892, 0.6402270159957941
3428.007179374511, 0.6400575596749856
3360.0136485535572, 0.6400043325322081
3384.094690719312, 0.6395956836379463
3375.595499366693, 0.6389100511218235
3402.5096053166535, 0.6387208659478923
3394.0104139640343, 0.6386026698070372
3408.1757328850663, 0.6384210549664692
3368.512839906177, 0.63831412409481
2961.9681868725565, 0.6282831390512829
545.3647789444876, 0.6270638067425993
947.6598363017979, 0.6262103281256775
2889.725060375293, 0.6238151749834935
420.70997243940565, 0.6233979426620158
1432.1137434010943, 0.6179540117744597
770.5933497888973, 0.6114980537787914
1233.7992785066458, 0.6092829073474559
1104.8948763252538, 0.6090444881812769
2850.0621673964033, 0.6081709225748909
439.12488703674717, 0.6081687173190148
1535.5205715246284, 0.6035408342266042
1157.3065563330724, 0.5945082266979465
1449.1121261063327, 0.5908934437291455
583.6111400312743, 0.5797023143298294
1583.6826558561374, 0.5738977756814728
1473.1931682720874, 0.5733746848070702
2933.6375490304927, 0.552609022795661
393.7958664894445, 0.5436419214695929
1185.6371941751368, 0.5311333506102022
886.7489649413601, 0.5154565537809161
1389.617786637998, 0.5032316415358962
522.7002686708365, 0.4977883663026149
698.3502232916339, 0.4844308764454029
855.5852633150898, 0.4668478641011693
668.6030535574664, 0.4642823906516723
705.4328827521499, 0.4611954065869598
899.4977519702888, 0.4600031052108878
830.0876892572319, 0.41266691436419384
648.7716070680217, 0.40814202752103074
1029.818686043784, 0.4074088011934918
464.62246109460466, 0.4009406839813006
##END=

##END=

