##TITLE=X7385
##JCAMP-DX=4.24
##DATA TYPE=INFRARED SPECTRUM
##DATE=26/10/2018
##SAMPLING PROCEDURE=Diamant-ATR
##ORIGIN=ComPlat
##XUNITS=1/CM
##YUNITS=TRANSMITTANCE
##RESOLUTION=4
##FIRSTX=3997.453
##LASTX=373.96442
##DELTAX=-1.4165319
##MAXY=1.0086004
##MINY=0.33899862
##XFACTOR=1
##YFACTOR=9.3933228e-010
##NPOINTS=2559
##FIRSTY=0.9847551
##XYDATA=(X++(Y..Y))
3997+1048356498+1048832532+1048873206+1048737604+1048423950+1048045445
3989+1048119306+1048825044+1049525199+1049504830+1048832786+1048307321
3980+1048601114+1049330013+1049256152+1047836300+1046028234+1044903951
3972+1044275246+1043543555+1043034652+1043470075+1044481472+1044605462
3963+1043153628+1041513653+1041578820+1043275080+1045093045+1046293473
3955+1046891529+1046231922+1043233073+1038176212+1033612390+1032325157
3946+1033630475+1033933786+1031944876+1030829794+1033567211+1038647931
3938+1042619534+1043396785+1040198119+1033468095+1026325746+1023699183
3929+1027079329+1032288227+1034279358+1032305803+1029958249+1029654494
3921+1029381387+1026785282+1023694932+1024722701+1031292566+1039703493
3912+1045675174+1047710026+1046013766+1040137139+1029151872+1014530993
3904+1001803589+996401791+998362655+1005208482+1015451080+1026202010+1032696238
3894+1031702163+1024938699+1019794715+1021197626+1024373893+1022832462
3886+1017119674+1012906881+1011462472+1010787191+1013498338+1021497764
3877+1028620253+1028322842+1021264951+1012851803+1006377690+1003322304
3869+1005149914+1008694152+1008784828+1006200145+1007343274+1014279016
3860+1021614140+1024336455+1020791836+1009650408+990798652+976635532+983728450
3850+1003550803+1021223642+1030908858+1032106557+1026748605+1017721030
3842+1007359772+997308616+990728789+991778259+999532688+1008206125+1014506563
3832+1019066006+1022739311+1024609181+1024120837+1022659105+1020510606
3823+1014599270+1004042319+996943436+999884986+1007298285+1014251287+1022544379
3813+1032559621+1040039293+1041162433+1035044299+1024868265+1017201276
3805+1013958128+1009832839+1002698739+999080640+1003117918+1010558121
3796+1018872027+1028660546+1038229387+1044447461+1046682130+1046386623
3788+1044341048+1040720601+1037424723+1036628055+1036801729+1034719858
3779+1031403357+1031658189+1036383438+1041307744+1042338749+1038084965
3771+1030564872+1024825306+1023878442+1025656367+1027947701+1030156798
3762+1029963389+1024550169+1015998119+1011082571+1011733358+1012040730
3754+1005630516+990675804+974052879+968403736+973647216+979642185+982395085
3744+986185463+994463961+1002647785+1004899840+998101731+983503758+970758270
3734+972699209+989111403+1007888029+1019702072+1022047278+1016945365+1009861266
3724+1006801057+1009397416+1015331659+1022191954+1028311928+1031710412
3716+1030032427+1021571435+1007941711+997967271+1001461952+1015129938
3707+1028793610+1036792147+1037885274+1033852374+1029949810+1030857523
3699+1035284093+1039128851+1039885797+1036321063+1027465829+1013931731
3690+1000989154+997975964+1007280581+1021151177+1032698839+1038908791
3682+1038597866+1032197741+1020889936+1005412424+990640333+987047108+993085353
3672+996692538+995614641+999661500+1013112219+1028038567+1037980836+1042358356
3662+1043164860+1041767343+1037873091+1031564594+1025714301+1022365755
3653+1017277992+1003836981+981556283+964412209+969408534+989862511+1009967235
3643+1023266298+1030182624+1033359271+1034854952+1035191704+1034200802
3635+1031860989+1027915847+1020729777+1008404610+995536084+995141589+1008304670
3625+1022245446+1028910302+1026660785+1017385230+1007153990+1002944814
3616+1003954689+1004707130+1004186361+1004958790+1006922128+1008058213
3608+1010131772+1016516858+1025037561+1030047720+1029294835+1025571592
3599+1022824022+1021789527+1021217550+1021569087+1024444264+1028379824
3591+1028321002+1020514350+1008550301+1003709185+1010824058+1022038585
3582+1029930964+1033471014+1034854508+1036036344+1037570097+1039080372
3574+1039802735+1038399825+1032552323+1019948655+1002388765+990213032+993647368
3564+1008046601+1022075262+1030669001+1035158327+1038088010+1039544984
3555+1038122720+1034154036+1030665257+1030015802+1030089917+1026773860
3547+1020068711+1015492643+1017892800+1025761320+1033951109+1038568867
3538+1038883346+1037366980+1037430307+1039618337+1041167129+1039648859
3530+1035485497+1030880874+1027338730+1025053171+1024504037+1026890743
3521+1032134794+1037974300+1042048255+1043815203+1044055631+1043333204
3513+1041442140+1038320761+1035326354+1034550498+1035813429+1036014769
3504+1033124808+1029527649+1029338428+1032868579+1036801856+1038898195
3496+1039830211+1040957286+1042050032+1041980169+1040719078+1039541811
3488+1039312932+1039266547+1037938829+1035151093+1032791165+1033218149
3479+1036589347+1040527129+1042628100+1042531586+1041465745+1040496925
3471+1039870314+1039573983+1039657742+1039944556+1039982501+1039548982
3462+1038980875+1038794764+1039168954+1039912130+1040647629+1040966360
3454+1040670028+1039762442+1038096386+1035579727+1033014017+1031917781
3445+1032891359+1034992901+1037065445+1038582065+1039184564+1038598373
3437+1037328907+1036481031+1036487313+1036750775+1036803506+1037005036
3428+1037755700+1038699900+1039011905+1038169042+1036588713+1035689058
3420+1036692397+1039100931+1041097647+1041477865+1040483790+1038976624
3411+1037624731+1036924767+1037214943+1038279960+1039356715+1039853499
3403+1039801720+1039440919+1038804092+1037966305+1037201618+1036667650
3394+1036376522+1036559207+1037549347+1039189767+1040726376+1041467712
3386+1041505404+1041656742+1042506585+1043680045+1044377407+1044400378
3377+1044316618+1044689729+1045358474+1045559560+1044746140+1043145823
3369+1041489159+1040436009+1040215505+1040541533+1040991614+1041555786
3360+1042399982+1043169746+1043243733+1042658875+1042118626+1042151495
3352+1042717126+1043422421+1043829543+1043825228+1043754223+1043866537
3343+1043785569+1042996262+1041686185+1040599340+1040184857+1040314430
3335+1040703595+1041175441+1041548045+1041584277+1041173157+1040565265
3326+1040393241+1041212308+1042865927+1044471320+1045193302+1044979335
3318+1044443083+1044070606+1043692863+1042823412+1041399816+1040054839
3309+1039706729+1040800744+1042732482+1044221056+1044510725+1043977265
3301+1043439363+1043304142+1043470646+1043599966+1043433842+1043143412
3292+1043223618+1043846168+1044565359+1044796904+1044362623+1043562591
3284+1042915231+1042814592+1043263912+1043885383+1044184253+1043872692
3275+1043130341+1042617630+1042964090+1044094084+1045295147+1045993017
3267+1046115483+1045736217+1044899065+1043882591+1043210737+1043237578
3258+1043801687+1044327469+1044414021+1044296757+1044396380+1044560536
3250+1044320870+1043685819+1043103119+1042893910+1043131166+1043711201
3241+1044300120+1044561361+1044541183+1044566882+1044744998+1044769936
3233+1044322329+1043597237+1043234025+1043620081+1044497082+1045335694
3224+1045771815+1045651125+1045067726+1044396888+1043923646+1043531562
3216+1043059843+1042705768+1042708560+1042965613+1043334346+1043897122
3207+1044546450+1044793985+1044398918+1043754540+1043340945+1043171078
3199+1043031733+1042940168+1043085288+1043457638+1043854988+1044287683
3190+1044976987+1045743197+1045879497+1045042535+1043807905+1042950257
3182+1042629560+1042582730+1042611665+1042569976+1042223579+1041498868
3173+1040793383+1040657591+1041065792+1041392392+1041290611+1041118840
3165+1041275192+1041620827+1041793549+1041673367+1041368660+1041054371
3156+1040917627+1041028291+1041172903+1040981716+1040362021+1039699685
3148+1039456846+1039678111+1040087518+1040467736+1040693824+1040673772
3139+1040531000+1040549338+1040731960+1040782723+1040648263+1040633732
3131+1040831900+1040907347+1040589695+1039978504+1039280887+1038622803
3122+1038128748+1037842125+1037620733+1037392171+1037331001+1037543827
3114+1037814205+1037848026+1037526757+1036858076+1035978727+1035198303
3105+1034734389+1034358613+1033517844+1031875266+1029674355+1027554475
3097+1026072373+1025418413+1025468606+1025894194+1026107971+1025389986
3088+1023496384+1021065324+1018979709+1017407058+1015933713+1014430101
3080+1013176118+1012256284+1011332073+1009922754+1007751539+1005107653
3071+1002745949+1001005398+999447088+997863968+996964820+997386728+998676499
3061+999841774+1000373267+1000417812+1000405248+1000635650+1000957109
3053+1000894226+1000185823+999062301+998075080+997770817+998252942+998909821
3043+999006017+998696551+998930570+1000167231+1001755491+1002763652+1002918544
3033+1002663775+1002738525+1003646809+1005145409+1006384924+1006746487
3024+1006308145+1005427399+1004292329+1002996085+1001637847+1000188234
3016+998443432+996228624+993667229+991212881+989254302+987683872+986137682
3006+984630516+983548811+983042002+982855954+982695795+982328839+981449680
2996+979787115+977252561+973867720+969681070+964681191+958681844+951558213
2986+943712854+935956839+928901612+922752322+917576167+913507670+910799188
2976+909714817+910201448+911800623+914125270+917221521+921273838+926132849
2966+931238316+935947828+939978888+943472997+946492151+948653340+949480784
2956+948948783+947578996+946229831+945761793+946630101+948763814+951796230
2946+955159561+958096161+960094843+961333788+962328116+963244015+963866248
2936+964098681+964203507+964558788+965334516+966521936+968249352+970771659
2927+973987331+977262206+979972972+982016771+983667280+985167593+986564475
2917+987833497+989090843+990578339+992389768+994339210+996106157+997388378
2907+998042020+998268679+998478268+998825173+999123916+999298097+999589099
2897+1000203844+1001030399+1001819834+1002444604+1002882629+1003141015
2888+1003320146+1003579357+1003908050+1004092766+1004012559+1003814519
2880+1003754174+1003996696+1004547860+1005297889+1006268295+1007767276
2871+1009992998+1012565751+1014895855+1016894474+1018808699+1020574886
2863+1021954508+1023088182+1024289308+1025464291+1026240273+1026493836
2854+1026424100+1026277965+1026217430+1026313626+1026613321+1027217406
2846+1028140982+1029103266+1029772328+1030273300+1031151380+1032736912
2837+1034732104+1036458251+1037411588+1037623716+1037599666+1037868459
2829+1038525083+1039228664+1039651841+1039791631+1039799753+1039700637
2820+1039419154+1038970596+1038509156+1038222914+1038187634+1038295760
2812+1038383263+1038490945+1038889501+1039769612+1040981779+1042126558
2803+1042785022+1042701453+1041977186+1041106530+1040627895+1040706705
2795+1041103104+1041441759+1041496837+1041360855+1041306601+1041411745
2786+1041494553+1041481228+1041557880+1041862080+1042221929+1042279800
2778+1041873629+1041337313+1041252538+1041760934+1042395857+1042719791
2769+1042755834+1042663190+1042431265+1042065895+1041735235+1041583008
2761+1041611690+1041791075+1042104920+1042450301+1042648342+1042610714
2752+1042395286+1042093371+1041810746+1041706744+1041831495+1041978075
2744+1041909100+1041650841+1041396262+1041265991+1041317833+1041594747
2735+1041987466+1042214759+1042093117+1041719879+1041294355+1040923655
2727+1040681069+1040628212+1040647629+1040539693+1040414307+1040623389
2718+1041168588+1041618162+1041782826+1042001108+1042546054+1043167461
2710+1043431177+1043221207+1042749488+1042287097+1042007961+1041979217
2701+1042135441+1042262794+1042143056+1041783714+1041436746+1041346007
2693+1041572284+1042061009+1042735211+1043450214+1043931514+1043922313
2684+1043485875+1043019613+1042789337+1042644471+1042390971+1042152764
2676+1042101239+1042148513+1042171991+1042234557+1042396746+1042573974
2667+1042700565+1042839403+1043062825+1043305919+1043417154+1043397293
2659+1043454909+1043635056+1043575028+1042988647+1042233605+1041977567
2650+1042398078+1043068282+1043516904+1043559989+1043190178+1042533807
2642+1041910559+1041605408+1041591511+1041736885+1042170151+1043071963
2633+1044172767+1044845192+1044752232+1044186093+1043727065+1043702254
2625+1044015084+1044386164+1044614917+1044624054+1044411927+1044040719
2616+1043637467+1043412776+1043577503+1044071050+1044480838+1044461357
2608+1044083551+1043648572+1043471344+1043876246+1044905791+1045956594
2599+1046247341+1045718069+1045014615+1044626973+1044505966+1044431915
2591+1044337368+1044319854+1044555143+1045052878+1045458541+1045410697
2582+1045055480+1044828060+1044865815+1045040314+1045321988+1045663181
2574+1045799418+1045598268+1045382079+1045550931+1046019350+1046266631
2565+1045949614+1045377003+1045258089+1045916364+1046896415+1047439837
2557+1047187670+1046296963+1045146029+1044212109+1043977645+1044478046
2548+1045050594+1045032319+1044661365+1044760608+1045543697+1046233762
2540+1045952723+1044647532+1043057305+1042036897+1042010309+1042842195
2531+1044045097+1045143554+1045943966+1046488975+1046803708+1046753453
2523+1046215107+1045438807+1045095646+1045662039+1046753389+1047408618
2514+1047059112+1045937050+1044654068+1043725605+1043353700+1043354778
2506+1043380287+1043392787+1043825482+1045056622+1046682701+1047624934
2497+1047334313+1046551097+1046271327+1046354071+1045952596+1044944498
2489+1044016924+1043557642+1043313406+1043093220+1043114794+1043476166
2480+1043747687+1043513668+1043163654+1043587529+1044930792+1046166247
2472+1046185600+1044951288+1043367215+1042402139+1042488437+1043337392
2463+1044148782+1044227719+1043447104+1042126367+1040812927+1040193042
2455+1040699852+1042120085+1043854100+1045327127+1045959830+1045446929
2446+1044446636+1044159315+1044766826+1045108147+1044345109+1043175520
2438+1042862246+1043632962+1044576590+1044820191+1044377471+1043898899
2429+1043874532+1044204495+1044513580+1044636555+1044533822+1044023904
2421+1043127422+1042388116+1042238872+1042360958+1042273010+1042107585
2412+1042235318+1042622199+1043105657+1043796737+1044680909+1045264625
2404+1045136320+1044554445+1044025680+1043599395+1043017455+1042346934
2395+1042017416+1042283163+1042905015+1043368865+1043361441+1043008762
2387+1042574798+1042057456+1041346007+1040663302+1040520657+1041257234
2378+1042837055+1045065506+1047922851+1051592983+1055945248+1060120095
2370+1063259114+1065616631+1068150486+1071005929+1073189009+1073741823
2361+1072598758+1070398925+1068023578+1066186069+1064797944+1062677809
2353+1058843395+1054376722+1051763929+1052558693+1056526806+1062039904
2344+1066865030+1069484930+1069766921+1068477022+1066786473+1065545054
2336+1064611134+1063398713+1061858678+1060453483+1059414800+1058334745
2327+1056490193+1053592998+1050182712+1047182277+1045108464+1043863999
2319+1043134211+1042651832+1042143881+1041269036+1039765043+1037885655
2310+1036494420+1036254880+1036945009+1037915098+1038770334+1039381526
2302+1039864920+1040714890+1042275739+1043964257+1044645248+1043936146
2293+1042705197+1042116341+1042397127+1042799744+1042792256+1042824047
2285+1043553454+1044771078+1045669146+1045944411+1046110534+1046751105
2276+1047906734+1049216747+1050247816+1050616422+1050196291+1049322716
2268+1048449141+1047621190+1046704593+1046037054+1046291505+1047600631
2259+1049204437+1050149652+1050206507+1049855922+1049442264+1048763811
2251+1047654947+1046615693+1046378628+1046826996+1046969070+1046416320
2242+1046161678+1047172441+1048994911+1050536089+1051544123+1052659332
2234+1054352482+1055875892+1055409821+1052231333+1048393999+1046625909
2225+1047100674+1047924945+1048001027+1047638132+1047194523+1046932267
2217+1047610149+1049646587+1051984559+1052956932+1052148081+1050498397
2208+1048933487+1048039290+1048487150+1050266916+1052046173+1052690044
2200+1052835164+1053722635+1055187985+1055887568+1055025795+1053041073
2191+1050931472+1049489347+1048949859+1048877267+1048539944+1047716942
2183+1046896098+1046579334+1046940389+1048196910+1050457215+1053202310
2174+1055510269+1056401484+1055077067+1052076631+1049815311+1050335319
2166+1052712443+1054060466+1052855342+1050020586+1047320861+1046252354
2157+1047989986+1052453994+1057111474+1058369328+1055017610+1049304695
2149+1044384387+1042123258+1042805899+1044800647+1045331887+1043650221
2140+1042235762+1043502056+1046969578+1050412924+1052115783+1051492408
2132+1048977271+1045872009+1043539050+1042455441+1042211586+1042245978
2123+1042279863+1042178019+1041872106+1041457052+1040965725+1040086820
2115+1038652436+1037327003+1037123252+1038171580+1039486289+1039967907
2106+1039396691+1038565313+1038533777+1039559452+1040879300+1041683329
2098+1041860367+1041515747+1040595089+1039549426+1039470996+1040804615
2089+1042509060+1043214671+1042901017+1042627783+1042799490+1042759514
2081+1042199340+1041780859+1041962592+1042388877+1042907870+1043890586
2072+1045117855+1045605311+1044852807+1043310678+1041651412+1040421985
2064+1040066705+1040521355+1041142382+1041482116+1041788473+1042483678
2055+1043607326+1044935742+1046242328+1047264957+1047804065+1048041257
2047+1048386385+1048976573+1049835807+1051194934+1052879391+1053898657
2038+1053763880+1053748588+1055212859+1056852136+1056119811+1053762421
2030+1053391658+1056018347+1058789966+1059647360+1059582256+1059682070
2021+1059143470+1056729923+1052693153+1049049609+1047532988+1047323970
2013+1046505791+1045262087+1045306188+1046794381+1048361003+1049554070
2004+1050624100+1050871635+1049431667+1047042550+1045475420+1045085874
1996+1043946045+1040376552+1035865969+1033983788+1035958295+1039367629
1987+1041717468+1042778169+1043237261+1043256170+1042937567+1042693712
1979+1042535140+1042209746+1042287541+1043575219+1045339120+1045483860
1970+1042655512+1037936228+1034578101+1035306175+1039462176+1043958355
1962+1046567468+1046893750+1045067155+1041077341+1035475154+1030084079
1953+1027323945+1028152912+1030856698+1032601881+1031917273+1029104853
1945+1025389605+1022897185+1023858771+1028039963+1032810201+1036178227
1936+1037591798+1036954844+1034889027+1033017824+1032432966+1032527322
1928+1031878566+1029353340+1024686405+1019397999+1016213039+1015929779
1919+1016819345+1017950671+1020412506+1024178961+1026667892+1025723819
1911+1022439299+1020332744+1021522258+1024724097+1027520590+1028970330
1902+1029443128+1029305812+1028543663+1027241391+1026108098+1026115205
1894+1026834078+1026023704+1022602567+1019120767+1018947791+1021572704
1885+1024119695+1025440559+1025933979+1025727055+1024979627+1024416090
1877+1024330871+1024162844+1023029677+1019612411+1012581615+1003359805
1868+997983325+1001291767+1010175746+1018254236+1022246715+1022632263
1860+1021692886+1021302135+1021914278+1023009943+1023981111+1024312913
1851+1023133616+1019486772+1013382344+1005909461+998866164+995535005+998702833
1841+1005916188+1012160024+1015239016+1016218877+1016766487+1016403021
1833+1012917224+1005608181+997967398+994860360+995909893+997760283+1000383927
1823+1005422006+1011387278+1014970160+1015075685+1013430125+1011783106
1815+1009650218+1005735660+1000781785+997678491+998117785+1000614583+1002300246
1805+1000860088+995739201+989303035+985579030+985902393+987547889+987150475
1795+983009894+976422579+973394224+978945775+988843499+995710330+996837975
1785+994100114+990126988+985839891+982056113+979903300+978206025+973635604
1775+963678170+948909505+934608309+926461542+922721610+918108358+910010261
1765+896962095+876663392+849736889+822710129+800076054+779797655+760801477
1755+744451025+729342119+712598504+695890867+686370633+687577850+694832260
1745+702803385+709910454+716264511+721695054+725991860+728118276+725407256
1735+716157083+704711519+699543993+700667832+703105301+703980081+701226102
1725+693334549+680541597+664561210+645668906+620676236+586973008+552228749
1715+529476649+517546897+508479250+498609319+487156108+474414269+461995824
1706+452430283+446708008+443488307+442006079+444196584+452934237+470509039
1696+497910624+528604057+554190564+575000646+595201948+614824547+630919659
1686+645799178+669269199+703368192+736520574+764046909+786798946+805233173
1676+820708654+834524362+844987464+851311697+858946198+874681334+894401145
1666+908972339+916084611+920061734+927022160+936951231+944223027+944575896
1656+936368530+921195028+912505917+921634512+931574814+931896654+928390869
1646+933512326+947550061+959109335+962930932+959238338+949287058+936046056
1636+929164376+939186598+957682629+970896537+975479395+973874636+970207804
1626+966681397+963142044+961472689+964400660+968792140+968544478+962601414
1616+958279544+961553594+966859513+967553639+962669500+955057526+947881229
1606+941916654+936565365+932618510+932448198+937049839+943949666+949143017
1596+950560268+949397786+948552892+950122180+954520576+960912832+967633591
1587+973013752+976446755+978325319+978810807+976956039+971326249+962313268
1577+955884653+959846610+969391465+973949449+971001744+966752910+968464335
1567+973987395+977519132+976777288+970032988+952934346+925656117+912159203
1557+925740511+943800738+955714468+961499150+963463631+964913370+966107262
1547+962417777+949955612+930772308+910926413+897981425+903998413+926019202
1537+943823645+949553566+947732111+948063723+953497566+956670787+952403932
1527+943071649+934131577+926300812+917652312+911516094+911552644+914254146
1517+917979609+925586254+935086944+939143385+932788123+915862140+893258777
1507+882602331+902229181+931121941+947867713+951777194+946721475+937482279
1497+931150178+932404098+936075879+932812109+917668049+893847569+872507010
1487+858459948+843119687+817963876+781262053+738234981+699582383+674497768
1477+665280464+669747581+686068083+714857159+752008682+783926752+801641407
1468+805727418+801226734+796396912+796793120+798451688+794026831+779099722
1458+755915689+736202604+724039309+712572932+700594859+692770504+693828033
1448+704244686+719520794+734598671+747804773+759068033+767139480+770654022
1438+771817710+777654551+791418290+806999803+818976353+826730782+830951823
1428+830417919+822282955+805469096+782920050+757689743+727407715+689934478
1418+654755875+632858885+620912095+612317976+606389888+605471133+610087114
1408+618124867+628302424+642276958+660779525+680459550+698363871+714767625
1398+729902039+742079993+750781604+757976303+764724982+769431956+770199753
1388+767171778+762794258+758791119+753913008+746689438+737835727+728999783
1378+720368797+710576851+698855514+686159711+673012494+657806883+640383038
1368+625532709+619725056+625721295+643804302+672997074+706235500+732297946
1358+745247503+745848605+737773859+725085035+710565048+695369400+680227498
1349+666057715+653287733+641428003+629309887+615573243+599968696+584928194
1339+574331394+569082203+566232408+563011216+559057507+555378872+552874840
1329+551972774+552866210+555488712+559281437+563263383+566652729+569615726
1319+573125890+577865924+583934246+591981073+603469532+619028265+637290277
1309+655825968+672457269+685622443+694484657+699241443+701106999+701637223
1299+701929366+702301970+702306285+700839983+696644197+689306725+680243933
1289+672624598+669450742+670943504+674144137+675513861+673628508+669477329
1279+664965033+661417050+659024063+657203497+655356089+653330692+651221662
1269+648913640+646233522+643652964+642272834+642685540+644227796+645674363
1259+646325531+646330798+646420839+647447593+649868310+653635336+658719927
1249+665605032+675069110+687510716+702521458+718992473+735503973+750755651
1239+763982440+775124629+784476012+792124092+797793477+801119432+801853789
1230+799801614+794775465+786873695+776838783+765913607+755231778+745508681
1220+737278408+731009760+726710289+723530469+719932802+714375160+706010999
1210+694975730+682213363+669106756+657147720+647705217+641790835+639782380
1200+641365818+645816691+652222907+659500922+666591492+672756646+677477199
1190+680168232+680281751+677622446+672337784+664583228+654353067+641799084
1180+627640786+612961466+598567562+584786881+571707496+559166585+546641917
1170+533568053+519706024+505131022+490222853+475777965+462715522+451422597
1160+441505615+432189893+422816968+413073692+403181234+394155816+387743794
1150+385820844+389658685+399466082+414245692+432038238+450548991+467767339
1140+482334187+493773532+502500239+509462474+515741623+522392582+530282201
1130+539750530+550427282+561522007+572327064+582341163+590954573+597309518
1120+600659142+600871714+598797457+596363605+595951026+599127166+605979275
1111+615806946+628132747+642735225+659060613+676217569+693652201+711433293
1101+729636991+747615616+763933263+776769427+784411415+785993203+782424725
1091+776681416+772732720+773554263+779710088+789660416+801203129+812424318
1081+821716689+827840660+830343106+829518772+825783346+819310630+810279310
1071+799256161+787352901+776182285+767655681+763570939+765055451+772144943
1061+783721287+797838529+812406107+825907526+837471750+846274570+851233204
1051+851449837+846740261+837820685+826294660+814238730+803378722+794585800
1041+787915170+782633173+777314880+770606431+762267905+753358228+745268950
1031+738540640+732510771+725807462+716936872+704830242+689686690+673527742
1021+659542231+650674116+648628794+653492437+663623800+675988816+687183101
1011+694829087+698735776+700998429+704530357+710975153+719862558+729593588
1001+738926379+747556984+755720186+763545430+770726423+776662887+780902077
992+783478764+784916575+786043205+787682737+790196160+793301739+796497043
982+799435039+801774217+803174716+803762366+804177357+804948517+806115695
972+807472982+808932620+810720571+813296497+816914279+821297256+825899404
962+830320770+834326639+837754248+840718578+843795666+847693344+852601151
952+857920840+862650658+865943617+867298937+866444970+863265720+857994257
942+851524586+845329228+840781461+838447042+837906665+838005463+837303152
932+834647146+829600311+822519068+814396350+806455492+799538088+793856203
922+789491057+786998954+787263875+790763759+797135393+805484198+814985079
912+825034903+834887384+843475285+849823504+853540021+854810883+854133001
902+852207164+849830484+847606285+845819666+844679647+844557688+845913388
892+849008688+853632347+859158008+865016868+870957774+876653556+881410786
882+884599681+886078292+885976321+884342754+881092436+876115020+869505179
873+861766994+853647322+845783180+838634803+832475487+827032697+821269082
863+814074764+805532360+797419921+792315723+792190909+797610538+807734540
853+820831248+835056997+849004183+861673843+872332764+880654157+886762202
843+890998029+893790714+895701323+897406656+899570891+902450192+905291738
833+906426998+904690191+900995757+898202563+899175190+904945277+914510945
823+925833852+936772543+945585390+951312392+953987179+954424443+953595667
813+951897948+948973467+944554639+939456659+935275340+933026584+932402765
803+932151930+930577693+925791909+916332654+901927392+883446970+862344872
793+840664070+821249602+806966045+799270311+797511549+799464926+802716386
783+806161636+810425953+816377964+823010204+827282009+826525380+820682701
773+811771120+801650798+790840983+778794189+764185430+744970906+719229539
764+686689300+649470832+611338623+576336930+547917539+528714309+520414173
754+523195152+534887839+550776534+564594907+570223238+563323030+542618028
744+510565055+472667119+435360418+403762126+380560548+366384959+360893182
734+363373071+372579905+386566558+403291581+421862774+443200320+469221584
724+501116651+537989547+576758139+613583000+645915426+673246830+696117399
714+714951515+729614528+739233307+742215721+737208354+724863326+708776780
704+694219863+685343181+683303444+686704783+693116329+700036208+705414402
694+708620619+711166658+715656936+723658393+734642708+746659931+757756180
684+766987888+774416987+780455549+785467675+789787769+793634494+796807905
674+798737296+799286175+799431232+800721130+803667121+806274584+807183440
664+808070657+810511299+814702136+820129888+826438765+833345318+840115508
654+845848538+850037979+852528623+853021980+850966379+846519694+841599133
645+839129556+840887239+846362518+853549412+860276263+865112366+867872691
635+869344386+870237187+870507693+869952024+869227122+868767840+865002717
625+850560843+824544084+801104076+798901071+820886009+851402690+873843166
615+884365281+887546497+887375488+885546482+882929691+880030148+877257514
605+874904820+872756449+870481676+868315094+866459564+863817709+858298837
595+849037940+837932935+828365237+822464117+820167706+820800282+824360701
585+830508214+837115517+841196896+841200196+837574609+831703122+825467534
575+821055495+819576757+820345696+822288094+825251916+829571820+834844870
565+839678181+843072097+845865925+849910881+855488892+860234510+861031178
555+856808360+849030706+839384769+828024170+814776568+801003628+789291493
545+781838979+779299349+780484484+783330535+786438398+789525639+792844234
535+796738550+801538104+807519049+814632146+822082439+829053525+836363077
526+845843843+857117636+867159592+873500260+876000865+876330383+876381337
516+876464082+875763673+874713632+875198867+878321515+883330278+888205343
506+890165064+887446049+882166082+879299536+880880943+884003782+885341778
496+884002703+880389807+875353632+870701799+868161598+867192461+865303491
486+860814291+854829665+849706431+845417049+839368017+830022980+818685161
476+807303305+796797181+788965592+787113044+791941724+800040583+807765950
466+814084853+820184458+826771519+831655468+831481349+826889354+823969315
456+827102941+833947309+841447096+849144607+855568336+857562641+854578577
446+850025225+847573543+848669905+853337982+859464365+862226022+857983787
436+848616921+839544166+832372945+822873206+806830317+784905851+761722389
426+743157700+734794617+737548279+744399183+747577797+749582762+760627549
416+778228875+791442846+797799188+801343426+804662973+806017277+804411948
407+802726475+802771401+801430739+794473676+781363072+766320095+757500078
397+760410472+771158293+783585685+794562131+802183624+804037821+796802702
387+779276886+758798099+748980200+752276396+757576287+757138770+749825982
377+735164302+718065533+712377556
##END=
