##TITLE=X7477
##JCAMP-DX=5.0
##DATA TYPE=LINK
##BLOCKS=1


$$ === CHEMSPECTRA SPECTRUM ORIG ===
##TITLE=X7477
##JCAMP-DX=5.00
##DATA TYPE=INFRARED SPECTRUM
##DATA CLASS=XYDATA
##ORIGIN=ComPlat
##OWNER=
##XUNITS=1/CM
##YUNITS=TRANSMITTANCE
##XFACTOR=1
##YFACTOR=7.8865975e-010
##FIRSTX=3997.453
##LASTX=373.96442
##MAXX=3997.453
##MAXY=0.8468169569030645
##MINX=373.96442
##MINY=0.48784893758284675
##NPOINTS=2559
##XYDATA= (X++(Y..Y))
2559I55071285I55486884I55777478I55541072I54853396I54115763I53706815I53847010
2551I54545570I55483936I56142137I56249608I56004058I55710214I55385913I54902824
2543I54347256I53985695I53942011I54150000I54487905I54758622I54772529I54598701
2535I54515264I54675110I55012562I55395284I55588837I55202336I54057342I52631579
2527I51801516I52015701I52869270I53615896I53987811I54286870I54857099I55619899
2519I56051520I55833329I55284110I54830496I54475133I54136547I54070568I54402578
2511I54725066I54759076I54740937I54909399I55125397I55077784I54619937I53844290
2503I53046044I52649718I52938347I53806350I54909399I55896435I56404617I56123092
2495I55151246I54147429I53735308I53799473I54080393I54843647I55957276I56597263
2487I56379071I55717621I55245641I55197272I55156763I54749477I54186428I53728506
2479I53113233I52125364I51404432I51854193I53253957I54489113I54875389I54295334
2471I53131295I52195046I52145165I52890658I53836959I54643216I55083075I54774190
2463I53695932I52390942I51433304I51119054I51465122I52149473I52662944I53181402
2455I54143198I55375559I56359119I56575648I55763041I54188166I52667403I51950100
2447I52140706I52904791I54004287I55243072I56041998I55731299I54466970I53305425
2439I53026394I53397326I53830233I54294124I54821654I54609282I53306181I52208272
2431I52472943I53698577I54662866I54882190I54473470I53797810I53638191I54449285
2423I55303080I55126834I54078200I53296129I53698955I55202865I57069167I58220660
2415I58188766I57587852I57150412I57086776I57383719I58015392I58602400I58503772
2407I57612113I56507401I55794407I55579540I55607354I55762060I56111831I56638830
2399I57064103I56965777I56350277I55871269I56046532I56554637I56618651I55848898
2391I54516246I53372387I52971148I53073252I52996995I52280221I51139687I50214774
2383I49619377I49286233I49595873I50668690I51600632I51588993I50542174I48683883
2375I46810402I46208354I47250865I49083686I51186167I53413576I55362559I56516622
2367I56668834I56174409I55647485I55366791I55163489I54798905I54295788I53865905
2359I53624133I53471922I53388560I53806350I54959809I56166247I56572247I56078350
2351I55403900I55381151I56106692I57066521I57821310I58212800I58459559I59045205
2343I60079857I60721809I59864840I58003905I56628552I56206831I56225046I56004134
2335I55312452I54445053I53758964I53472979I53601914I53638342I53196594I52837074
2327I53873841I56346876I58664524I59620197I59119877I57921223I56851656I56161258
2319I55767955I55638491I55601232I55348955I54912724I54708590I54829211I54640949
2311I54240466I54436210I55368983I56487600I57240198I57544470I57546663I57173312
2303I56266311I55024426I53963022I53432092I53420529I53682782I53963626I54196026
2295I54416787I54700201I55109602I55541148I55782315I55796750I55665321I55479024
2287I55464362I55843230I56631802I57733641I58869414I59510837I59330358I58521608
2279I57610526I57019437I56750608I56474752I55891750I55109980I54532647I54313095
2271I54324810I54570284I55256221I56291629I57130989I57274661I56746906I56246661
2263I56434999I57109600I57706962I58128153I58310823I57760848I56354358I55049292
2255I54934264I55507441I55672274I55613022I55972769I56833593I57839675I58561966
2247I58568995I57700160I56569375I56229278I56907885I57719508I57690335I56640644
2239I55353037I54994649I56174031I58325410I60041918I60314071I59375478I58141304
2231I57283201I57047325I57275643I57429972I57123053I56660823I56725442I57639849
2223I58972803I59837255I59731144I59008476I58345589I57933996I57539105I57147162
2215I57128192I57728275I58626358I59127283I58721358I57506985I56195268I55491796
2207I55514318I55958409I56571113I57236721I57716559I57675068I57105746I56483973
2199I56363125I56886043I57692527I58241368I58295632I58153396I58223607I58489336
2191I58713649I58899115I59129173I59205052I58916801I58421166I57973900I57584754
2183I57207699I56931314I56789303I56693548I56645557I56776834I57155098I57598206
2175I57734623I57450680I57211176I57518397I58123845I58300847I57866354I57303607
2167I57014449I57016943I57112019I57046418I56734511I56400611I56320348I56505966
2159I56777288I56963207I56953987I56748342I56486769I56326848I56322767I56438324
2151I56572549I56644272I56725819I56956179I57270806I57416066I57285316I57057679
2143I56973788I57126756I57479324I57943821I58387081I58616004I58436810I57780650
2135I56829889I56015092I55746718I56019929I56378316I56424267I56256183I56206454
2127I56336371I56475130I56655306I57120332I57802038I58206754I58094975I57935583
2119I58252251I58820213I58944839I58335990I57360893I56633011I56536650I56974695
2111I57571906I58228898I59165450I60260336I60856488I60561737I59783293I59084204
2103I58498784I57886836I57508950I57749663I58473615I59038480I58936224I58288377
2095I57673330I57410019I57134919I56400914I55583244I55652322I56959126I58692639
2087I59716105I59687310I59197116I58986332I59240723I59563061I59445311I58805476
2079I58106841I57867412I58153623I58705487I59253572I59465944I59022760I58097469
2071I57410473I57508874I58218544I58883925I58982553I58468175I57640982I56847574
2063I56400536I56557434I57283427I58162239I58789680I59136579I59360590I59462468
2055I59369281I59255915I59473804I60054539I60509211I60339616I59613773I58804418
2047I58239781I58019472I58234037I58758089I58989430I58465605I57722380I57793422
2039I58789604I59700309I59713611I59099697I58632857I58579576I58475808I57840507
2031I56970991I56713123I57370266I58287168I58776454I59048532I59755480I60863139
2023I61551646I61295364I60555992I60108199I60086886I60047888I59692676I59201046
2015I58952322I59143003I59691012I60352313I60849458I61029408I61016938I61055936
2007I61163331I61194317I61204521I61381296I61658437I61749885I61584598I61419764
1999I61423542I61367163I60998195I60587055I60687649I61412585I62316865I62884903
1991I62873793I62438922I62034584I61802638I61222205I59848667I58026501I56298960
1983I54598097I52629992I50616013I49099783I48262767I47883748I47769702I47816107
1975I47783230I47367708I46328597I44392387I41527711I38544833I36784187I36924459
1967I38551484I40829152I43086943I44993679I46635365I48259064I49851399I51220025
1959I52243340I52760438I52662944I52278559I52113498I52223463I52395401I52702471
1951I53266502I53786323I53860387I53573271I53423855I53808618I54693549I55611813
1943I56021970I55827206I55460432I55357722I55462019I55312603I54559628I53318802
1935I52011318I50879853I49764410I48432136I47009850I45813236I44754930I43360381
1927I41551896I39946260I39097149I38951589I39316702I40268218I41767669I43379653
1919I44702102I45787692I46938656I48254152I49493844I50309321I50490782I49981844
1911I48842142I47300066I45689215I44270557I43200989I42538253I42098545I41504055
1903I40592368I39642591I39126777I39330079I40119634I41028297I41744315I42409696
1895I43133120I43512216I43207111I42681396I42734754I43523854I44531222I45315486
1887I45898941I46468264I47005239I47371033I47636309I48054250I48652519I49180424
1879I49556875I49984188I50502874I50796567I50580340I49971718I49417435I49300441
1871I49604942I50031348I50350284I50424122I50082514I49401866I48903586I49061391
1863I49811797I50788707I51715585I52428806I52871310I53125476I53246324I53203697
1855I53084967I53043853I53010448I52819464I52586611I52631957I53093205I53817914
1847I54558796I55179134I55684745I55998616I55837486I55061989I54008670I53190850
1839I52862921I53093658I53905508I55054809I55986524I56290571I56049858I55627382
1831I55247531I54893376I54561139I54435228I54679266I55164168I55559891I55643177
1823I55436323I55111415I54803666I54529548I54332367I54387614I54763157I55165303
1815I55155705I54601649I53778840I53087536I52786966I52974548I53636075I54539901
1807I55185179I55158501I54602480I54138361I54270621I54929276I55666606I56278479
1799I56990340I57879353I58488430I58367506I57667133I56892770I56395472I56245905
1791I56275833I56218924I56032399I55953497I56119767I56382095I56526145I56445125
1783I56148184I55798866I55665019I55895151I56388065I56896851I57231204I57353639
1775I57315926I57173236I57008478I56960865I57114815I57371777I57475394I57197119
1767I56547835I55830306I55445316I55606447I56173804I56740482I56949679I56755144
1759I56350579I55969822I55848141I56172065I56860120I57527391I57834687I57811787
1751I57724874I57655494I57362028I56650923I55745357I55109980I54976889I55145955
1743I55206568I54968727I54690679I54754088I55157292I55571832I55820481I55976548
1735I56077141I56087420I56121203I56402652I56926326I57329303I57267934I56808123
1727I56222778I55598133I54997371I54761721I55135374I55782239I56181891I56326394
1719I56579200I57013693I57326053I57306857I57020344I56553277I55937475I55342229
1711I55039543I55111945I55387349I55663356I55847235I55937399I56010406I56188617
1703I56512692I56870474I57094183I57086549I56825808I56366828I55898326I55630405
1695I55521044I55325526I54988528I54707531I54597265I54634676I54885819I55399743
1687I55941631I56179018I56100797I56025446I56223232I56630591I56936074I56913629
1679I56638452I56365695I56244771I56195193I56080013I55944352I55920923I55923039
1671I55749816I55537294I55680511I56234265I56806914I57081410I57034703I56712972
1663I56241143I55933091I55959392I56048497I55892204I55655950I55745433I56254595
1655I56940081I57548628I57946088I58080842I58017131I57941931I58034664I58300923
1647I58541787I58544357I58294801I57928781I57526257I57106728I56769049I56648655
1639I56739348I56907054I57079521I57284864I57452645I57354168I56896700I56361387
1631I56145992I56331307I56663619I56883096I56905164I56737383I56404919I56004058
1623I55703940I55615289I55706964I55861066I55935963I55825167I55577198I55386290
1615I55354850I55390825I55418713I55540090I55921528I56615779I57413646I57872854
1607I57762662I57480986I57660180I58377407I59145951I59581880I59664032I59442289
1599I58904557I58138205I57397852I57012408I57183288I57735455I58179697I58251722
1591I58260565I58602098I59088512I59177693I58810539I58515562I58630892I58958745
1583I59289850I59663352I59947900I59822593I59381676I59154944I59376385I59773090
1575I60091269I60290415I60227837I59682926I58834724I58353449I58747206I59731976
1567I60531884I60753401I60627186I60429477I60118175I59656852I59334741I59521267
1559I60183776I60862761I61231955I61449088I61737491I61984325I62115830
1552I62372036I62758235I62821569I62511098I62592873I63555650I64658925
1545I64751356I63704310I62411790I61643925I61490127I61715876I62095953
1538I62415266I62484268I62204935I61610899I60970685I60732012I61132646
1531I62000801I63036662I63980922I64473232I64240756I63531012I62958742
1524I62922918I63407821I64144018I64755966I64991086I64895028I64548128
1517I63836721I62861852I62244991I62477391I63185775I63554138I63360510
1510I63176177I63593363I64581307I65585425I66057102I65880478I65339420
1503I64693690I63975859I63294984I63013006I63338289I64006845I64591812
1496I64867744I64778715I64404608I64059900I64121042I64712433I65681710
1489I66692857I67250162I67041041I66423046I66093228I66135852I65971926
1482I65402075I65012172I65255455I65744137I65822132I65457095I65203156
1475I65394290I65661758I65408952I64609723I63783514I63269590I63051399
1468I63215175I63918192I64881651I65512040I65517632I64996074I64119531
1461I63116698I62316865I61898999I61753891I61732880I61876175I62307191
1454I63002047I63725773I64175381I64134042I63603037I62929946I62633609
1447I62870921I63319849I63734239I64127240I64287764I63816315I62854596
1440I62121876I62089680I62583048I63163706I63571748I63881690I64316031
1433I64847565I65133852I64967204I64537246I64142355I63894764I63811781
1426I63999514I64585766I65456415I66134720I66062468I65099917I63693200
1419I62432271I61466018I60513292I59422110I58412550I57671667I57054958
1412I56325865I55434358I54553053I53832273I52919226I51246251I49382216
1405I48904417I50061050I51226374I51522107I51977459I53324471I54681156
1398I55041810I54583586I54048651I53810204I53802496I53808844I53704774
1391I53601083I53728884I54157784I54710480I55173541I55516963I55855927
1384I56276967I56725593I56956028I56656137I55766066I54612607I53690869
1377I53398234I53883968I54990946I56306971I57295974I57548552I57123129
1370I56630970I56753102I57596090I58656286I59418331I59807704I60045092
1363I60309309I60713269I61417648I62515255I63859470I65048374I65502441
1356I64805393I63288333I61975785I61609387I62035416I62699134I63214570
1349I63315617I62916645I62406273I62305755I62518656I62402796I61628659
1342I60577003I59834534I59624505I59810349I60233884I60936978I62040328
1335I63328465I64093306I63807775I62937051I62512685I62832528I63197792
1328I63004995I62390401I61702801I61178370I61299597I62517447I64237507
1321I65045804I64564756I64125803I64819375I65863927I65861584I64807282
1314I63854784I63848360I64828671I66194501I66901450I66410425I65566984
1307I65562676I66225337I66432342I65837777I65023736I64306433I63547110
1300I62949521I63087601I64025513I65051095I65532748I65661229I66056875
1293I66917547I67854704I68293127I67812834I66430906I64592039I62653183
1286I60695433I59087605I58585093I59412360I60667545I61039385I60065498
1279I58767460I58862990I60961389I63996416I66794206I69070665I70294561
1272I69275479I66149684I63263166I62734655I64189062I65722371I66244382
1265I66145829I66439371I67560558I68336433I67054190I64799498I65010736
1258I68666705I73363597I76554917I77501370I76838483I75639224I74357361
1251I72275814I68871141I65110423I62270309I60669056I60593404I62765340
1244I66767451I70629821I72855870I73497368I73107617I71967158I70305141
1237I68523259I67284474I67345314I68657787I69862033I69652004I68476477
1230I67879644I68395912I69051317I68798436I67650495I66391152I65612633
1223I65188947I64786347I64673587I65379326I66650458I67617543I67983487
1216I68152478I68249746I67969353I67349622I66875375I66751882I66741226
1209I66811437I67234065I67912520I68390092I68648415I69017383I69358538
1202I69354306I69355212I69762271I70058684I69665834I69160299I69509541
1195I70563842I71155309I70484259I68765182I66617883I64647513I63738471
1188I64608968I66231232I65841102I62055368I57357267I55980251I59275943
1181I64699510I69474700I73118954I75968665I77369563I76568219I74317078
1174I72446468I72152398I73245621I74835462I76084676I76246714I74925323
1167I72982915I72334690I73873894I76186403I77225437I76619233I75593274
1160I75450131I76699874I78619533I79403117I78083314I76113395I75431312
1153I75626754I74927741I73179718I71988320I72588100I74545699I76111506
1146I75757578I73634088I71309410I70244075I70769261I72025504I72346782
1139I70370213I66510262I62861927I61607649I64028385I70178776I78093893
1132I84186847I86268619I85316650I83413089I81355879I79084559I77433048
1125I77779720I79671415I80657773I79254154I76709019I75101191I74527334
1118I73270335I70297206I66667312I64494393I65059407I67927787I71315532
1111I73373800I73629402I73077840I72751876I72798885I73187502I74127756
1104I75351729I76064724I75961712I75559037I75388535I75423679I75270408
1097I74652338I73799224I73304571I73353696I73392770I73024407I72757317
1090I73302379I74333781I74834252I74476168I73946675I73837012I73714124
1083I72947167I71794238I70739786I69407739I67093038I64089753I61680128
1076I60868127I61536304I62730801I63569178I63740587I63438959I63334587
1069I64227153I66117337I67883650I68435288I68165250I68382610I69418773
1062I70318972I70332954I69845784I69774514I70593695I71834898I72277478
1055I71392167I70216641I69843743I70236517I70644407I70554848I70132297
1048I69922948I70391299I71586854I73015110I73980458I74188521I73881376
1041I73457313I73209646I73304571I73542035I73419751I72849446I72320103
1034I72248985I72307936I71798621I70603898I69271397I68547595I68912179
1027I70155574I71521026I72201901I71894000I70973092I70022710I69503116
1020I69570380I69906850I70123227I70275515I70574801I70854209I70864563
1013I70812566I70984278I71256505I71369872I71342060I71394963I71653815
1006I72032381I72295616I72240521I71939195I71710498I71652077I71566447
999I71366925I71016700I70413443I69691455I69325435I69591693I70163963
992I70498165I70379812I69880776I69180780I68648869I68677663I69197559
985I69741638I69846842I69412046I68745910I68222916I67914863I67678987
978I67524583I67495108I67445529I67243814I66859126I66182106I65240718
971I64473685I64148326I64033600I63860452I63586410I63223564I62744632
964I62187704I61627677I61114206I60713572I60498026I60578289I61077249
957I61791075I62209999I62162310I62001859I61965809I61821230I61409864
950I61201044I61875872I63032656I63866574I64497416I65252205I66017802
943I66586520I67175266I68097458I69023126I69403884I69276083I69140421
936I69306994I69795525I70659749I71602196I72184291I72414121I72508593
929I72521517I72386838I72233719I72496500I73258545I73928308I74232885
922I74214293I73877597I73263911I72580542I71983483I71557908I71758187
915I72947545I74331513I75040729I75241235I75575286I76270747I76869242
908I76956156I76542825I75942213I75818720I76761016I77586394I77231786
901I76335819I75809575I76184665I76742802I76544336I75555334I74219584
894I73038011I72480554I73063328I74634049I76035098I76772126I77177068
887I77687894I78451299I79203140I79679956I79861568I79688345I79009814
880I77913794I76933181I76859493I77659175I78463391I78780815I78272105
873I76255328I72397343I67835734I64734351I64547902I66968184I70481765
866I73810485I76585148I78880955I80561488I80916020I78746805I73250005
859I65399278I58251042I55024729I56715466I61808684I67860070I73019041
852I76636465I79082746I80904608I81459722I79272746I73669760I64798818
845I55090482I49412069I49546596I53130237I57122222I59506529I60081369
838I60674423I63648534I67170202I69331330I70938931I72833498I75287866
831I78073035I80555215I82237864I83167161I83612461I83706404I84078470
824I86343819I89903274I92372380I93500671I94549606I96645587I99266299
817A001264408A002370177A002705362A002375392A001776141A001949288A004070436
810A007729125A011767967A016632036A022879847A029606892A035955598A041824389
803A047180390A053151437A062688969A072599701A073741822A063741003A041214935
796A002394815I44677917H74417558H12608838G76888892G65418021G69758794
789G84458848H04437967H23760169H39081090H48908763H51885973H48091396
782H40926381H35700600H35660015H40534212H48415924H57996384H68043911
775H76574151H82958303H88124529H93160612H98333338I02684616I05360273
768I06543660I06852166I07134446I08174690I09573018I10756934I11840633
761I13056519I14551284I16465804I18616880I20375258I21290346I21331762
754I20538278I18901806I16809151I15557745I16276030I18469581I21393811
747I24955535I28861966I32184412I34350831I35722782I36910099I38103387
740I39456746I41683702I45229101I49069024I51772645I52227015I49312761
733I42582390I33156334I23197762I14818449I09955287I09898226I14196374
726I21327152I29019771I32653368I26352654I08886022H88253464H75567690
719H73949433H79658303H88612229H98023547I05933147I11685399I15766035
712I18878679I21501886I23793083I25622427I26906256I27917932I29019997
705I30252132I31532710I32873298I34221367I35402259I36121074I35673053
698I33093756I28391120I23187030I19847049I19902674I22764856I26324085
691I28973290I30520354I31585917I32823644I34515739I36473112I38270639
684I39678262I40883642I42234507I43740761I45126014I46296628I47350854
677I48270779I48948781I49453410I49977084I50592962I51299986I52145770
670I53099931I53957202I54509974I54691283I54439989I53528907I51639705
663I48663704I45056483I41949507I40695909I41912928I44920671I48345902
656I51201433I53294618I54900707I56339923I57733414I58849084I59253195
649I58909394I58578895I59311994I61463750I64363040I66822849I67594643
642I65370937I59000238I48416189I35684389I24766138I19316573I20193646
635I25324653I32033107I38991267I45938922I52620016I58702086I64117566
628I68907871I73051841I76697002I80243081I83984150I87628252I90023670
621I89505437I84681046I74451076I57327565I32198999I00671466H67495599
614H37706871H14244403G98658886G92267327G95315202H05829569H20215752
607H34941504H47803523H58172932H66410613H73158442H79020356H84431075
600H89529811H94268195H98660435I02815591I06817627I10697001I14391741
593I17660376I20211708I22047327I23558794I25196248I27115529I29145833
586I30926355I32039455I32176477I31221711I29171454I26191674I22801435
579I19632108I16957660I14900450I14042498I15192178I18419397I22752537
572I26871340I29809703I31049244I30256364I27228441I22376691I17169729
565I13490105I12237943I12872338I14357806I16162891I18320769I20951836
558I23951114I27017883I29840992I32230514I34181160I35946113I37942407
551I40353091I42848195I44889836I46301314I47396956I48536206I49659282
544I50294281I49841952I47645302I43080595I36286512I28959989I23821349
537I22818364I25866693I31268795I37094054I42158100I46090605I49001610
530I51263936I53290536I55212312I56708286I57014675I55135223I50612839
523I44470534I39004342I36313115I37115291I40790758I46028556I51412294
516I55832725I58633311I59546132I58822329I57466323I56847574I57713235
509I59823500I62700494I66250882I70456069I74996063I79455039I83596136
502I87253994I89603158I88236119I80207938I65493070I48162930I32368291
495I18921683I07900798I02158070I04982841I15538926I29189139I41675918
488I51557326I59459369I66564073I73884549I82081268I91350351A001401203
481A011520452A020235252A024425021A019007350I98648381I61534717I12991523
474H65283305H31901187H19964912H27106195H45049945H65727623H84776235
467I01264446I15658489I28246088I38837619I47063510I52219835I52644881
460I45710150I29387076I04696857H76642019H52010600H35699920H28700117
453H28631720H31596082H34249973H35369724H36142575H39008989H45751679
446H56096300H68031970H79592551H90195494I00350038I10760259I21975982
439I33448364I40816681I34901335I07870113H63500969H18940388G92472444
432G89595676H02126138H18546027H32673812H44054821H53980896H62875795
425H70442728H76651995H81845127H86234950H89835670H92797464H95439565
418H97912674I00026869I01575822I02787325I04226767I06187842I08392881
411I10382676I12034263I13613220I15428130I17520936I19568699I20883741
404I20730017I19161792I17473398I17187868I18583400I20706664I22643328
397I24180339I25346193I25935392I25721282I24970726I24505547I25109637
390I26924697I29503842I32279942I34799532I36684955I37653400I37613798
383I36756753I35684011I35406643I36831575I40036952I44238512I48567721
376I52733306I56978474I61576587I66328726I70369609I72396814I71179267
369I66172508I57635768I45402778I27585846I02489475H73105084H47944776
362H35215017H36450250H46794870H60328241H73661635H85540169H95476522
355I03641573I10995455I18502230I26330812I34005368I40785317I45345641
348I45326596I37934169I21790440H98964482H75258353H57517225H49558802
341H50412143H56424380H64492088H73096091H81482130H89179737H96118172
334I02432641I08060946I12674023I15904417I17468259I16725940I12010456
327I01071724H82724392H57549723H26743727G91220962G52417318G13212283
320F77401342F48679537F30865024F28570351F45180240F77933708G15996394
313G46521923G63963161G72634579G80026174G88576896G94045204G90816549
306G77883940G59204900G38630159G16313213F91190391F65290409F43830357
299F31939315F32335226F44816789F66420438F92663843G19656065G45120194
292G67961494G87780615H04684802H18991705H31043084H41236928H49931095
285H57315056H63526363H68797944H73427648H77681583H81630866H84891944
278H86567943H85506688H80226038H67966520H44033432H03908625G48552379
271F88486997F40726026F18579733F23046040F44532695F72031738F99299515
264G24278439G46374019G65393156G81527061G95062019H06109053H14888018
257H21980327H27747845H31738620H33550129H34240828H35894834H39678452
250H45083804H50965972H56597980H61760277H66401922H70581942H74381810
243H76826125H74889159H65629599H50652554H36686958H30096707H31920912
236H38797903H46959024H54267257H59906672H63611690H65005710H63561431
229H59743425H55806764H54346009H55988903H59286562H62691387H65822547
222H68933983H72033401H74766119H76720393H77761619H78290735H79027083
215H80261711H81450766H81799252H81126238H79979279H79420159H81048620
208H85086102H88709647H89985465H89047628H86629614H83764560H81586654
201H80837306H81580003H83306411H85259324H86833747H88026052H89364599
194H91181473H93223190H95051854H96487215H97615204H98519786H99064546
187H99102864H98882330H98892684H99273593H99555344H98807282H96212416
180H92311805H89496632H89898173H92719619H95153732H95895295H96248240
173H97764393I00242643I02573139I04293880I05320897I04936587I01952727
166H95915549H88211367H81899392H79627165H81433232H85260458H89356059
159H93196133H96279378H96959723H93058205H84532877H75631175H72175864
152H76084336H84275764H92395544H98282474I02170389I04822466I06191244
145I05438873I01684503H94954359H86907511H80452392H78002257H79687701
138H83522562H87561631H91073398H93735149H95302241H96261617H97452562
131H98624461H98371051H96043577H93017015H91234831H90813564H90027939
124H87869003H85603352H85236954H87455898H91583695H96430380I00668369
117I03531835I05519514I07491699I09291644I10135161I09965188I09765740
110I10666392I12730631I14466562I14136819I11284311I05862407H96590378
103H80584954H54365734H16395026G69883572G23052124F85855099F65163666
96F62713077F76447181G01824320G32832637G62638672G83974022G92754346
89G91423660G86455672G84345483G89040184H00544232H15664119H30764884
82H44133422H55465155H63939317H68266938H68855685H68511431H70018364
75H73833044H78576944H83203022H87704245H91507589H92266383H86973565
68H73746508H53759379H33312438H21085872H21255467H31049281H45324442
61H61754760H79682110H96341275I08888667I15996999I13663857H95104985
54H58702576H14168145G78706749G64573976G70592787G86663510H03295619
47H16298967H25348195H31626388H36806143H41909035H46687249H50702586
40H54369286H58117610H61171380H62237773H61193146H58923716H56287283
33H55619106H60256141H68168916H74393449H77225399H77572374H76182133
26H72467516H66633868H61304698H59030431H59656058H61516541H63528933
19H65301368H67525829H72675127H81182769H89905958H96633154I01082002
12I01841553H96600354H86690680H78709583H79116339H87653910H99048751
5I07783351I09543770I02015531H87237027H72314851
##END=


$$ === CHEMSPECTRA PEAK TABLE EDIT ===
##TITLE=X7477
##JCAMP-DX=5.00
##DATA TYPE=INFRAREDPEAKTABLE
##DATA CLASS=PEAKTABLE
##$CSTHRESHOLD=0.93
##MAXX=3997.453
##MAXY=0.8468169569030645
##MINX=373.96442
##MINY=0.48784893758284675
##$CSSOLVENTNAME=- - -
##$CSSOLVENTVALUE=0
##$CSSOLVENTX=0
##NPOINTS=48
##PEAKTABLE= (XY..XY)
385.29667513682534, 0.6930028800513842
405.12812162627006, 0.6774827249548522
419.29344054730245, 0.6747923502331835
444.79101460515994, 0.6029887207686659
464.62246109460466, 0.647557378540052
495.7861627208754, 0.6185817125364093
508.5349497498041, 0.5226551296285508
545.3647789444876, 0.6981507548324015
570.8623530023451, 0.6924450405050557
589.2772675996871, 0.687849998858274
603.442586520719, 0.6937265400421088
626.1070967943701, 0.701510191418962
636.022820039093, 0.7089123136572175
657.2707984206409, 0.6946809295406334
670.0195854495696, 0.6935632827419003
694.1006276153244, 0.6737883098714377
709.6824784284595, 0.6546638614184432
753.594967083659, 0.48784893758284675
796.0909238467552, 0.49838510218307125
821.5884979046127, 0.4957281358770722
857.001795207193, 0.6700128323956195
885.3324330492569, 0.6587004665034657
984.4896654964814, 0.622722328435241
1014.2368352306485, 0.65350848513727
1041.1509411806096, 0.646673322506692
1070.8981109147771, 0.7114957579466825
1110.5610038936907, 0.7384324671976212
1133.2255141673181, 0.727789700247649
1171.4718752541044, 0.7194453480668942
1188.4702579593431, 0.7208685287507152
1238.0488741829554, 0.6248293520449882
1274.8787033776384, 0.7250279786330367
1307.4589368960346, 0.7418890004179627
1357.0375531196246, 0.7254463437025778
1391.0343185301012, 0.6892487413424218
1403.7831055590304, 0.7176001074426035
1436.363339077404, 0.7220635422822638
1477.442763948397, 0.6590514185148962
1493.0246147615321, 0.6036543850873547
1568.1008050430223, 0.7487630849845227
1585.0991877482606, 0.7545229802366935
1604.9306342377054, 0.7608471520760722
1898.1527359030665, 0.758438409328448
2046.8885845739019, 0.7565423253873942
2361.358664620811, 0.7492749101777375
3065.3750149960983, 0.7406514891671258
3100.788312298678, 0.741297782425035
3160.2826517670123, 0.7389146096038253
##END=


$$ === CHEMSPECTRA PEAK TABLE AUTO ===
##TITLE=X7477
##JCAMP-DX=5.00
##DATA TYPE=INFRAREDPEAKTABLE
##DATA CLASS=PEAKTABLE
##$CSTHRESHOLD=0.93
##MAXX=3997.453
##MAXY=0.8468169569030645
##MINX=373.96442
##MINY=0.48784893758284675
##NPOINTS=239
##PEAKTABLE= (XY..XY)
3988.953808647381, 0.7521501782911962
3971.9554259421425, 0.7523356679097573
3963.456234589523, 0.752787769477424
3952.1239794526973, 0.7506475456581809
3932.2925329632526, 0.752437055641238
3926.62640539484, 0.7529657486891858
3916.7106821501175, 0.7513164884354505
3903.9618951211883, 0.752172649573453
3881.297384847537, 0.750334381490012
3869.9651297107116, 0.7509185677926087
3857.2163426817824, 0.7501093153478765
3840.217959976544, 0.7507647278784749
3827.4691729476153, 0.7516135576354415
3817.553449702893, 0.750968337743452
3807.6377264581706, 0.7520960573045122
3800.555066997654, 0.7518262867731077
3789.2228118608286, 0.7548158174884659
3777.890556724003, 0.753627121121515
3766.5583015871775, 0.7538571960417227
3756.642578342455, 0.751569987338893
3746.7268550977324, 0.7486638431962217
3735.394599960907, 0.7462364439135515
3711.3135577951525, 0.75189918338246
3701.39783455043, 0.7534706597023723
3684.3994518451914, 0.7541218402847523
3675.900260492572, 0.7519657612498952
3670.2341329241594, 0.7514642485715715
3650.4026864347147, 0.7529402379122525
3646.153090758405, 0.7525710473554434
3629.1547080531664, 0.7519243960460077
3612.156325347928, 0.7535362848688295
3590.90834696638, 0.7526283269244263
3579.576091829554, 0.7541532526025947
3566.8273048006254, 0.753118217912674
3562.577709124316, 0.7536535270272645
3551.2454539874902, 0.7541395433301604
3542.746262634871, 0.7531658411316777
3531.414007498045, 0.7547847040726687
3525.7478799296323, 0.7544798855019742
3510.166029116497, 0.754848480620672
3500.250305871775, 0.753557920960411
3487.501518842846, 0.7542451030717188
3480.41885938233, 0.755657017751011
3459.1708810007817, 0.7544678458222307
3450.6716896481626, 0.7549139267613659
3442.1724982955434, 0.7547587760947277
3433.6733069429242, 0.754211366573593
3422.341051806098, 0.7542132743415282
3408.1757328850663, 0.7547267084006329
3394.0104139640343, 0.7537589676812004
3386.9277545035184, 0.7541215429600264
3375.595499366693, 0.7554852374048843
3365.6797761219705, 0.7543819552548374
3348.6813934167317, 0.7551487691297625
3334.5160744956997, 0.753630042317229
3324.6003512509774, 0.756313920848537
3316.1011598983578, 0.755431473681067
3306.1854366536354, 0.7550711042835617
3294.85318151681, 0.754274607621626
3282.104394487881, 0.7565265301099212
3270.7721393510556, 0.755551397282652
3263.6894798905396, 0.755317092780205
3248.107629077404, 0.7545211324068992
3226.859650695856, 0.7562870985304395
3218.360459343237, 0.7579153780688455
3205.6116723143077, 0.758233070721299
3199.945544745895, 0.7575763466495362
3173.0314387959343, 0.7474678162368945
3161.6991836591087, 0.7388039827233732
3141.8677371696635, 0.7508935933043055
3130.535482032838, 0.7519270191283363
3120.6197587881156, 0.7534521821930895
3097.955248514464, 0.7405133254428428
3065.3750149960906, 0.7406514891671258
3052.626227967162, 0.743454874099011
3024.2955901250975, 0.7486750484739497
3014.379866880375, 0.7483620649088635
2994.5484203909305, 0.7512667184846072
2977.5500376856917, 0.7514846330601297
2961.9681868725565, 0.752724648305673
2949.219399843628, 0.7526435259751282
2937.8871447068022, 0.7514247304088185
2927.97142146208, 0.7524905212516697
2910.973038756841, 0.7541526563758237
2905.3069111884283, 0.7539220459556457
2895.391187943706, 0.7536945349682852
2882.6424009147768, 0.7547165165506837
2872.7266776700544, 0.753521264055231
2861.394422533229, 0.7538389559190247
2844.3960398279905, 0.7531518345345177
2838.7299122595778, 0.7529261122274702
2814.6488700938235, 0.7529821401934297
2796.2339554964815, 0.7532012472224943
2767.903317654417, 0.7528524403655837
2757.987594409695, 0.7539787892359985
2742.4057435965597, 0.7538963561529493
2738.15614792025, 0.7535938034017164
2726.8238927834245, 0.7539059525647872
2721.1577652150118, 0.7536873826130125
2709.825510078186, 0.7554902438169773
2695.660191157154, 0.7544702890901362
2682.911404128225, 0.754073859014222
2670.1626170992963, 0.7536553149189177
2660.2468938545735, 0.7534499171622875
2647.4981068256448, 0.7551267150485135
2633.332787904613, 0.754757166440178
2619.167468983581, 0.7559426434980294
2607.8352138467553, 0.756446898346304
2596.5029587099298, 0.7558147914999778
2583.7541716810006, 0.7565886970033747
2566.7557889757622, 0.7590937619209055
2555.4235338389362, 0.7582885631872882
2544.0912787021107, 0.7576906684009169
2531.342491673182, 0.7594185477791505
2518.593704644253, 0.7588838940408122
2511.511045183737, 0.7596182829587758
2497.3457262627053, 0.7594895965587085
2487.430003017983, 0.7603152397190249
2476.097747881157, 0.761918843671173
2470.431620312744, 0.761066258316477
2463.348960852228, 0.7612168797101709
2453.433237607506, 0.7595198755724902
2436.434854902267, 0.7584800127075799
2423.6860678733383, 0.7591903814155377
2410.9372808444095, 0.75876140650638
2393.938898139171, 0.7601195582505147
2362.7751965129005, 0.7483627202851157
2347.1933456997654, 0.752225638044736
2342.943750023456, 0.7520667917185092
2323.1123035340106, 0.7519068128768814
2313.1965802892882, 0.7544563416424575
2289.115538123534, 0.7583826187490732
2279.1998148788116, 0.7589318161618612
2270.7006235261924, 0.7568172222071737
2257.9518364972632, 0.7590950135239287
2249.452645144644, 0.7580426929896075
2240.953453792025, 0.7603672147625292
2232.4542624394057, 0.76014840663551
2223.955071086786, 0.7615004186634909
2214.0393478420638, 0.7594395284944797
2191.3748375684127, 0.7559974797991067
2184.2921781078967, 0.756141305311735
2170.1268591868647, 0.7592700723286362
2164.460731618452, 0.7619603279626828
2157.378072157936, 0.7608985308928055
2137.546625668491, 0.757581353850289
2123.381306747459, 0.7628583314437215
2114.8821153948393, 0.763327718067129
2102.1333283659105, 0.7607992299550232
2086.5514775527754, 0.7624298936118534
2075.21922241595, 0.7644907246313835
2068.136562955434, 0.7643377191192652
2056.8043078186083, 0.7600617416042422
2048.305116465989, 0.7539431457585972
2034.1397975449568, 0.7666974671685804
2024.2240743002344, 0.7668412335317275
2015.7248829476152, 0.7692982564519272
2007.2256915949959, 0.769283414664092
2001.559564026583, 0.7665680654541199
1991.6438407818607, 0.7651924496284812
1981.7281175371381, 0.7583812480584278
1967.5627986161062, 0.770862103277418
1951.9809478029708, 0.7606579068597817
1942.0652245582482, 0.767170251338191
1930.7329694214227, 0.7692496781659662
1923.6503099609067, 0.7676061396387173
1917.984182392494, 0.7671745424358907
1896.736204010946, 0.7577980168227882
1888.2370126583264, 0.7597432145497732
1881.1543531978105, 0.7635529640236874
1872.6551618451913, 0.7648221257676114
1864.1559704925721, 0.7648767238934442
1857.0733110320562, 0.7649391896889429
1845.7410558952306, 0.7675312761119485
1837.2418645426114, 0.7667736414478538
1830.159205082095, 0.7638545041358012
1818.8269499452695, 0.764608085088781
1807.494694808444, 0.7656407955984185
1801.8285672400311, 0.766058386204085
1781.9971207505864, 0.7644679552357412
1772.0813975058636, 0.7639343748633227
1732.4185045269742, 0.7575061330606535
1718.2531856059418, 0.758060575060779
1699.8382710086003, 0.7643220421407547
1685.6729520875683, 0.7667616017681103
1671.5076331665364, 0.766228616833803
1654.5092504612976, 0.76958894776052
1647.4265910007816, 0.7695817354671062
1637.5108677560593, 0.7669562705975015
1616.262889374511, 0.7704097635345067
1603.5141023455822, 0.7607001072543444
1586.5157196403438, 0.7531895640169577
1568.1008050430023, 0.7487630849845227
1493.0246147615321, 0.6036543850873547
1477.442763948397, 0.6590514185148962
1436.363339077404, 0.7220635422822638
1403.7831055590304, 0.7176001074426035
1391.0343185301012, 0.6892487413424218
1357.0375531196246, 0.7254463437025778
1307.4589368960123, 0.7418890004179627
1290.460554190774, 0.7559925916859762
1274.8787033776384, 0.7250279786330367
1238.0488741829554, 0.6248293520449882
1188.4702579593431, 0.7208685279620555
1171.4718752541044, 0.7194453480668942
1133.2255141673181, 0.727789700247649
1110.5610038936666, 0.7384324671976212
1096.3956849726346, 0.7546271684989465
1070.8981109147771, 0.7114957579466825
1041.1509411806096, 0.646673322506692
1014.2368352306485, 0.65350848513727
984.4896654964814, 0.622722328435241
940.5771768412819, 0.723349154679913
927.8283898123532, 0.7291203135706332
912.246538999218, 0.7377175692167193
885.3324330492569, 0.6587004665034657
857.001795207193, 0.6700128323956195
821.5884979046127, 0.4957281358770722
796.0909238467552, 0.49838510218307125
753.594967083659, 0.48784893758284675
709.6824784284595, 0.6546638614184432
694.1006276153244, 0.6737883098714377
670.0195854495696, 0.6935632827419003
657.2707984206409, 0.6946809295406334
636.022820039093, 0.7089123136572175
626.1070967943701, 0.701510191418962
603.442586520719, 0.6937265400421088
589.2772675996871, 0.687849998858274
570.8623530023451, 0.6924450405050557
545.3647789444876, 0.6981507548324015
529.7829281313525, 0.717495621066965
508.5349497498041, 0.5226551296285508
495.7861627208754, 0.6185817125364093
481.62084379984344, 0.6849600080446022
464.62246109460466, 0.647557378540052
444.79101460515994, 0.6029887207686659
419.29344054730245, 0.6747923502331835
405.12812162627006, 0.6774827249548522
385.29667513682534, 0.6930028800513842
##END=

##END=

