##TITLE=HMS-Q11
##JCAMP-DX=5.0
##DATA TYPE=LINK
##BLOCKS=1


$$ === CHEMSPECTRA SPECTRUM ORIG ===
##TITLE=HMS-Q11
##JCAMP-DX=5.00
##DATA TYPE=INFRARED SPECTRUM
##DATA CLASS=XYDATA
##ORIGIN=Angelika Moesle
##OWNER=
##XUNITS=1/CM
##YUNITS=TRANSMITTANCE
##XFACTOR=1
##YFACTOR=8.5669438e-010
##FIRSTX=3997.453
##LASTX=373.96442
##MAXX=3997.453
##MAXY=0.9198685853350548
##MINX=373.96442
##MINY=0.5309339149898215
##NPOINTS=2559
##XYDATA= (X++(Y..Y))
2559I88166678I87831674I87913216I88051114I88177740I88601662I89354465I90024543
2551I90302426I90226520I89928947I89517132I89108726I88734689I88373942I88149423
2543I88211484I88437047I88585729I88694962I88960600I89334427I89598256I89736363
2535I89946550I90290738I90537869I90449091I90120905I89886019I89936113I90233477
2527I90708258I91226245I91464401I91198554I90619759I90074498I89740259I89682651
2519I89899934I90242314I90487009I90469963I90168842I89793415I89639097I89619059
2511I89273201I88496673I87767595I87568121I87935480I88607715I89323713I89894577
2503I90239391I90387865I90325873I90036301I89670127I89368380I89024540I88546837
2495I88241471I88571466I89487980I90333040I90696987I90800585I90823057I90566395
2487I89915380I89155967I88741577I88726688I88598531I88186994I88144831I88954895
2479I89899517I90161537I90152909I90311680I90087578I89322528I88873144I89131824
2471I89403863I89362397I89594291I90074081I90153466I90022178I90254837I90621776
2463I90513657I89926094I89156524I88410121I88128899I89054109I90838155I91502389
2455I90717442I89745338I89376799I89719387I90466485I91026565I90942727I90510593
2447I90509552I91063439I91453687I91364352I91152635I91011745I90775746I90456883
2439I90331924I90324830I89978276I89414508I89488467I90249271I90543365I90419174
2431I91209894I92918939I93843524I93159391I91562154I90253446I90137325I90796758
2423I90863272I90290042I90495150I91911421I92966877I92800244I92183043I91840455
2415I91646549I91286010I90860697I90745620I91188884I91994633I92491400I92130444
2407I91280027I90898686I91298462I91720368I91512686I90900842I90302218I89877601
2399I89739146I89972501I90495915I91167246I91697547I91587132I90747777I89918859
2391I90027118I91041315I91848316I91600908I90559646I89931313I90862159I92406101
2383I92385715I90741933I89341385I89681955I90798010I91126614I90760509I90378890
2375I90408529I91043471I92151943I93096008I93211851I92484164I91580105I91239952
2367I91495362I91728995I91807963I92190070I92799340I93010570I92621158I91980092
2359I91542184I91726560I92559792I93288242I93311134I92915600I92604181I92602442
2351I92874063I93194596I93379875I93458912I93390937I92984131I92258114I91561180
2343I91305283I91678693I92345779I92642169I92468092I92291093I92435740I92710562
2335I92530780I91647593I90883240I91494388I93012865I93756972I93930632I94745844
2327I95996735I96507417I96230438I95775973I95310377I94691575I93981422I93613856
2319I93987475I94641829I94430738I93168853I91980857I92208577I94176928I96401385
2311I97348581I97114808I96519662I96078625I95824607I95670845I95689144I95899609
2303I95986090I95454606I94329576I93674108I94853824I97222580I98433675I97964251
2295I96743068I95518754I94748905I94631601I94753497I94647047I94652613I95280529
2287I96209079I96672032I96608232I96588194I96774099I96786622I96539491I96404655
2279I96560155I96661665I96456836I96292917I96544222I96856963I96553337I95689979
2271I95130873I95574693I96528011I96878879I96504147I96039246I95831912I95807004
2263I95874074I96039107I96229393I96310172I96237465I96082661I96040011I96396027
2255I97139994I97655129I97488914I97009402I96841934I97106320I97377246I97381977
2247I97450717I98022416I98884383I99314357I99055538I98608865I98521129I98868311
2239I99382610I99700778I99521830I98832132I97936352I97177356I96768044I96814244
2231I97207274I97623890I97890641I98142085I98442998I98636347I98702583I98780368
2223I98762209I98429083I97962929I97777372I97876726I97844373I97454613I96949706
2215I96741398I97008637I97545409I98032296I98448634I99016854I99723807A000268093
2207A000527261A000588417A000375170I99788092I99129913I98834984I98876034
2200I98925154I98929885I99094013I99446967I99798670I99988053I99986523I99915278
2192A000027363A000502562A001183076A001651595A001639907A001261209A000825043
2185A000582643A000657297A000963497A001143279A000902688A000517451A000626127
2178A001403282A002297531A002682838A002520659A002308037A002503542A003049010
2171A003441834A003278680A002693483A002180993A002071064A002242497A002334128
2164A002195464A001994740A001907075A001912363A001925026A001975050A002252794
2157A002928230A003816983A004412198A004472103A004324603A004407676A004842590
2150A005585514A006556018A007462163A007911342A007869177A007712148A007711591
2143A007729055A007581486A007470026A007781097A008567366A009442134A009911280
2136A009701023A008857355A007428699A004687855I98716567I87195270I68898256
2129I44654306I17475955H92044635H73245289H64096921H64574623H72255791H83996877
2121H97152634I09862554I20996736I30156027I37543238I43584032I48581963I52697612
2113I56169621I59373765I62515292I65383598I67666011I69404346I70862711I72063021
2105I72838088I73341882I74090441I75297988I76454188I76920341I76818066I76882979
2097I77472977I78243173I78828579I79321241I79938163I80616521I81151624I81548759
2089I82045943I82774395I83535547I84069536I84445312I84930807I85526440I85913695
2081I85897832I85672130I85539311I85531032I85490887I85446985I85633586I86161522
2073I86881555I87554764I88023423I88296227I88521163I88776713I88952112I88968323
2065I88967210I89137877I89460358I89729058I89813661I89862990I90122366I90529728
2057I90738663I90629082I90524093I90776025I91328103I91795788I91932155I91900985
2049I91970282I92089603I92066783I91973343I92005696I92160918I92372774I92697203
2041I93100043I93361229I93397547I93405548I93499892I93468096I93123490I92698873
2033I92569463I92748341I93014257I93325258I93711957I94004451I94034577I93908855
2025I93880468I94129060I94641690I95169696I95454745I95543384I95626456I95659018
2017I95451058I95029502I94666250I94598901I94824603I95126976I95308359I95415783
2009I95670289I96201913I96914640I97541861I97762762I97403336I96666675I96066658
2001I95927299I96038828I96013225I95783696I95509640I95278511I95212484I95535939
1993I96211653I96817792I97030831I96970370I96923824I96969744I97018377I97072507
1985I97251454I97554732I97808333I97905530I97895024I97791983I97553967I97284919
1977I97196211I97330630I97538938I97736949I97952493I98112029I98084547I98021025
1969I98299743I98943661I99437296I99348379I98858779I98518696I98687346I99295850
1961I99990697A000411557A000354297I99837562I99188774I98882435I99028195
1954I99211803I99087471I98827192I98778211I98962237I99082324I98888418I98487943
1946I98275252I98500050I99016019I99482451I99636003I99382471I98831853I98207764
1938I97669809I97339953I97341067I97546105I97551392I97232460I97036188I97415721
1930I98223558I98890575I98997512I98556962I97959868I97742237I98179099I98968847
1922I99485095I99459491I99235389I99249442I99506941I99656806I99364869I98516052
1914I97201012I95642459I94168092I93185412I92965137I93285461I93456755I92974321
1906I92090856I91471428I91314049I91145608I90531816I89610502I88791324I88253647
1898I87915720I87669981I87495695I87456455I87630114I87949534I88149910I87986548
1890I87542797I87208906I87255172I87560678I87912381I88372968I89116168I90089387
1882I91059961I91829949I92290397I92485625I92696368I93238846I94085645I94850624
1874I95243237I95403955I95668271I96070833I96264809I95957704I95272736I94601197
1866I94202252I94072495I94180824I94630906I95471373I96504147I97423513I98034870
1858I98299534I98309901I98243735I98241160I98329521I98424700I98358325I98055673
1850I97773407I97916036I98551048I99364799A000086363A000650478A000982909
1843A000959810A000653122A000388389A000438761A000757484A001117745A001430555
1836A001766464A002104321A002254742A002092841A001744826A001434660A001215498
1829A001002459A000839514A000888217A001121989A001280760A001214524A001078992
1822A001130408A001419910A001733277A001846684A001815723A001895664A002184124
1815A002537565A002836182A003078930A003183849A002969766A002438421A001813149
1808A001143418A000097704I98248118I95350313I91450347I87220108I84104254
1801I83414834I85108989I87895683I90493271I92389194I93604394I94307729I94738330
1793I95142353I95585685I95883467I95792393I95257986I94459264I93672230I93083554
1785I92590962I91693234I89668388I86087007I81444813I77312745I75389061I76010298
1777I77770271I78798729I78265507I76721217I75411673I75376329I76902460I79528853
1769I82427423I84812390I86246125I86782550I86754024I86334416I85419085I84033427
1761I82722352I82295370I83119696I84748381I86243621I86787350I86089512I84423674
1753I82271505I79876381I77286723I74840740I73217482I72755989I72937301I72797109
1745I71833214I70430231I69485749I69728288I71299225I73738391I76266056I78234616
1737I79501231I80416353I81445370I82787196I84300176I85727582I86920028I87858251
1729I88594216I89253929I90001027I90903765I91867311I92693516I93211712I93447363
1721I93673899I94175049I94939471I95693249I96201426I96435616I96473743I96348160
1713I96032984I95555003I95079944I94855912I95030267I95477983I95885554I96080643
1705I96202052I96440555I96769646I97076818I97359087I97597173I97626116I97345032
1697I96909005I96574348I96452244I96496911I96615467I96713081I96732841I96741050
1689I96889524I97210404I97520362I97617071I97520710I97450230I97606774I98017198
1681I98532263I98928143I99062843I99005304I98981927I99115929I99267324I99240399
1673I99093456I99077662I99306495I99634681I99848764I99869984I99798739I99797626
1665I99899554I99982557I99980122I99989167A000070639A000144945A000204850
1658A000405922A000790046A001156151A001334194A001345465A001233449A001035855
1651A000933371A001086088A001343934A001427633A001313460A001170135A001055754
1644A000907211A000712957A000544028A000485168A000576103A000793316A001107378
1637A001514045A001929409A002167565A002146275A002003924A001912015A001890447
1630A001885437A001903944A001975537A002077465A002184819A002332040A002532904
1623A002699328A002732863A002642693A002498255A002364254A002338441A002515162
1616A002834511A003096741A003170212A003093123A003001145A003060701A003393062
1609A003921483A004372887A004551210A004537295A004511413A004501533A004447890
1602A004403919A004482469A004650563A004753047A004751447A004802654A005058760
1595A005491379A005948974A006294415A006456108A006470788A006496879A006629698
1588A006708109A006483033A005935199A005259415A004667122A004336153A004339423
1581A004526858A004687855A004812534A004987446A005187892A005399539A005761400
1574A006393699A007169810A007738378A007809831A007496117A007268050A007439622
1567A007848585A008171134A008316408A008342568A008210097A007837105A007325380
1560A006940281A006849834A006998516A007203206A007270763A007135231A006988079
1553A007063847A007276329A007409914A007617456A008247459A009220537A009994561
1546A010142617A009737201A009185750A008803434A008650786A008777065A009266944
1539A009861464A010033593A009750630A009655521A010181440A010915179A011106789
1532A010530290A009674585A009231182A009511362A010262982A010894655A010884775
1525A010127727A008961927A007870223A007190126A007043322A007387649A008115962
1518A009098642A010055857A010549840A010360805A009777695A009341320A009370333
1511A009781452A010263051A010618372A010925059A011290398A011631456A011885683
1504A012197519A012631251A012934390A012867667A012596950A012511790A012716202
1497A012896889A012733178A012318510A012049046A012103106A012225697A012116882
1490A011807481A011480965A011227433A011202107A011666102A012583313A013494817
1483A014035903A014273363A014393102A014379118A014178533A013965772A014027066
1476A014411818A014864544A015133799A015185772A015076887A014792394A014282478
1469A013594240A012961872A012732970A013097265A013903432A014778688A015371606
1462A015572888A015602179A015759976A016079534A016419827A016734654A016966270
1455A016950268A016758727A016757266A016952285A016686021A015490233A013955335
1448A013148959A013302303A013710013A013888961A014084328A014510893A014856403
1441A014821268A014615534A014663819A015109587A015730198A016195238A016364097
1434A016343990A016256742A016063671A015718787A015380165A015291874A015511940
1427A015850632A016046138A015979903A015805269A015795319A015947968A015925286
1420A015564609A015181041A015151680A015461081A015829551A016055114A016119540
1413A016131925A016220981A016444665A016815779A017296056A017708915A017859545
1406A017690825A017271285A016987282A017450791A018459144A018741132A017667935
1399A016141804A015090176A014413070A013800809A013379740A013400961A013865444
1392A014486263A014997154A015421214A015843953A016189811A016408555A016623195
1385A016939970A017281584A017420526A017053378A016001679A014516529A013225492
1378A012685032A013066304A014131082A015331741A016072020A016151058A015936279
1371A015965849A016441117A017117526A017530316A017320964A016538731A015677738
1364A015302867A015617903A016371054A017052752A017202965A016735350A016084752
1357A015925008A016565030A017568999A018124209A017834081A017028609A016333066
1350A016119192A016262030A016321308A016123993A016078630A016559325A017282767
1343A017831993A018364104A019151278A019887731A020106266A019927667A019853500
1336A020029664A020138410A019955288A019663072A019559614A019750040A020202628
1329A020809393A021287304A021243959A020475849A019295368A018608174A019246665
1322A020901928A022243197A022476900A022110657A021917586A021995649A022092776
1315A022071347A021848985A021443292A021165409A021392224A022119006A022943332
1308A023427227A023400232A023014090A022586481A022359388A022305189A022147323
1301A021673238A021163113A021319796A022396819A023569996A023708311A022742051
1294A021760903A021797360A022922181A024417352A025493053A025909460A026028156
1287A026193257A026139267A025234373A023384995A021605263A021295027A022612781
1280A024033575A024216001A023684725A023666009A024120405A024254963A024169177
1273A024625868A025652519A026438858A026346601A025310001A023571596A021532418
1266A019682484A018410441A017969613A018728748A021236584A025540920A030376881
1259A033891192A035241645A034900936A033928971A033342174A033649766A034499348
1252A034939411A034329028A032852574A031206773A030092458A029714595A029458837
1245A028623309A027611408A027457508A028198274A028886581A029067754A029166899
1238A029538779A029973345A030109225A029837743A029270984A028523260A027618783
1231A026643687A025839537A025374567A025191584A025251766A025647927A026264154
1224A026640626A026444563A025930820A025758900A026375057A027569871A028635554
1217A029046326A028949060A028807333A028693441A028348696A027855617A027701160
1210A028138648A028940084A029770047A030358304A030419670A029862164A028975220
1203A028116941A027349527A026471418A025291215A024072746A023824015A025570490
1196A028937301A031955611A032854174A031775481A030215954A029192642A028580590
1189A027903971A027069765A026204111A025339431A024689112A024948001A026748815
1182A029711534A032520979A034016079A033810345A032126486A029638060A027464813
1175A026631303A027078253A027741583A028209545A029293944A031005910A031716411
1168A030712094A029750774A030631039A032950395A035217851A036646646A037351373
1161A037851966A038379624A038294325A036866991A034659371A033353376A034243590
1154A037098953A040402104A042797507A044108790A044730166A044775181A044250932
1147A043274375A041778649A039682836A037491497A036152732A036156907A036904561
1140A037080932A035932805A034211307A033277261A033496005A034272394A035260152
1133A036714830A038828106A041196026A042928935A043380338A042854211A042267066
1126A042166043A042262753A041756872A040225453A038371901A037416008A037468190
1119A037388178A036635305A036123719A036813766A038409889A039958911A040998363
1112A041468344A041071974A039521492A037310602A035649773A035352409A036037794
1105A036573314A035938858A033869136A031119178A029096907A028893191A030344181
1098A032127670A033054690A033149938A033217843A033684693A034384897A035276016
1091A036479248A037580345A037788235A036957995A035832617A035351018A035842705
1084A036746347A037216328A037097354A037023187A037428114A037883414A037734106
1077A036927104A035835052A034721015A033676900A032705422A031624642A030126619
1070A028064620A025489505A022451506A019191075A016514240A015476179A016483836
1063A018974974A022089715A025289476A028212259A030527581A032152787A033173315
1056A033547560A033354698A033145068A033496074A034391853A035208319A035349209
1049A034885282A034379748A034127817A033840263A033133866A032121548A031381129
1042A031433101A032415919A034205045A036407447A038218071A039083586A039280553
1035A039397648A039744410A040220931A040557674A040654314A040701556A040960862
1028A041371286A041632123A041718675A041876541A042175575A042423958A042529295
1021A042656061A042956974A043274167A043291491A042945911A042456867A041942290
1014A041242642A040243611A039087551A037984229A037105216A036718865A037097911
1007A038081147A039066609A039666417A040091311A040806197A041813436A042548915
1000A042827633A043074695A043597830A044212944A044562699A044599713A044524432
993A044433289A044258446A043966092A043652795A043415126A043083948A042253430
986A040809328A039082820A037479322A036194477A035320683A035045722A035449466
979A036328270A037482592A038739743A039848634A040784281A041758263A042705459
972A043204731A043199234A043100020A043078800A042966297A042753466A042793750
965A043286621A043878149A044245714A044619333A045347089A046172737A046710553
958A047048061A047286844A047390163A047429404A047552413A047743327A047876007
951A047983848A048296936A048892082A049401094A049541705A049459676A049380848
944A049395250A049544767A049906697A050446530A051010298A051703684A052881798
937A054375161A055347752A055653605A055722901A055631688A055394228A055276577
930A055415101A055609911A055732085A056015395A056517102A056582850A055850850
923A054676491A053405770A052252910A051402841A050939401A050857859A051377446
916A052911926A055218273A057184675A058293286A058941170A059625998A060473354
909A061293923A061909803A062255661A062380548A062448801A062548363A062493329
902A062310764A062265053A062403995A062339568A061708035A060747967A059818025
895A059043932A058462771A058244305A058610062A059252866A059464236A059138207
888A058694735A058637057A059219053A060330655A061910359A063971871A066054742
881A067588109A068628119A069424615A069575315A068011892A063598322A054760747
874A039582509A017872138I93273075I71969721I58890496I55464476I59895231
867I68523524I77437701I83484687I84118169I77207686I62050182I40575950
860I16873225H94839608H75451100H56674783H37262410H20181570H10935658
853H12301697H22596176H39767881H63187504H88383312I08645128I24319367
846I39912759I57064148I72775123I84787620I93929727A000753241A005055838
839A007612656A010536691A015058102A019535124A023676307A028445266A033761434
832A039018046A043844335A047776723A050336532A051538791A051788496A051641414
825A051905869A053368409A055636698A057941512A060539868A063997127A067934802
818A071056987A072876308A073741823A073662716A072211378A068960966A063296922
811A055184042A046557557A038809946A030400537A018458309I99855026I71477477
804I32488673H85398816H32830542G81053686G49455503G44360375G49187777
797G51002645G44166539G28633746G11314055G01549808G01961762G09740125
790G23428829G42760912G64864521G85058849H01365804H14514952H25826759
783H36225949H46054622H55536812H64981500H74530968H84463168H95247666
776I06006073I14732676I21214158I27013804I33719805I41602949I49247171
769I55526468I60917360I66375739I70571608I67113862I51560127I27969627
762I04701747H91223370H92456242I01771172I04370361H92272215H72113023
755H57948982H58786458H73235827H94959695I17062748I33598814I43761379
748I50497228I55330892I56615736I52100378I42849107I33748470I29932969
741I31250583I31463831I24528718I13043391I06549594I09120744I17874968
734I28444617I37845890I45129226I50607713I54955882I58613378I61457611
727I63438902I65256484I67791871I71248714I75292491I79682266I84078163
720I87862982I90791957I93253039I95764144I98382746A000716575A002593643
713A004175643A005459513A006154499A006090212A005607708A005490474A006392377
706A008239180A010497520A012828983A015011695A016685952A017465750A016718304
699A012982466A004546687I91578713I77245048I66501809I63284376I67721253
692I76479235I86072603I94903849A002736898A009734698A016100477A021926700
685A027157708A031769147A035876380A039529144A042496734A044470372A045259842
678A044498202A041166387A033242473A017605107I91188675I54287613I13732742
671H81222150H66260082H70006635H85568788I03594876I17828492I26415457
664I30152478I30952106I31167162I33115684I38546929I48050129I60831782
657I75144853I88945224I99947213A004351529I95897102I69669497I29814065
650H90906177H67524263H62782507H68388943H73471895H71461173H61715223
643H48677815H39291430H38739421H47502690H62197033H78637503H94085622
636I07562817I19109510I29153309I38198428I46565953I54262774I61056092
629I66555382I70324408I72205372I72691772I72984753I74523407I78115086
622I83334335I88907584I93765530I97639127A000732299A003097715A004431053
615A004306862A002289252I97613175I88930752I74835869I55243088I32701921
608I12114493H98333881H93457219H96133358I02833515I09266434I10919122
601I03151613H82341197H49225649H12015326G83923313G74598155G83300128
594H00396692H14191915H17017292H08904133G97932688G94843273H04602162
587H23274882H43078754H58727876H68992160H75061200H79122789H83467549
580H89536172H97316205I05631132I13218581I19627010I25028546I29495341
573I32759459I34502734I34868282I34854506I35904604I38872402I43584588
566I49292534I55290747I61264261I67169592I72887695I77973013I80595022
559I76356782I61482101I40145001I25265450I26362024I36712302I37187153
552I15398858H79780762H52524138H48801589H65202818H87816970I06452815
545I18988797I27123037I32770939I37364569I41697362I45882864I49711446
538I52874611I55005280I55702563I54481866I50983349I45638168I40092889
531I36648223I36918732I40812157I46815658I53209963I58907681I63472994
524I66918565I69593381I71981131I74398659I76812221I78974826I80772717
517I82173961I82465411I79899758I73263749I64404466I58178881I58569198
510I65077119I73792938I81409052I87155333I91619554I95282407I98303917
503A000812728A002942632A004488383A004422217A000666062I90300896I70816582
496I43102084I13891095H93232631H87577562H95502729I10321611I25755328
489I38910251I49557961I58293263I65577086I71695664I76893554I81374612
482I85284040I88677289I91545108I93820633I94986365I93729072I89033932
475I82269627I77260353I77208034I81867482I88429255I94540806I99582361
468A003743790A007248499A010370684A013362346A016336893A019333356A022266436
461A025022238A027743877A030767754A034158360A036040299A030199534A009436081
454I76926881I50432662I46713661I62753587I77438328I68724527I27519337
447H63595563H02923381G71738059G77343243H06233213H39688635H66977750
440H86336411I00147845I10743723I18462182I22496150I23212844I23132414
433I25472158I31690994I40486822I49267835I56305431I61424145I65292453
426I68461742I70938756I72508092I73199043I73328872I73493971I74524103
419I76894598I80210898I83506395I85721459I86096469I84944861I83925028
412I84711367I87428207I90819787I93701242I95836225I97576579I99203663
405A000830052A002519893A004179469A005577374A006624340A007447484A008294283
398A009467390A011091483A012799205A013400474A010605640A002194699I88983003
391I75791693I67887886I67179819I72522426I81718731I92023437A000680465
384A006539737A010397262A013330411A015511382A016777721A017524750A018500124
377A019969968A021560456A022876958A023847879A024544187A025128549A025855470
370A026752989A027521586A028009447A028480958A029241484A030325535A031674179
363A033280670A034994097A036479109A037573039A038425405A039169302A039809741
356A040516138A041575559A042952312A044220458A044944040A044997891A044722165
349A044811706A045763566A047425160A049199465A050419883A050321852A047872597
342A041730294A030231260A011737419I85965807I55883388I28292317I11334416
335I09731961I21629939I40187581I58315875I72064900I80506453I83784139
328I81693823I73397264I58023938I36068245I10493461H85519877H63224449
321H41584071H17049575G89603429G64783118G50161273G49807762G61960037
314G81032742H01100793H18250442H31294532H41224715H49882508H58566183
307H67415447H75902990H83807076H91638316I00239753I10087977I20926186
300I32066978I43020890I53552969I63214453I71398161I77957011I83350129
293I88177880I92781181I97093031A000755537A003600674A006041301A008800651
286A012267651A016220494A020201306A024073859A028045278A032199681A036327714
279A040219052A043793754A046880317A049052105A049724131A048264166A043575218
272A032862940A010647454I70196946I08204161H29865875G49141997F82175075
265F38836641F19747167F19813194F32730447F52798566F75310373F97022831
258G16413844G33319424G48217134G61630390G73845769G84856594G94606856
251H03363168H11499704H18967901H25593960H31718383H37799809H43680022
244H48938304H53685973H58530978H63936551H69706905H75101484H79460925
237H82302652H82930846H81139912H78556308H77993654H80953033H86175623
230H90285497H89869924H84348162H77371513H74202365H77146229H84122460
223H91506054H97376110I02044742I06564970I11249604I15405259I18369300
216I20501778I22743490I25487116I28343663I30734335I32435726I33870018
209I36101919I39552569I43077733I46154414I49142112I52120834I54902379
202I57534824I60196352I62897608I65513912I67462223I66316809I56324356
195I30855326H90842307H50077527H26305228H25584079H38920943H54358556
188H67471177H79617260H91837858I03387264I13465990I22009680I29276805
181I35437198I40350596I43401675I43574987I40026584I32794525I22870882
174I11748389I01231547H93266305H89106894H88598647H90468897H93287943
167H96449299I00387531I05621183I11692520I17410554I21915058I25094225
160I27267057I28964552I30822904I33277098I36354686I39718853I42775777
153I45057077I46726393I48380960I50291842I52172806I53696085I55021283
146I56798441I59464074I62333075I63926137I63738702I63000509I63171942
139I64372740I65651462I66354867I66803487I67671646I68940558I69601800
132I68445878I64912991I59087324I51612587I44333356I40274898I41620134
125I47646942I55500864I62809386I68616129I71982801I70853596I62954659
118I48350486I31548156I20016561I18894592I27061532I39159608I50599364
111I59749054I66668651I71565070I74649130I76516944I78106667I80350605
104I83520797I86566101I88066698I88476287I89822775I92791547I95854245
97I97502481I97828928I97500742I96254024I92235572I81628283I60010517
90I26145434H83666604H39584898H03511363G85830368G92131511H18153594
83H52233105H84626323I12601380I36895563I57453908I73419876I84356047
76I88611541I80150855I50636656H99512693H41841777H02395725G96415671
69H15877512H42158135H64518060H81412299H94494168I05396038I14940566
62I23449886I31055425I36958667I39820016I40041125I39646217I40186677
55I41949154I44591271I47887742I51705400I55712790I59471727I62673784
48I64869785I64439602I57899259I41276780I13560821H79314538H47749612
41H28206160H24282260H32268932H45445005H57666855H64907194H66948042
34H65229048H58226726H45157033H33272484H30036543H35453317H43860292
27H49631759H52650486H55786517H58219699H55691547H47074803H36693007
20H29778211H28820648H32911180H37578907H38919273H38253717H38426959
13H38364272H34699679H28515559H26153415H30711005H35953353H34907500
6H29303708H23411249H17743448H11924739H08833445H10933780
##END=


$$ === CHEMSPECTRA PEAK TABLE EDIT ===
##TITLE=HMS-Q11
##JCAMP-DX=5.00
##DATA TYPE=INFRAREDPEAKTABLE
##DATA CLASS=PEAKTABLE
##$CSTHRESHOLD=0.93
##MAXX=3997.453
##MAXY=0.9198685853350548
##MINX=373.96442
##MINY=0.5309339149898215
##$CSSOLVENTNAME=- - -
##$CSSOLVENTVALUE=0
##$CSSOLVENTX=0
##NPOINTS=120
##PEAKTABLE= (XY..XY)
375.380951892103, 0.6929230666875391
386.71320702892854, 0.7077609876483077
393.7958664894445, 0.7181272483680105
399.4619940578573, 0.7100459911695582
415.04384487099287, 0.7110876415827284
429.2091637920248, 0.7061579796756988
453.2902059577791, 0.8049896332921604
471.7051205551211, 0.682284829489629
494.3696308287722, 0.6732164598989319
535.4490556997653, 0.787211832778793
552.4474384050036, 0.8055282207716733
572.2788848944483, 0.8249971239974394
613.3583097654414, 0.7612574669605039
643.1054794996089, 0.7072732424101648
692.6840957232212, 0.7489242530782088
702.5998189679435, 0.7521722290574645
746.512307623143, 0.5309339149898215
820.1719660125095, 0.6423560957857776
847.0860719624702, 0.7793622582950792
923.5787941360436, 0.8285775153867173
957.5755595465203, 0.842923042685637
987.3227292806878, 0.7908423519263277
1002.9045800938229, 0.6611436579774085
1012.8203033385453, 0.8110442728479252
1042.5674730727128, 0.837168630818649
1070.8981109147771, 0.7603827091795016
1097.8122168647378, 0.8208664623873888
1124.726322814699, 0.8024212686810868
1150.2238968725565, 0.7271635510313699
1160.1396201172788, 0.7926697110231711
1179.971066606724, 0.8008846014078763
1206.8851725566847, 0.6809377649599058
1216.800895801407, 0.663593886146869
1230.966214722439, 0.7654197782877292
1280.5448309460512, 0.718543348255154
1290.460554190774, 0.7391409249092107
1321.6242558170443, 0.7421201438677392
1355.6210212275214, 0.8252403112610069
1416.5318925879592, 0.7766359423710818
1423.6145520484752, 0.7966683483190142
1442.0294666458167, 0.7350000712061212
1450.5286579984358, 0.7635060524036607
1495.8576785457385, 0.601013777803679
1504.3568698983577, 0.6376893499571925
1582.2661239640343, 0.6947240207502021
1603.5141023455822, 0.8185410468788449
2757.987594409695, 0.8545100063707074
2773.56944522283, 0.8536550373731887
2794.8174236043783, 0.8522874687201746
2841.562976043784, 0.8305529926583907
2848.6456355043, 0.8333545897443362
2865.6440182095384, 0.8415269229790207
2882.6424009147768, 0.835599419439331
2892.5581241594996, 0.8356103268721772
2923.7218257857703, 0.842485961496433
2993.1318884988273, 0.8547868702903527
3014.379866880375, 0.8516163197790781
3048.3766322908523, 0.8457363216561483
3056.8758236434714, 0.845948395493223
3078.1238020250194, 0.8506676524038301
3099.3717804065673, 0.8547601671265281
3109.28750365129, 0.8541552989162234
3116.370163111806, 0.8544155326845642
3129.118950140735, 0.8552167980814838
3154.6165241985927, 0.8554253551881286
3173.0314387959343, 0.8542923897209942
3198.5290128537918, 0.85259294194864
3207.028204206411, 0.8532053199418796
3225.443118803753, 0.8520672888408765
3241.024969616888, 0.8514518113273699
3252.357224753714, 0.850328680711718
3283.5209263799843, 0.8485764237276974
3313.2680961141514, 0.8442268938374443
3345.8483296325253, 0.8368345474246691
3382.678158827209, 0.740266975996004
3510.166029116497, 0.8539027539799433
3517.248688577013, 0.8547902670835694
3535.663603174355, 0.8539255831717815
3546.9958583111807, 0.8554274412389438
3561.1611772322126, 0.8539888826061309
3569.6603685848318, 0.8533018796788382
3579.576091829554, 0.8531022638914375
3589.491815074277, 0.8525230262635938
3596.574474534793, 0.8535185428277065
3602.2406021032057, 0.8536142681443389
3607.9067296716185, 0.8537715049741498
3616.4059210242376, 0.852108535248496
3619.238984808444, 0.8520953027471024
3630.5712399452696, 0.8512750238751131
3639.0704312978887, 0.8529856172413511
3651.819218326818, 0.8498244252594837
3658.901877787334, 0.8512234063253293
3677.3167923846754, 0.8488841029441913
3684.3994518451914, 0.8500902026971574
3691.4821113057073, 0.8492456648104095
3704.2308983346365, 0.850356933635676
3714.146621579359, 0.8494486182791147
3726.8954086082877, 0.8491896961098698
3738.227663745113, 0.8484520291336383
3745.310323205629, 0.8475632044309164
3752.392982666145, 0.8480685924331209
3760.8921740187648, 0.8480579231613125
3770.807897263487, 0.8479039640441995
3780.7236205082095, 0.8488973354455848
3789.2228118608286, 0.8487662046636156
3803.3881307818606, 0.848375913551364
3807.6377264581706, 0.8482450817557335
3817.553449702893, 0.8484865402100421
3823.2195772713058, 0.8476258484940651
3838.801428084441, 0.8485639665347178
3847.30061943706, 0.8475935434056897
3855.799810789679, 0.8465244744888877
3875.6312572791244, 0.8471620649977307
3886.96351241595, 0.8465381233437498
3906.7949589053947, 0.8466209142886331
3925.2098735027366, 0.8460440608412487
3942.208256207975, 0.8478555650952014
3956.373575129007, 0.8480297893178732
3976.205021618452, 0.8465420572843427
3996.036468107897, 0.8462698435017921
##END=


$$ === CHEMSPECTRA PEAK TABLE AUTO ===
##TITLE=HMS-Q11
##JCAMP-DX=5.00
##DATA TYPE=INFRAREDPEAKTABLE
##DATA CLASS=PEAKTABLE
##$CSTHRESHOLD=0.93
##MAXX=3997.453
##MAXY=0.9198685853350548
##MINX=373.96442
##MINY=0.5309339149898215
##NPOINTS=129
##PEAKTABLE= (XY..XY)
3996.036468107897, 0.8462698435017921
3976.205021618452, 0.8465420572843427
3956.373575129007, 0.8480297893178732
3942.208256207975, 0.8478555650952014
3925.2098735027366, 0.8460440599845543
3906.7949589053947, 0.8466209142886331
3886.96351241595, 0.8465381233437498
3881.297384847537, 0.8482584324809515
3875.6312572791244, 0.8471620649977307
3871.381661602815, 0.8475812052932289
3865.715534034402, 0.8481464359679597
3855.799810789679, 0.8465244744888877
3847.30061943706, 0.8475935434056897
3838.801428084441, 0.8485639665347178
3823.2195772713058, 0.8476258484940651
3817.553449702893, 0.8484865402100421
3807.6377264581706, 0.8482450817557335
3803.3881307818606, 0.848375913551364
3789.2228118608286, 0.8487662046636156
3780.7236205082095, 0.8488973354455848
3770.807897263487, 0.8479039640441995
3760.8921740187648, 0.8480579231613125
3752.392982666145, 0.8480685924331209
3745.310323205629, 0.8475632044309164
3738.227663745113, 0.8484520291336383
3726.8954086082877, 0.8491896961098698
3714.146621579359, 0.8494486174224203
3704.2308983346365, 0.850356933635676
3691.4821113057073, 0.8492456648104095
3684.3994518451914, 0.8500902026971574
3677.3167923846754, 0.8488841029441913
3658.901877787334, 0.8512234063253293
3651.819218326818, 0.8498244252594837
3639.0704312978887, 0.8529856172413511
3630.5712399452696, 0.8512750238751131
3619.238984808444, 0.8520953027471024
3616.4059210242376, 0.852108535248496
3607.9067296716185, 0.8537715049741498
3602.2406021032057, 0.8536142681443389
3596.574474534793, 0.8535185428277065
3589.491815074277, 0.8525230262635938
3579.576091829554, 0.8531022638914375
3569.6603685848318, 0.8533018796788382
3561.1611772322126, 0.8539888826061309
3546.9958583111807, 0.8554274403822494
3535.663603174355, 0.8539255823150871
3517.248688577013, 0.8547902670835694
3510.166029116497, 0.8539027539799433
3382.678158827209, 0.740266975996004
3345.8483296325253, 0.8368345474246691
3313.2680961141514, 0.8442268938374443
3297.6862453010162, 0.8472426508112798
3283.5209263799843, 0.8485764237276974
3276.4382669194683, 0.8497559993659644
3270.7721393510556, 0.8498179880579124
3252.357224753714, 0.850328680711718
3241.024969616888, 0.8514518113273699
3225.443118803753, 0.8520672888408765
3207.028204206411, 0.8532053199418796
3198.5290128537918, 0.85259294194864
3190.0298215011726, 0.8540590373089092
3173.0314387959343, 0.8542923897209942
3163.115715551212, 0.8549990032393395
3154.6165241985927, 0.8554253551881286
3129.118950140735, 0.8552167980814838
3116.370163111806, 0.8544155326845642
3109.28750365129, 0.8541552989162234
3099.3717804065673, 0.8547601671265281
3078.1238020250194, 0.8506676524038301
3056.8758236434714, 0.845948395493223
3048.3766322908523, 0.8457363216561483
3014.379866880375, 0.8516163197790781
3000.2145479593432, 0.8551875916566808
2993.1318884988273, 0.8547868702903527
2923.7218257857703, 0.842485961496433
2892.5581241594996, 0.8356103268721772
2882.6424009147768, 0.835599419439331
2865.6440182095384, 0.8415269229790207
2848.6456355043, 0.8333545888876419
2841.562976043784, 0.8305529926583907
2794.8174236043783, 0.8522874687201746
2773.56944522283, 0.8536550373731887
2757.987594409695, 0.8545100063707074
1603.5141023455822, 0.8185410468788449
1582.2661239640343, 0.6947240207502021
1504.3568698983577, 0.6376893499571925
1495.8576785457385, 0.601013777803679
1450.5286579984358, 0.7635060524036607
1442.0294666458167, 0.7350000712061212
1423.6145520484752, 0.7966683483190142
1416.5318925879592, 0.7766359423710818
1355.6210212275214, 0.8252403112610069
1321.6242558170443, 0.7421201438677392
1290.460554190774, 0.7391409249092107
1280.5448309460512, 0.718543348255154
1230.966214722439, 0.7654197782877292
1216.800895801407, 0.663593886146869
1206.8851725566847, 0.6809377649599058
1179.971066606724, 0.8008846014078763
1160.1396201172788, 0.7926697110231711
1150.2238968725565, 0.7271635510313699
1124.726322814699, 0.8024212686810868
1097.8122168647378, 0.8208664623873888
1070.8981109147771, 0.7603827091795016
1042.5674730727128, 0.837168630818649
1012.8203033385453, 0.8110442728479252
1002.9045800938229, 0.6611436579774085
987.3227292806878, 0.7908423510696334
957.5755595465203, 0.8429230418289427
923.5787941360436, 0.8285775153867173
847.0860719624702, 0.7793622582950792
820.1719660125095, 0.6423560957857776
746.512307623143, 0.5309339149898215
702.5998189679435, 0.7521722290574645
692.6840957232212, 0.7489242530782088
643.1054794996089, 0.7072732415534704
613.3583097654414, 0.7612574669605039
572.2788848944483, 0.8249971239974394
552.4474384050036, 0.8055282207716733
535.4490556997653, 0.787211832778793
494.3696308287722, 0.6732164598989319
471.7051205551211, 0.682284829489629
453.2902059577791, 0.8049896332921604
429.2091637920248, 0.7061579796756988
415.04384487099287, 0.7110876415827284
399.4619940578573, 0.7100459911695582
393.7958664894445, 0.7181272483680105
386.71320702892854, 0.7077609876483077
375.380951892103, 0.6929230666875391
##END=

##END=

