##TITLE=S. Graessle SG-V2467 48-76
##JCAMP-DX=4.24
##DATA TYPE=INFRARED SPECTRUM
##DATE=8/8/2016
##SAMPLING PROCEDURE=ATR platinum Diamond 1 Refl
##ORIGIN=Angelika Moesle
##XUNITS=1/CM
##YUNITS=TRANSMITTANCE
##RESOLUTION=4
##FIRSTX=3997.4121
##LASTX=373.82813
##DELTAX=-1.4160156
##MAXY=1
##MINY=0.37209454
##XFACTOR=1
##YFACTOR=9.3132258e-010
##NPOINTS=2560
##FIRSTY=0.99642992
##XYDATA=(X++(Y..Y))
3997+1069908479+1069943999+1070738623+1071347647+1071448831+1071543295
3989+1072070527+1072776767+1073108991+1072835583+1072056319+1071031743
3980+1070287231+1070384255+1071209855+1071908991+1071824447+1071211391
3972+1070903167+1071419583+1072506303+1073446975+1073741823+1073438719
3963+1072843903+1072128191+1071361663+1070829503+1070953791+1071668479
3955+1072180223+1071729983+1070370687+1068781503+1067761151+1067788287
3946+1068389503+1068538559+1068260479+1068615551+1069825663+1070771455
3938+1070871807+1070625983+1070354879+1069956671+1069584703+1069664447
3929+1070231103+1070747135+1070771903+1070475327+1070295167+1070103679
3921+1069244351+1067730623+1066563071+1066654719+1067685695+1068391999
3912+1068154431+1067539647+1067277375+1067309823+1067218815+1067355711
3904+1068694207+1071069119+1072518271+1072073855+1071038911+1070291775
3895+1069264575+1067810751+1067062463+1068184959+1070095743+1070038143
3887+1067999231+1066695103+1067528895+1068252159+1066979327+1065754687
3878+1066277055+1066362943+1064378687+1062074751+1061410815+1062167231
3870+1063643967+1066059775+1068080959+1067827647+1066401855+1066358271
3861+1067863615+1068310399+1066414079+1063178687+1059967039+1058126463
3853+1060080575+1066733567+1071879871+1072005183+1069804159+1067552255
3844+1065931839+1064791935+1063723775+1062671167+1062491263+1064258495
3836+1067185663+1068934335+1068915903+1068213631+1067394047+1066225471
3827+1064836223+1063787967+1062857151+1061235455+1059621055+1060308223
3819+1063124351+1064351231+1063737215+1064032767+1065329151+1065531199
3810+1064376575+1062926655+1062240383+1063145215+1064673407+1064494079
3802+1063054783+1063327103+1065694719+1066794367+1065986175+1065367551
3794+1065629823+1065865855+1065682495+1065328639+1064880255+1064463359
3785+1064471231+1064734591+1064361663+1063356863+1063050047+1064067903
3777+1065079295+1064983295+1064245311+1063293823+1062076991+1060949439
3768+1060577855+1061133311+1062482175+1064079103+1064680959+1063962943
3760+1063380287+1064243711+1065487935+1064967999+1062423039+1059359423
3751+1058426239+1061899711+1066444543+1066655679+1063843135+1062699263
3743+1065119039+1067050559+1065639359+1062486783+1059965503+1059898559
3734+1062892031+1067173695+1069941631+1069991359+1067783807+1064621119
3726+1062101439+1061216895+1061478335+1061821119+1062012351+1062235647
3717+1062318655+1061861439+1060713855+1059530239+1060092095+1063716991
3709+1067951935+1069285247+1067796735+1065343871+1063699455+1064091583
3700+1065994559+1066943679+1065603071+1063005311+1060673727+1059227455
3692+1058571647+1059037759+1061647935+1065718911+1068006207+1067289599
3683+1064845055+1061963967+1059455743+1057730367+1056932159+1057820031
3675+1061343615+1064814079+1064818047+1063799487+1065695295+1069369407
3666+1070040767+1067498367+1064624767+1063095679+1062523455+1061625215
3658+1060215679+1059678527+1060629183+1060882367+1058595775+1055047679
3649+1053706367+1057613439+1063660223+1066298111+1065314559+1062944063
3641+1061195967+1061059711+1062071231+1063137535+1063814591+1064033983
3632+1063144959+1060821887+1058970815+1060752703+1064651583+1065606463
3624+1063955135+1062195967+1061199423+1061144831+1062240255+1063308479
3615+1062670783+1060912895+1059697343+1059311999+1059018815+1059072319
3607+1060099135+1061059903+1060536831+1059050175+1058196351+1058662079
3598+1059647551+1060394943+1061283775+1062671359+1063637119+1062931071
3590+1060775231+1058942527+1059427839+1061777087+1062834431+1061534783
3581+1059608383+1058782399+1059320127+1060267903+1060736895+1060636223
3573+1060255807+1059715391+1059037119+1058603839+1059356735+1061703167
3564+1063834175+1063793343+1062018751+1060050047+1058985535+1058958335
3556+1059399039+1059760767+1059961023+1060120319+1059992383+1059246527
3547+1058304959+1058147839+1059094399+1060161023+1060182847+1059033535
3539+1057538751+1056809215+1057328191+1058320063+1058552831+1057877183
3530+1057303039+1057689983+1058806847+1059768831+1060165375+1060249919
3522+1060251647+1060137215+1059954431+1059889151+1059978431+1060032575
3513+1059847103+1059424703+1059067455+1059175999+1059725695+1060194815
3505+1060350399+1060629439+1061387391+1062170751+1062306559+1061766015
3496+1060905151+1059904447+1058778303+1057667839+1056885055+1056667391
3488+1056967167+1057492095+1057940991+1058162111+1058112639+1057781887
3479+1057149503+1056233151+1055208767+1054345023+1053669951+1052827071
3471+1051535679+1050116927+1049280383+1049348991+1049907391+1050400383
3462+1050790271+1051289343+1051791103+1052101823+1052411967+1053032639
3454+1053891583+1054560767+1054641215+1054193855+1053910015+1054463039
3445+1055474111+1055842047+1055302783+1054615999+1054272575+1054024895
3437+1053679807+1053502207+1053704511+1054164991+1054772671+1055539775
3428+1056248383+1056499135+1056313535+1056194303+1056425023+1056827007
3420+1057249343+1057647935+1057669823+1056903231+1055557439+1054384383
3411+1053966271+1054316095+1054971775+1055337727+1055158207+1054693311
3403+1054247935+1053689983+1052736255+1051538047+1050647551+1050470079
3394+1050894079+1051345023+1051190271+1050351743+1049438399+1049006463
3386+1048959999+1048919679+1048713983+1048156287+1046885759+1044848575
3377+1042553215+1040575679+1039065855+1037857471+1036809599+1035834111
3369+1034747839+1033462399+1032271359+1031520191+1030983551+1030004479
3360+1028234431+1025967487+1023933311+1022772287+1022332863+1021573695
3352+1019619711+1016743807+1014029375+1012379327+1011935679+1012086975
3343+1011931135+1010853887+1008736191+1005809663+1002417983+998693951+994519359
3333+990020927+985716479+981734719+977324991+971621631+964611263+956971775
3323+949130431+940804031+931482687+921140351+910297663+899461951+888729983
3313+878012159+867499583+857702719+849007231+841405503+834782207+829259007
3304+825106687+822455679+821118335+820606527+820500479+820896511+822159103
3294+824131391+826059263+827404607+828216639+828605119+828449087+827782207
3284+826916735+826013631+824964159+823760127+822559167+821347967+819927103
3274+818291903+816697023+815245887+813693759+811811135+809762175+807969599
3264+806672319+805771583+805114303+804768127+804900863+805470271+806228543
3254+807065407+808124159+809507967+811103423+812762111+814429951+816107839
3244+817898751+820003263+822468223+825103871+827749759+830420031+833175807
3234+836094399+839251647+842479551+845329151+847573759+849581567+851937343
3224+854799679+857743423+860139711+861714495+862882111+864411071+866574975
3214+868789247+870328575+871289471+872500159+874487167+876945791+879292543
3204+881273727+882898623+884277311+885724543+887597055+889801151+891731199
3195+892871935+893293631+893474815+893825983+894474623+895360383+896458495
3185+897906495+899807167+901846847+903416895+904325119+905052543+906048895
3175+907146943+907948287+908388863+908637119+908783935+908881727+909085567
3165+909515967+910006911+910122303+909467647+907930111+905568511+902394623
3155+898442559+894068735+889953215+886662079+884368703+883122879+883127999
3145+884506367+886956863+889825855+892423743+894337215+895685247+897076799
3135+899076223+901599935+903870975+905092287+905234431+905031039+905143807
3125+905423487+905005695+903155071+900064511+896766975+894254079+892959999
3115+893097407+894867263+897966975+901427775+904473215+907263039+910320703
3105+913464383+915919551+917467647+918806655+920513279+922217791+923197503
3095+923315903+922964671+922394687+921508479+920236863+918827455+917654335
3085+916835967+916129663+915203455+913934591+912407615+910668095+908623999
3076+906275199+903878079+901727295+899912127+898369791+897014399+895796223
3066+894842751+894452543+894755711+895513407+896413887+897400831+898607039
3056+900038015+901345663+901956543+901498047+899986751+897514431+893932991
3046+888986431+882673343+875471231+868313023+862283519+858110975+855855423
3036+855079615+855237055+855835455+856392639+856544831+856305727+855998719
3026+855820287+855696191+855604415+855758783+856386239+857532863+859119999
3016+860997823+862933503+864711487+866255551+867613695+868897087+870194879
3006+871418815+872310975+872768511+873026751+873301631+873466367+873398463
2996+873406079+873884095+874684479+875238463+875235519+874822591+874192191
2986+873281599+871902783+870067391+868187007+866885695+866480447+866727551
2976+867165951+867537087+867781119+867870527+867836351+867811967+867862463
2967+867782463+867185407+865908671+864303935+862979711+862279743+862177215
2957+862563967+863364799+864467967+865814399+867421119+869119487+870473343
2947+871139199+871130495+870656319+869851135+868597887+866533055+863419839
2937+859572095+855655807+852064063+848708927+845371199+842097215+839266815
2927+837270463+836060223+835107199+833821631+831862207+829148351+825861759
2917+822417919+819290431+816913215+815650239+815574399+816294655+817173695
2907+817646463+817356671+816334463+815108287+814328767+814230143+814671295
2897+815610879+817209343+819457343+821974463+824250943+825982591+827173119
2887+828025663+828777727+829588159+830479423+831301887+831774335+831678975
2877+831097215+830435647+830205823+830787391+832350527+834833983+837871999
2867+840809407+842997375+844146559+844352639+843869951+842956671+841795583
2858+840419519+838824447+837214143+835967551+835300799+835185023+835656831
2848+836955903+839220095+842279103+845847551+849621759+853114623+855859711
2838+857929407+859798271+861575359+862820863+863114367+862337279+860434879
2828+857272127+852762367+847100991+840973119+835382399+831091839+828376127
2818+827297087+827883007+829987391+833224191+837075007+841012415+844669375
2808+847968895+851020351+853941567+856819391+859702591+862552703+865253439
2798+867688127+869808639+871643775+873173631+874186367+874470463+874247487
2788+874163711+874638207+875370943+875728191+875514047+875110207+874896511
2778+874819199+874655871+874506367+874771647+875658687+876929087+878198399
2768+879266239+880048063+880423359+880354047+880025215+879746879+879779647
2758+880244159+881098303+882218751+883553023+885099327+886696255+887983615
2748+888725439+889081343+889398207+889799679+890147135+890321471+890350591
2739+890349759+890482175+890799551+891014463+890716223+889895231+888922879
2729+888019711+887136447+886312319+885750911+885614719+886009791+886952895
2719+888123135+888931135+889092415+888907263+888841471+889039167+889325119
2709+889518143+889670847+889988159+890495807+890949823+891227711+891595263
2699+892354495+893433855+894534527+895442111+896028031+896236031+896255103
2689+896433599+896862719+897285439+897531775+897759743+898132415+898538111
2679+898822399+899081599+899509631+900090047+900611647+900909887+900972543
2669+900867839+900657279+900317503+899699967+898667647+897324607+896028223
2659+895127295+894759103+894855359+895244671+895786879+896468735+897299839
2649+898159743+898903871+899544063+900131519+900573631+900761087+900711743
2639+900447551+899936575+899324095+898990079+899094719+899174847+898523583
2630+897007551+895229247+893888319+893315071+893541887+894330111+895157119
2620+895604223+895714623+895750719+895852735+896126783+896769599+897893055
2610+899355071+900807039+901871423+902395135+902585791+902758079+902904255
2600+902704767+902034367+901257663+900846271+900907711+901327423+902100863
2590+903156223+904130943+904751103+905173631+905592895+905856127+905814911
2580+905697855+905784511+905974079+905969727+905718335+905431551+905251455
2570+905111167+904911295+904635135+904225983+903550527+902623743+901740863
2560+901251647+901222463+901367359+901332159+901103423+901151103+902032063
2550+903743935+905555583+906655231+906963519+907125695+907631807+908211903
2540+908338495+908115647+908221951+908977791+909943679+910568639+910764031
2530+910664959+910338431+909949567+909735295+909638207+909439871+909281727
2521+909507903+910089599+910765247+911533759+912439935+913166463+913390975
2511+913230527+912939903+912553727+912079295+911641663+911324415+911196031
2501+911380607+911842367+912316799+912595967+912594047+912234879+911710335
2491+911619583+912371775+913673087+914905215+915708287+916047935+916080831
2481+916056767+916090879+916032639+915731519+915345215+915225151+915497663
2471+915853695+915862975+915495167+915160895+915213375+915587199+915970367
2461+916127103+915983615+915582783+915070847+914670335+914620543+915055231
2451+915772799+916211071+915988287+915421503+915099583+915082303+915029887
2441+914891519+914843711+914800383+914566783+914241919+914039039+913949951
2431+913868095+913839999+914056639+914624063+915292287+915520959+915037503
2421+914190335+913528511+913264127+913337151+913670015+914108799+914396991
2411+914415167+914231807+913853631+913214335+912476159+912044031+912125631
2402+912456831+912578815+912261567+911595839+910791103+910005055+909342271
2392+908875007+908602943+908475455+908499839+908731199+909135167+909627071
2382+910244159+911042559+911791999+912051775+911669631+911032767+910691135
2372+910864767+911444927+912304895+913306815+914175167+914859391+915815615
2362+917174847+918010239+917501759+916316095+915715071+915945599+916336767
2352+916190975+915182783+913548415+911970367+911060927+910910783+911108287
2342+911353215+911794239+912514943+913266239+913829695+914204223+914441535
2332+914576127+914632895+914489343+913903167+912870079+911733503+910835967
2322+910302143+910194431+910558783+911204671+911780031+912189695+912630335
2312+913151231+913560767+913868415+914393535+915236159+915981631+916136063
2302+915731839+915387135+915663039+916312511+916481535+915852927+915086015
2293+914833791+914978239+915188287+915551679+916256575+917149695+917921087
2283+918473087+918968447+919538879+919916415+919542591+918248703+916639103
2273+915639231+915804159+917011199+918560831+919563007+919527871+918822719
2263+918433343+918950143+919892735+920583615+921418431+923239167+925646591
2253+927223679+927343487+926582655+925601343+924633855+923684927+922518975
2243+920956415+919594111+919561727+921179967+923408703+924903999+925161727
2233+924504895+923587199+923167167+923723647+925001535+926355711+927435967
2223+928038399+927817791+926847935+925790143+924955135+923999167+922924927
2213+922545855+923573887+925649023+927496639+928089215+927570431+926829375
2203+926492415+926722815+927383551+927835519+927279871+925940671+925252415
2193+926291583+928454591+930144255+930483967+929813183+928751615+927680895
2183+927169855+927766399+928970047+929429503+928529983+927028735+925997247
2174+925711487+925765247+925950207+926699519+928525183+930957823+932392959
2164+931626623+929590399+929013631+931984063+937351039+941084543+940611071
2154+937296639+933810431+931308479+929804735+929273023+929092095+928011327
2144+926088255+925236671+926753983+929474175+931085375+930536319+928680575
2134+926935231+925890111+925324223+924926207+924582911+924385023+924471807
2124+924601855+924299583+923715391+923541695+923838719+923967615+923866175
2114+924296383+925546239+926747583+926830463+925684159+924116735+922964287
2104+922572671+922910911+923749311+924845503+926183295+927745279+929113023
2094+929912447+930502655+931457919+932584575+933103807+932583103+931280447
2084+929808895+928781375+928521919+928732287+928576703+927556351+926265471
2074+925823551+926557183+927664191+928142463+927785919+927327359+927628863
2065+928685695+929854015+931015487+932436159+933624191+933843839+933595519
2055+933980991+934811647+934865791+933823295+932779263+932931135+934208575
2045+935272767+935139391+934533119+934729407+935378815+935126143+934148735
2035+933912127+934401087+933899455+932014719+930667391+931396095+933469951
2025+935272191+936372479+937524159+939233727+941039295+942069823+941945343
2015+941012863+939773183+938412543+937167999+936801535+938058239+940487999
2005+942543615+943368127+943683519+944418047+945355263+945694911+945387263
1995+945342719+946430079+948419647+949845055+949292287+946830143+943773183
1985+941562111+940775103+940594495+939767295+938624767+939150911+942103231
1975+945391295+946850559+947024511+947890943+950171647+952535039+953018815
1965+951255807+948905663+947564799+947341311+947585791+947994047+948590271
1956+949078271+948973503+948431743+948092351+947917375+947132223+945487807
1946+943685311+942471295+942038591+942188351+942556799+943015615+943970559
1936+945838527+948206271+949882431+949962879+948679039+947063167+945945087
1926+945509055+945569151+945613119+944790975+942895295+941085439+940769535
1916+941838399+942915391+943290751+943314495+943499007+943936511+944264767
1906+944174399+943991423+944389823+945436159+946282559+946012735+944549567
1896+942650367+941239487+940744447+941055295+941967679+943239807+944444735
1886+945313535+945802879+945617215+944401855+942471487+940655679+939415807
1876+938583871+937784575+936626623+934695423+931892927+929076863+928107519
1866+929961791+933408639+936902655+939994047+942959871+945947839+948517247
1856+950135807+950897151+951289087+951537343+951602559+951511167+951427775
1846+951750079+953098495+955389503+957071359+957079871+956112383+954936319
1837+953125695+949584255+944364415+939485567+937751295+940456575+945373887
1827+949397631+952235455+954671935+956542911+957672703+958609023+959763839
1817+960917055+961703551+962130623+962505023+963113983+963987903+964903807
1807+965606783+965961599+966038079+966153087+966624383+967360383+967895551
1797+967927487+967535999+967040639+966847359+966996735+966866559+966182655
1787+965518655+965479679+966028863+966668991+967285823+968198463+969383359
1777+970397055+971104447+972007295+973833087+976369279+978135999+978641151
1767+978672127+978585471+978399679+978625599+979717887+980960895+981515391
1757+981888063+982642303+983257983+983309695+983480511+984761599+986838719
1747+988123327+988048511+987270911+986337343+985382079+984524735+983905791
1737+983574911+984083519+986841471+992180927+996788223+998771711+999816063
1728+1000956031+1002153727+1003494079+1004993791+1006092415+1006450751
1719+1006798911+1008512383+1011550655+1013319487+1012906239+1011693631
1711+1010577471+1009532223+1008105215+1005699455+1002095871+998339455+996544447
1701+999089343+1006174207+1013384383+1018394111+1022564799+1025365119
1692+1026196735+1026407039+1027093951+1027806655+1027998079+1028782335
1684+1031673535+1034859327+1035934527+1035816127+1035860479+1036923903
1675+1039356671+1042298367+1044515647+1046387071+1049124671+1052155391
1667+1053512063+1053143871+1052084671+1050657663+1048760447+1047082111
1658+1046542015+1047216959+1049055487+1053450879+1061565823+1067765759
1650+1069497215+1070314687+1072228223+1073741823+1072790847+1069329471
1641+1065153919+1061396671+1058667903+1057103871+1055851711+1053062335
1633+1048381695+1042304383+1034085567+1022503359+1007621311+990686015+971265407
1623+947860159+922881215+900013375+876169855+842356351+795074047+745454271
1613+699175295+649747327+593440959+535317152+484834976+447322208+421963104
1603+406373216+399533472+400889312+409175936+422921600+440974144+462106080
1593+484535424+506334048+526274048+543850623+558842111+571403263+582220607
1583+591961343+600599935+607701375+613700287+621245759+634578623+652627391
1573+668444095+681795135+697929087+718840831+738254911+750416063+756219583
1563+757704191+756567039+756315583+765023935+786482687+804425663+815165951
1553+823703743+828907775+827014847+816446783+799473343+779730303+759746943
1543+742769919+734104319+739776767+760252991+781008063+795006975+808465983
1534+827558719+850555711+868810687+880195199+888456511+895499775+900359295
1524+901888255+899555455+893481535+886465471+881523519+879443391+880621375
1514+885171711+892522751+901696703+911347071+919700927+921422591+909562879
1504+890282239+870097599+849937663+830860991+813972415+797847295+780639103
1494+763729471+747803583+729931903+705315071+672506239+636843007+603268671
1484+572329599+542625471+513538432+487689152+469742208+462910656+468542240
1474+488137440+522300672+562167935+594334591+618372159+641539199+668185151
1464+693134399+703963583+696365503+673250751+631338687+563528063+493904352
1454+458976800+452206368+458531712+471907104+490516032+512814432+535892736
1444+557974975+580305343+604076223+628352895+653028031+679933247+703643455
1434+707368895+683638015+639627711+590262911+556092415+547093375+554741183
1425+566743743+575482623+577770175+573777983+566581311+562902463+567301055
1415+577584127+590372095+603340543+614434879+622305919+627086783+630275391
1405+633943487+639458687+647038847+656977407+669605439+683849279+698173759
1395+712433215+726139839+737720895+747157055+756293311+766818559+778402047
1385+789022847+797759551+805271807+812248255+818870463+825198591+831648383
1375+839055487+847628927+855789823+861814847+866021311+870286719+876537663
1365+885835519+898311487+912458879+924715839+932279231+934640255+931179711
1355+919601407+897090879+862610303+817873471+767190015+716782719+672420735
1345+637240191+612050239+596480895+589739647+590875135+598080063+608655999
1335+620632319+633190847+645829375+658289023+671010623+684997503+701016511
1325+718972095+737984063+756860735+773878719+784439103+778444415+744938111
1315+684777983+616425023+565099007+543704959+545696831+558073535+574627775
1306+595110783+619054207+644266047+668779839+691818367+713134207+732192255
1296+748137215+760402239+769197695+774993727+776861311+771541311+755551615
1286+728772479+695076991+659810175+628040383+604408127+592386623+592793983
1276+603474367+620865407+641967487+664951679+688595583+711879423+733874751
1266+753104575+766379967+768286463+753274367+721118399+681290047+649021759
1256+635058303+639935039+656654527+676285695+691264703+696343167+690053375
1246+676809535+666005055+666574463+681302591+706170623+734182591+758598399
1236+773079615+771279487+749232319+709708031+663463359+624163583+600672511
1226+593648063+598429503+609943679+625186175+642893119+662381503+682844543
1216+703209087+722237631+738603839+751191103+760002879+766876735+774677759
1206+785532735+800058943+817958655+838642815+861293183+884973887+908967359
1197+932898239+956550271+979435647+999895679+1013844543+1014131391+991847231
1187+939977407+857769279+753023935+640921919+539809087+465054112+423488224
1177+412106464+421897152+443212672+468919360+494810656+518642016+539135935
1167+555735103+568808959+579341183+587988863+594515135+598340223+599739071
1157+600450495+602901439+608681791+617720831+628748159+640309567+651476543
1147+661990591+671962687+681449279+690278399+698028479+703688703+705387455
1137+701517375+693061247+684252863+679798975+681341951+686962879+693579903
1127+699252031+703788799+708163775+713475583+720025279+727022143+732620095
1117+733649663+726048575+707827775+682946879+660914303+650585535+653999167
1107+666433727+681488447+695280447+706863999+716599551+724925183+732134591
1097+738487167+744195647+749457855+754535103+759604927+764582847+769301311
1088+773802815+778297279+782879359+787366079+791341951+794198591+794976127
1078+792197375+784151487+769791807+749947583+728094335+709553407+698865663
1068+697247551+702458943+710912255+719847679+728170239+736073407+744051711
1058+751998207+759141311+764843327+769209919+772768319+775835775+778450367
1048+780662527+782629247+784504063+786309247+787892223+789119743+790152895
1038+791394431+793182271+795630015+798669823+802175615+806113599+810510079
1028+815221951+819923583+824413311+828789631+833281855+837981503+842740159
1018+847255359+851228159+854388095+856021631+853945343+844429567+825123903
1008+799255615+775577215+762473727+762253631+771347775+784579007+798335807
998+811028671+822317503+832318719+841186815+849145407+856593727+863952319
988+871506495+879448191+887884351+896705983+905646271+914598911+923807551
978+933654143+944127231+954197311+961355071+961183039+946745535+909559423
969+845326335+762372351+682930815+631095295+616814463+631892991+660236479
959+689493823+714397247+734166655+749783295+762679743+774045887+784519295
949+794255807+803191039+811298111+818604159+825089151+830744383+835376191
939+838174719+838468031+837522239+838367487+842829887+849718719+856607295
929+862187519+866405119+869768639+873150271+877071999+880752639+882868927
919+883513023+884529855+887617471+892646335+898103935+902773951+906580735
909+910043263+913495423+916917759+920159679+923169983+926052799+928849855
899+931366399+933380223+934878527+935782591+935301887+931860159+924603455
889+915550847+909256895+909231615+915082687+923576191+931670399+938250879
879+943878975+949423423+954860095+959388031+962536575+964824575+967288319
869+970372415+973441663+975670463+976945407+977244799+975898879+972875391
860+970636863+972671039+977984959+978103487+964361535+940442751+923182079
850+926949055+950287359+980588479+1007663679+1029326911+1047450111+1063098239
840+1073741823+1071669567+1046326911+996899583+940788223+903365567+894607231
830+898373247+886570879+843564159+778943935+718833087+683918335+675220415
820+680537215+690273343+703365439+721173887+741432127+758038527+761549439
810+739110207+682181119+601455103+528876064+495439488+507065408+545647935
800+589202047+625967103+653813695+673687231+685347071+688394495+686223295
790+686272383+694629951+711398783+732041727+752001791+769288383+783804671
780+795850623+805796735+814393471+822450623+830223679+837546111+844412607
770+850984703+857110399+862419583+867012991+871488703+876138239+880672575
760+884759935+888347903+891619711+894987391+898775615+902750399+906406783
750+909684159+912927167+916221375+919143615+921235967+922649663+924128575
741+926255103+929006143+932196287+935817343+939419199+941622143+941346431
731+939841471+940379327+944979071+952233151+959238335+964742847+969552831
721+974859327+980931967+986826495+990954303+991863935+987872575+975894335
711+952258879+916949439+877612031+847670527+838390463+851212031+875624319
701+892502463+881844863+835254015+765912575+702631359+669510719+671220095
691+696382207+730004799+761797951+787760255+808290303+825412415+840548287
681+853767679+864566399+873027135+880075071+886705663+893023551+898220671
671+901795967+904552511+908143743+912786047+916672831+919326399+921518079
661+923562111+925185407+926512959+928528767+931947967+936050047+939450367
651+941821695+944033727+946816703+950130623+953669439+957325055+961238911
641+965725055+971125759+977573759+984470079+989940927+991281087+986274623
632+974088255+956188223+937672383+925780031+923673023+925101951+918887551
622+901429759+882318847+875142783+883959679+900792703+915536255+924541183
612+929166527+930715455+928909759+923206975+914176703+903796415+894264767
602+886370751+879533055+873325503+868180031+864766079+863439487+864181887
592+866734719+870827391+876098815+881783935+887040895+891788991+896862271
582+903228927+911274751+920640703+930515903+940249727+949949695+960444863
572+972135743+983456831+990018303+983948927+953838847+890828095+802673215
562+720143551+678386111+687162495+725689343+766905023+798247167+820466623
552+837604287+851891455+863500415+872370239+880017535+888386239+897462527
542+905945855+913472319+920615999+927657663+934474303+940818495+945853247
532+948320959+948298175+948213375+951021887+957687679+966886911+976671103
523+985779327+993386687+998566271+1000300671+997814847+990951551+979728127
513+963070015+938443263+903683263+860992639+819838591+792422463+784176895
503+790868031+803099135+812829375+817815359+820359871+823961663+831280511
493+842826687+856817983+871151423+885209087+899109375+912785279+926243263
483+939023615+949895487+958386943+965288127+971290687+975235647+971022655
473+947066559+899469823+846440255+813587263+811325951+831521983+858278911
463+880822527+896604095+907801855+918372415+930591103+941969151+949541055
453+954728255+960733375+968862655+978609087+989045439+998250559+1003871231
443+1006160063+1008536447+1013703359+1020383359+1023817471+1017782463+998128959
433+966150719+928495999+896163327+880853887+886723007+907512831+931866047
423+950161215+959969279+964912447+969430079+975697727+983098943+990405695
413+997135999+1004074303+1012490879+1021435583+1028056191+1032024895+1036674175
404+1044469183+1054119871+1062184575+1064933887+1060220031+1051554879
395+1044824575+1039170943+1027478911+1002176767+963753215+924219967+899556927
385+900582527+926006399+961736703+993982079+1016614783+1029457215+1038291135
375+1052991551+1073741823
##END=
