##TITLE=X7439
##JCAMP-DX=5.0
##DATA TYPE=LINK
##BLOCKS=1


$$ === CHEMSPECTRA SPECTRUM ORIG ===
##TITLE=X7439
##JCAMP-DX=5.00
##DATA TYPE=INFRARED SPECTRUM
##DATA CLASS=XYDATA
##ORIGIN=ComPlat
##OWNER=
##XUNITS=1/CM
##YUNITS=TRANSMITTANCE
##XFACTOR=1
##YFACTOR=8.8780072e-010
##FIRSTX=3997.453
##LASTX=373.96442
##MAXX=3997.453
##MAXY=0.9532687635535125
##MINX=373.96442
##MINY=0.584491787759037
##NPOINTS=2559
##XYDATA= (X++(Y..Y))
2559I54263678I54833070I55589843I55905255I55734793I55340361I54864424I54394327
2551I54120541I54198085I54655693I55479872I56469142I57088753I56946221I56339164
2543I55891089I55790181I55795150I55783401I55876050I56140370I56420467I56491297
2535I56343461I56234497I56378037I56656925I56683579I56082095I54895777I53772232
2527I53441513I54042796I55157076I56178974I56551990I56241815I56040604I56697611
2519I57692386I57902257I57128431I55930364I54784731I54144509I54555524I55817909
2511I56740243I56570117I55761514I55171644I55107394I55192054I55061270I54882685
2503I55132705I55947216I56845313I57375900I57656937I57931865I57877886I56831550
2495I54815682I52953559I52548183I53706303I55633013I57794032I59464209I59639706
2487I58243584I56411270I55693638I56563739I57436391I56952330I55854700I55412198
2479I55363590I54870130I54649046I55618578I56765554I56852765I56115328I54959356
2471I53452054I52516762I53503682I55611126I56713455I56721176I56855652I57242229
2463I57014432I55967558I54381437I52426127I50856320I51761666I56227313I60389229
2455I61526066I60980038I59920744I58558660I56874921I54999974I53373570I52730864
2447I53566590I55308538I56680558I57258141I57472645I57556701I57335483I56953673
2439I57022086I57521454I57523602I56924737I57075527I58298905I58764772I58398134
2431I59027883I60594065I61091284I59884892I57787251I55936205I55650804I56953941
2423I57587651I56336143I54934246I55464296I57406850I59532891I61516466I62615975
2415I62266323I61322170I60867515I60876243I60777887I60530083I60311752I59803119
2407I58748390I57755226I57705075I58451441I58986795I58861450I58371145I58044521
2399I58370004I59275553I60003927I60267777I60515715I60775940I60556938I59805804
2391I58912138I57963017I56761928I55338481I53896101I52981219I53579076I55265570
2383I55988237I55656578I56164674I58131800I59029025I57230346I53743229I50317945
2375I49030921I51183615I55108401I58039822I59553501I60265763I60340218I59882475
2367I59213585I58672659I58575243I59027212I59606205I59763709I59330941I58323813
2359I56988786I56349839I57693997I60345858I62072364I61999721I60666506I59176458
2351I58743153I59581968I60485772I60759693I60985676I61537077I62024159I62171391
2343I62419598I63453380I64962025I65499594I64527042I62788518I61100348I59728932
2335I58344223I56643364I55448317I56600463I59525170I60700679I59659311I59050508
2327I60637100I62937698I63980409I63494737I62151519I60861809I60099665I59834338
2319I60297317I61518747I61995021I60209904I56795228I54255486I55166878I58492932
2311I61011391I62038795I62295595I62321242I62453570I62873716I63345490I63294399
2303I62319563I60409705I57862982I55700284I56030735I59328525I62279482I62990132
2295I62350648I61700825I62023286I63421893I64577260I64309449I63182346I62363807
2287I62280959I62774017I64011762I66084160I67847121I67934534I66582655I65109929
2279I64279036I63683527I62779320I61776288I61105920I60727870I60244413I59543901
2271I59243663I60393660I62958443I65142759I65784123I65294288I64509720I64099712
2263I64309718I64767461I64902675I64546511I63785845I62658003I61600589I61779644
2255I63715216I65549209I65447428I64167252I63347840I63696350I64828153I65923500
2247I66285505I65710204I64695422I63962617I63670368I63576712I63645729I63967250
2239I64459233I65069579I65870797I66741099I67377831I67677331I67738090I67493374
2231I66791989I65847702I65164243I64933223I64822715I64590688I64576589I65245681
2223I66393865I67228853I67292163I66946473I66815890I66980243I67030126I66802060
2215I66665368I66954193I67435032I67648394I67523653I67365679I67382127I67476388
2207I67509420I67471419I67414420I67429325I67629999I67983611I68239271I68192744
2199I67941583I67726475I67641211I67650140I67710832I67719963I67540504I67236909
2191I67150973I67573939I68336150I68919373I69062107I68929040I68619671I67991265
2183I67151107I66581111I66512631I66676849I66882491I67369841I68337023I69421628
2175I69942209I69677354I69179799I69107827I69418271I69513270I69104672I68540852
2167I68304730I68517085I68848207I68854115I68501174I68255182I68535682I69226526
2159I69818208I69891388I69438412I68825380I68425308I68244373I68030742I67746415
2151I67689214I68132388I69032969I70042783I70655949I70520264I69767654I68943408
2143I68567841I68818197I69558454I70513013I71358408I71751967I71440517I70430636
2135I69077414I67986297I67660009I68024767I68427457I68427255I68390061I68853377
2127I69620220I70090652I70293877I70813118I71665830I72053951I71534979I70806203
2119I70789083I71427962I71929814I71817292I71297111I70863739I70757461I70709525
2111I70395724I70138857I70546112I71394796I71710812I71110872I70262524I69814382
2103I69629821I69297153I68812154I68494661I68516347I68678148I68586505I68058067
2095I67313177I66623743I65875228I64819291I63693195I63171537I63658485I64863199
2087I66061333I66658453I66556941I66091612I65656560I65350818I64900527I64031433
2079I62976033I62334938I62357563I62701441I62894998I62659279I61884244I60700813
2071I59494421I58605522I58073391I57663783I57088888I56273705I55375675I54493087
2063I53574915I52649762I51833974I51084319I50197903I49044013I47676625I46268283
2055I44981863I43918205I43155793I42631987I41896362I40378318I38113840I35787260
2047I33835576I31991982I29884472I27512104I24946783I22186294I19538865I17491308
2039I15926200I14114967I11690501I09015679I06455260I03858452I00932469H97782918
2031H94928101H92809446H91293886H89734754H87653024H85331412H83451967H82075382
2023H80417423H77992286H75434082H73510393H71895604H69672550H66559120H63024134
2015H59650143H56851117H54837330H53481960H52400443H51306036H50190548H49146494
2007H48214426H47512571H47295382H47689143H48487944H49329712H49993567H50515561
1999H51055010H51615943H52058513H52531361H53566755H55464528H57855493H60069953
1991H61703809H62823258H63817564H64966285H66192684H67430094H68904767H70720028
1983H72579063H74229099H75778765H77389056H79024322H80632867H82255982H83874128
1975H85392239H86880474H88586704H90561014H92503635H94151523H95563423H96904358
1967H98208503H99428054I00539916I01630497I02844542I04085242I04994887I05513926
1959I06072912I06943483I07903747I08731621I09424479I09890278I10065843I10289813
1951I10965215I11956432I12797597I13359134I13926513I14715511I15587022I16220262
1943I16507342I16750581I17377644I18461645I19661323I20587820I21094707I21262416
1935I21246706I21182053I21173661I21327070I21782463I22678680I23987188I25411576
1927I26628039I27606902I28481837I29242571I29852179I30441444I31010499I31186468
1919I30661117I29683127I28852032I28575896I28884930I29597191I30477966I31335781
1911I32179900I33218113I34479826I35618141I36358398I36836349I37192849I37264820
1903I36993384I36653870I36435136I36144968I35405987I33951858I31936191I29984171
1895I28568914I27443490I26122292I24632446I23305475I22126206I20763384I19151213
1887I17712727I16813556I16098676I14731289I12418740I09889943I08281867I08357397
1879I10195821I13122542I15899681I17371669I17074049I15199975I12184028I08409293
1871I04200517I00067672H96752628H94738170H93890358H93905196H94813632H96696098
1863H99248327I02010629I04744934I07340332I09627704I11428128I12583764I12959867
1855I12576849I11689091I10733860I10280212I10818520I12409744I14698996I17311111
1847I20006880I22572737I24841109I26717466I28101503I28960459I29439955I29756038
1839I30201025I31241519I33107000I35258285I36799088I37416014I37515042I37579024
1831I37743175I37873018I37873555I37915718I38278058I38985217I39798049I40485335
1823I40922198I41081247I41108706I41229016I41479170I41720059I41899316I42080184
1815I42208484I42057223I41462856I40560596I39813558I39792544I40672716I41822712
1807I42195258I41398068I40158107I39524062I39849477I40664055I41339860I41768935
1799I42354441I43302354I44166345I44395754I44112635I43991989I44519152I45591471
1791I46699306I47400422I47708313I47976326I48409900I48906112I49322364I49613136
1783I49744659I49747277I49791991I49990180I50208847I50250002I50129490I50041003
1775I50113847I50291291I50375750I50168094I49643080I49003529I48479387I48121477
1767I47888041I47839635I48097442I48657704I49345325I49924251I50210659I50136271
1759I49776683I49365735I49230655I49563925I50202804I50788780I51211477I51729509
1751I52536635I53368333I53755179I53629297I53436277I53582435I53987408I54293487
1743I54334038I54279791I54391508I54707121I55010917I55137740I55191717I55323778
1735I55433145I55290880I54861268I54320879I53814193I53334295I52788870I52058818
1727I51040344I49800786I48692280I48123290I48181498I48615676I49180100I49852414
1719I50726812I51809268I52940265I53844001I54249848I54065420I53526845I53077561
1711I52947852I52959467I52848488I52575441I52240223I51970734I51935352I52189468
1703I52527169I52707567I52752885I52878230I53227815I53759073I54322826I54789565
1695I55086313I55200782I55266644I55533515I56111367I56854914I57543473I57988863
1687I58030825I57703396I57337766I57258947I57462104I57692453I57757039I57715145
1679I57813233I58196319I58719252I59155176I59516912I59970425I60467242I60726258
1671I60672146I60671004I61103772I61848057I62424029I62578177I62468340I62331313
1663I62256790I62281899I62441552I62650551I62756762I62807182I63060022I63607998
1655I64207602I64616737I64880050I65148130I65459177I65833670I66355261I67015624
1647I67628387I67996703I68080356I67950915I67669610I67289008I66963794I66940095
1639I67280011I67680083I67799051I67730168I67818319I68056388I68097812I67894050
1631I67840273I68152663I68539912I68654717I68526954I68371061I68250885I68132052
1623I68076530I68178041I68396909I68578180I68592548I68430142I68218525I68117215
1615I68137088I68151052I68131784I68249207I68679088I69409409I70188203I70610294
1607I70439901I69947716I69698368I69935095I70426406I70881598I71174586I71177137
1599I70767867I70057822I69385642I69095810I69376444I70150270I71090664I71917998
1591I72603673I73088405I73063027I72404543I71589629I71229504I71338737I71471333
1583I71446895I71522156I71887921I72420522I72990720I73667129I74484326I75275406
1575I75863664I76202372I76234665I75862925I75214512I74724946I74732399I75118036
1567I75531804I75821703I76033387I76127850I75940335I75431500I74865398I74610343
1559I74689028I74711519I74454584I74231419I74360726I74645523I74791077
1552I74905814I75116357I75188732I75107294I75488232I76721277I78100817
1545I78544125I77924178I77021247I76456823I76310665I76454607I76678309
1538I76765118I76743097I76732691I76561690I76063465I75610355I75750336
1531I76466021I77252200I77699268I77736126I77578958I77559555I77789299
1524I78118675I78519956I79099553I79657264I79813358I79627186I79458872
1517I79297138I78951582I78746410I79195895I80058208I80488895I80180063
1510I79777372I80073918I81125357I82216408I82582306I82107645I81197866
1503I80041894I78480009I76694892I75385108I74934079I74909238I74577110
1496I73483307I71586406I69394437I67907276I67896937I69245123I71165052
1489I72817237I73672232I73785560I73873107I74648343I75954299I76928195
1482I77106378I76980428I77294698I78103972I78810594I79010932I78971723
1475I79127482I79359912I79134196I78327406I77463616I76966866I76697645
1468I76492943I76570017I77018025I77469255I77639314I77646901I77586746
1461I77388959I77194663I77254751I77392584I77155992I76565988I76147185
1454I76124694I76121472I75820293I75407398I75151470I74999270I74769458
1447I74375765I73853368I73435774I73369442I73447456I73141376I72336801
1440I71458375I70881061I70666557I70743698I70984385I71245750I71421248
1433I71280327I70463198I68955560I67277729I65895839I64704083I63328437
1426I61693373I60057973I58592229I57032626I54782247I51498489I47660042
1419I44278532I41844331I39854176I37634949I35253451I33201463I31534038
1412I29860034I28014896I26346196I25256421I24645538I24192025I24245466
1405I25586133I27987168I30126569I31329537I32314645I33974483I36281727
1398I38409849I39570118I39794223I39839272I40485738I41990959I43975339
1391I45894194I47491057I48579959I49090136I49597359I51040344I53642523
1384I56613219I58959202I60155389I60167474I59414998I58666684I58511999
1377I58883001I59299118I59542625I59791303I60146124I60444684I60529814
1370I60414875I60192314I60040517I60312558I61315926I62899026I64456681
1363I65468510I65959083I66404808I67282294I68698088I70268499I71311009
1356I71424337I71039169I71095028I72008432I73305661I74360860I75038142
1349I75496825I75853056I76168804I76506370I76972573I77706116I78613478
1342I79239467I79200595I78634157I78070874I78036231I78757421I80015375
1335I81248957I81908113I81791763I81163290I80417326I79569985I78504447
1328I77715247I77880808I78693573I79308686I79854110I81052312I82463205
1321I82697783I81559132I80541598I80777384I81582496I81662860I81016528
1314I80818271I81822982I83575806I85010398I85530176I85682511I86588127
1307I88464954I90264975I90942391I90317006I88750288I86933482I85925615
1300I86575640I88755390I91272775I92756310I93039160I93404723I94865163
1293I96703587I97438943I96548164I94647303I92688031I91275259I90348897
1286I89556272I88823467I88188280I87455543I86448482I85298283I84495588
1279I84941851I87321201I91021412I94585066I97315075I99294554A000050522
1272I98669438I95501022I92528311I91417724I91877079I92442443I92330995
1265I91949654I92508976I95484708A000678525A004593375A003915153A000281743
1258I97832301I98351878A000605882A002476129A003149786A003468622A004083533
1251A004189543A002944010A000767012I98371415I96102439I94828305I95682292
1244I98322270A000980643A002549510A003236998A003312393A002597648A001131501
1237I99406540I97990880I97353209I97648748I98297967I98438687I98155098
1230I98379337I99219830I99493214I98466414I96974688I96174276I96129227
1223I96208382I96152255I96175350I96443296I96876265I97337432I97776779
1216I98126766I98191487I97926495I97758316I98173897I98992032I99588549
1209I99781703I99840852I99790028I99508454I99339268I99777340A000721493
1202A001724459A002667337A003490307A003765638A003388997A003186779A003992361
1195A005467101A006429180A005972243A003868694A000544517I97297082I95916468
1188I97188924I99594726A000139546I97362608I93442857I92399072I95683971
1181A000648447A003983230A005158873A005751629A006555936A006544724A004878239
1174A002914872A002732997A004107770A005047022A004801635A003925760A002554412
1167A001190246A001683505A004921207A008726555A010041643A008289357A005438165
1160A003823846A004560947A006917806A008821152A009049688A008750926A009423912
1153A010286493A009714684A008276802A008127153A010236274A013436849A015464332
1146A014697690A011626489A008553878A007323518A007646113A008133396A007875186
1139A006481279A004040901A001475983A000138942A001121028A004998750A011025206
1132A016338260A017974801A015953495A012832747A010741014A010076351A010506905
1125A011761234A013183943A013721512A013089413A012396622A012926336A014421822
1118A015145094A013719901A010834737A008902053A009769871A012934460A016194988
1111A017838580A017856371A017222459A016661862A016341617A016280790A016461524
1104A016628226A016474482A016043057A015665677A015618211A015959538A016400026
1097A016277232A014983830A012368894A008538168A003600614I98306762I94712829
1090I94669055I97339849A000278722A002424165A004550407A007370648A010248359
1083A012252478A013451217A014349851A014989066A015295347A015628684A016341684
1076A017258848A018005752A018509954A018921103A019292373A019599325A020085400
1069A021357050A023692492A026296752A027788479A027741550A027082931A026773361
1062A026893470A027067288A027108845A027148659A027420633A027880255A028069516
1055A027827083A027737051A028245416A029053415A029479803A029129347A028259649
1048A027598748A027781966A028817695A030064168A030817517A030937962A030877807
1041A031217052A032217332A033566257A034533103A034857174A034955398A035184135
1034A035472356A035477659A034920218A033742963A032187188A030969584A030961728
1027A032281247A034300808A036180722A037173282A037125279A036594692A036382470
1020A036879422A037708703A038275678A038490854A038597804A038636609A038520528
1013A038363024A038214516A037801151A036885330A035659803A034552304A033693550
1006A032828283A031681240A030159302A028368949A026681114A025632361A025534138
999A026382890A027911071A029592797A031069014A032488903A034025679A035480614
992A036653370A037622163A038531203A039467367A040467044A041493910A042572271
985A043703067A044574108A044862933A044718117A044537451A044427480A044264470
978A044112874A044013309A043729116A043091714A042209259A041342916A040920490
971A041289410A042235577A043175770A043742208A044069234A044559740A045321347
964A045963584A046188427A046249119A046685378A047478875A048116345A048520176
957A048774023A048828471A048745892A048738306A048797857A048645723A048240079
950A048205705A049393097A051388622A053126541A054506551A055780953A056849244
943A057501417A057900884A058447718A059132655A059616380A059799598A059754414
936A059395430A058736410A058132978A057809980A057560565A057202790A056799428
929A056429837A056099185A056074814A057002317A058668399A059816248A060036257
922A059523059A058475984A057187683A056101602A055422171A055130526A055520661
915A056734305A057920420A058394143A058474574A058798042A059487677A060132868
908A060513134A060658889A060658285A060820556A061429023A061705763A061166985
901A060433375A060317227A061266282A062503691A063138341A063144854A062837767
894A062512218A062386402A062620510A063067176A063307595A063287185A063273355
887A063591116A064390789A065511246A066826736A068395604A069949365A070924871
880A071154079A070902045A070500697A069798104A068056828A064263564A056700467
873A042778249A021096960I94609034I70436880I56086996I55498604I67160171
866I85727157A005678315A023475370A037617665A047927420A054880238A059264378
859A062058906A064204013A066287824A068454685A070557495A072322068A073452931
852A073741823A073199554A072341538A072018137A072075137A071640489A070441079
845A068970501A067788144A066554561A064540170A061501330A057433608A051221853
838A039652264A022619099A006627974I91091034I73333993I54440115I36004853
831I18610487I03193120H90259836H79023718H68962908H60364216H53044828
824H46486779H40041855H32055726H20767039H06367608G94718193G93823251
817H05181693H27573162H59518084H94351055I23652105I45579991I61827715
810I72126393I76032515I73751051I64391894I47260172I23608533H96736313
803H70675248H47345265H27141200H13813550H08222615H06260457H06150083
796H08026440H12112557H17858848H23349144H26694333H28017075H28700668
789H30211864H33207602H36908015H40329942H43363680H46416956H49764159
782H53025023H55349186H56162690H55594909H54550721H54402414H55585711
775H56814057H57099727H56649839H56042581H55574096H54985033H53910364
768H52404203H51220235H52093491H55415182H58248112H59234562H59150506
761H58773261H58612736H59128351H60448474H62223587H64139889H66027929
754H67656212H69131758H71296134H74692414H78019946H80039776H81448788
747H83499769H86421657H89260159H91346925H92869803H93948634H94005096
740H91896444H86405879H78297761H71205365H67575782H67181282H68665758
733H70589245H72158716H73351479H74514366H75856645H76949239H77113726
726H76364942H75404608H75017091H75747144H77930721H81320422H84911333
719H88009255H90861253H94069615H97647838I00777583I02882072I04208439
712I05287941I06463920I07813114I09300476I10999388I12959197I14755928
705I15687930I15386751I13783778I10855714I06484464I00297282H91908730
698H81587964H69953722H57102009H43152533H29287919H17461059H08960724
691H03815782H01541838H01726130H03915951H07355603H10901599H13353256
684H13975417H12648112H09736698H05905032H01816632G97985099G94813796
677G92591682G91576967G92183151G94851796G99661923H06275429H14236986
670H23204799H32981752H43316684H53664574H63404601H72273185H80323901
663H87645303H94323730I00444246I05938772I10503109I13601769I14493421
656I12456405I07151273H98694376H87367220H73449030H57621787H41618913
649H28054604H19128148H15521593H16604788H21271913H28361087H36742924
642H45510668H54258404H63243002H73220427H84900726H98380710I13017740
635I27723587I41296019I52564967I60474426I64268227I63647072I58670578
628I49586751I37003924I22254506I07429289H95080638H87736744H86943180
621H92192520I00993430I10233619I17184826I19094279I12875409H96763638
614H72542406H45124359H19460210G98127766G81520320G69274120G61038239
607G56435566G54945854G55866241G58216655G60853477G62909829G64197726
600G65401902G68107406G74192674G84207159G95798568H04103668H04534287
593G95971514G81641570G66808700G55452876G48802781G46086468G45896872
586G47025049G48685760G50475711G52288958G54164509G56099208G58015646
579G59900394G61872287G64077550G66524171G69030747G71382369G73538756
572G75589669G77547396G79371654G81179598G83207080G85529632G88016133
565G90568429G93190817G95823676G98360532H00861132H03554819H06630451
558H10134823H14071291H18512364H23168142H26257806H24562116H16416804
551H04755840G95371574G91738634G92867550G95995885G99465077H02821074
544H05890396H08567097H10901398H12999039H14899632H16559336H17967409
537H19280214H20730852H22381493H24059257H25534669H26725149H27739125
530H28683346H29414070H29601316H29112891H28294755H27863598H28473475
523H30203740H32416455H34296303H35584334H36672430H38019072H39671055
516H41367282H42914263H44288028H45458233H46253610H46047230H43078615
509H34610841H18970912G97788454G76020490G59938998G54476564G60635549
502G74581870G90180711H03053504H12168952H18493700H23285565H27287828
495H30559031H32880845H34363776H35426964H36255171H36651886H36542318
488H36364068H36693780H37633838H38887763H40273278H41774404H43287949
481H44723012H46212522H47975819H50028680H52065159H53649065H54658409
474H55469899H56563165H58097120H59961526H62004383H64125859H66316687
467H68627019H71047055H73566990H76479277H80435819H85911614H92663892
460H99789387I05486802I05921517H95928247H73890458H46014467H22936921
453H11197541H09457071H12589300H16964779H21416460H25565753H28964786
446H31378981H33008876H34272872H35465701H36606770H37570796H38304406
439H38904548H39575922H40523566H41792933H43239812H44731471H46265829
432H47819053H49274391H50589815H51830447H53019115H54115670H54984160
425H55249420H54608123H53546009H53273230H54591742H57170087H60121380
418H62888449H65368774H67563227H69457576H71137892H72735561H74166259
411H75076642H75190574H74691811H74227354H74560960H76146007H78860238
404H82056248H84912206H86896184H88047993H88811144H89565568H90298171
397H90358393H88210197H82111636H72035049H60597720H51164779H45322213
390H42876061H43492651H47048585H52703770H58862554H64282154H68711478
383H72478424H75873295H78948121H81570374H83504670H84519587H84512470
376H83637871H82467867H81962591H82977910H85627488H89268149H93096727
369H96523823H99136409I00909844I02599424I05378778I09804275I15365334
362I21057177I26091141I30091926I32987897I34780266I35206119I33677534
355I29726430I23383287I15009976I05111303H94624170H85148866H78429485
348H75306856H74847704H74336184H70654099H62431646H50987067H39056278
341H28799830H20768114H13685251H04653657G90413946G69523804G43579087
334G16348689F92098252F74562228F66058335F66004692F70454090F74741485
327F77408653F80792245F87620858F98336527G12061495G28267930G46128026
320G63557033G78608973G91249471H02692439H13745742H24035893H30981259
313H29629178H17101740G98298027G83694699G80134335G86442230G97855658
306H10849366H23257838H33450707H41061001H47078998H52536195H57638840
299H62207138H66420280H70744601H75239988H79476426H83250287H86872350
292H90699317H94840823H99267864I03955398I09034612I14783992I21277321
285I28201605I35109239I41416800I45570457I44025155I32153649I08422654
278H78281984H51726115H35764128H30326132H31174144H34711950H39666020
271H45893754H52893031H59604758H65295459H70053152H74278647H78116154
264H81491689H84497566H87574138H91067699H94720714H98041061I00968522
257I03749622I06565969I09577418I12882056I16208379I18451507I17119769
250I08558406H88906480H54643236H04858829G47320655G00560521F82391659
243F94375016G20864419G42372628G49708465G48242049G49829178G61117126
236G79843832H00064412H17537260H30654299H39638830H45831786H50602772
229H54587243H57908867H60548441H62385925H63391577H63833005H63951436
222H63549148H62177061H59381392H54406174H45883079H31994228H11270587
215G84048312G53438886G24678630G02452185F87666512F77721177F69878185
208F63843337F60167967F58359218F58626693F62191889F69616484F79775784
201F90835666G01661776G12092244G22070274G30985921G38131222G43660458
194G49066363G56369369G66424204G78154117G89126183G96280950G97209192
187G92504135G86388722G83494764G84893169G87971017G89557340G87717305
180G81130856G69400338G55339078G45174138G44378963G53489510G68552796
173G84793336G99202569H10659838H19074505H24806496H28452595H30778974
166H32660567H34808561H37379656H39933496H41850000H42824903H43072103
159H43054781H42928026H42346079H40901886H38663860H36217507H34074480
152H32173149H30347011H29054952H28890868H29412996H29236089H27153755
145H22517916H14673580H02360243G83685434G57832763G28016031G01614175
138F85136237F79474807F81578760F88584213F98699740G10237238G21404741
131G30635732G37129263G41559191G45686866G50482626G54796205G56514923
124G55274221G53254327G52703733G53669438G54938872G56005551G57006704
117G57837261G58467749G59461114G61422332G64329517G67744662G71549743
110G76317976G82682603G90249795G97762337H04384235H09825924H13410122
103H12997294H04345295G83884900G54264074G24885346G04670203F94784890
96F90300715F87901291F88306130F91740746F95505208F97332487F98806354
89G03062732G10547614G18884402G25975725G31920541G37630981G43209362
82G48385119G52967986G56416029G58328707G59659169G62120964G66165121
75G70506763G73719087G75846067G78014538G80725279G83434408G86151794
68G90130559G96211732H03537296H10295483H15190740H18245157H21138845
61H26465529H35085100H44345162H51365856H55783833H57930149H57578014
54H53700358H43138166H21342071G87740534G50022131G20174313G04384332
47F99962259G02269436G08622919G16852086G24841371G31417212G36237477
40G39866657G43592515G47786522G50813345G50573665G47006654G42436677
33G41125618G46022486G53238013G57448603G57574284G55653080G54179279
26G53208741G50863564G47175839G45365077G48180753G54478778G60163237
19G61877792G61466777G65476962G75106414G84655100G89968959G91042755
12G88952365G84305516G79587904G80249812G89277444H01993404H11928264
5H16442987H14619468H06394195G96632750G94057829
##END=


$$ === CHEMSPECTRA PEAK TABLE EDIT ===
##TITLE=X7439
##JCAMP-DX=5.00
##DATA TYPE=INFRAREDPEAKTABLE
##DATA CLASS=PEAKTABLE
##$CSTHRESHOLD=0.93
##MAXX=3997.453
##MAXY=0.9532687635535125
##MINX=373.96442
##MINY=0.584491787759037
##$CSSOLVENTNAME=- - -
##$CSSOLVENTVALUE=0
##$CSSOLVENTX=0
##NPOINTS=34
##PEAKTABLE= (XY..XY)
385.29667513685536, 0.6927063448734646
403.7115897341969, 0.6642354112035421
420.7099724394352, 0.6591358163950074
439.12488703674717, 0.6214269975130264
507.11841785770093, 0.6107192614387295
545.3647789444876, 0.6682509161040877
566.6127573260355, 0.603238222876461
621.8575011180606, 0.6608601793042533
634.6062881469898, 0.69558721559543
664.3534578811568, 0.584491787759037
711.0990103205627, 0.6642898298364752
718.1816697810787, 0.6058278061821945
762.0941584362781, 0.737164137824415
810.2562427677872, 0.6926038243097212
840.0034125019542, 0.5912794450809782
902.3308157544952, 0.7830070233028655
924.9953260281468, 0.7483059738265639
1012.8203033385453, 0.7186365704428911
1086.4799617279123, 0.6698248367423261
1150.2238968725565, 0.7029061293170165
1204.0521087724783, 0.6622077800073478
1230.966214722439, 0.6702414727422149
1253.6307249960905, 0.7874287938030896
1289.0440222986708, 0.7240206574409469
1330.1234471696635, 0.7027626012380163
1349.9548936591086, 0.7116094208865233
1398.1169779906177, 0.7768408034021055
1413.6988288037528, 0.769884166530123
1501.5238061141513, 0.7157006241154598
1531.2709758483188, 0.7047568537905406
1603.5141023456022, 0.848814723431437
2371.2743878655333, 0.8238922928395251
3011.546803096177, 0.7983533121693954
3212.694331774824, 0.752229450192275
##END=


$$ === CHEMSPECTRA PEAK TABLE AUTO ===
##TITLE=X7439
##JCAMP-DX=5.00
##DATA TYPE=INFRAREDPEAKTABLE
##DATA CLASS=PEAKTABLE
##$CSTHRESHOLD=0.93
##MAXX=3997.453
##MAXY=0.9532687635535125
##MINX=373.96442
##MINY=0.584491787759037
##NPOINTS=170
##PEAKTABLE= (XY..XY)
3986.1207448631744, 0.8470689032665895
3973.3719578342457, 0.8485512108607303
3970.5388940500393, 0.8485451915718487
3962.0397026974197, 0.8489456749254378
3952.1239794526973, 0.8464660617192893
3943.624788100078, 0.8487735365804349
3933.709064855356, 0.8470901820742465
3923.7933416106334, 0.8479450320705236
3919.543745934324, 0.8477455352585331
3903.9618951211883, 0.8456729627020917
3892.6296399843627, 0.8484654999158193
3881.297384847537, 0.8475381103861132
3871.381661602815, 0.8456450671156687
3855.799810789679, 0.8441709255125504
3840.217959976544, 0.8458351470254221
3828.8857048397185, 0.8495841598960445
3823.2195772713058, 0.8495584704944106
3817.553449702893, 0.8508665534118565
3807.6377264581706, 0.8484274718597788
3801.9715988897574, 0.8477913111514571
3790.639343752932, 0.8530588716416108
3779.3070886161063, 0.850251255132654
3772.2244291555903, 0.8505526155358551
3752.392982666145, 0.8460574123746777
3746.7268550977324, 0.8484325980211361
3736.81113185301, 0.8425503349660631
3722.645812931978, 0.8510237909095749
3712.7300896872557, 0.8490480756360841
3702.8143664425334, 0.8511728615284702
3677.3167923846754, 0.8482477037553883
3670.2341329241594, 0.8514457315187658
3658.901877787334, 0.8521416163571234
3650.4026864347147, 0.84718870753475
3630.5712399452696, 0.8484714002394045
3622.0720485926504, 0.853798684859594
3612.156325347928, 0.8543137282424904
3589.491815074277, 0.8516172146668374
3579.576091829554, 0.8559284184653926
3569.6603685848318, 0.8537096952666241
3561.1611772322126, 0.8552609059624448
3548.412390203284, 0.8554640986888327
3524.331348037529, 0.856351790209344
3515.83215668491, 0.8583398432494408
3510.166029116497, 0.8582062097094649
3503.083369655981, 0.8588279463194889
3496.000710195465, 0.8588712186143824
3484.6684550586397, 0.8590725638274719
3476.1692637060205, 0.8586373301781005
3462.003944784988, 0.8580706096908943
3449.2551577560594, 0.8603746265682354
3442.1724982955434, 0.8596616364734055
3435.0898388350274, 0.859617647723331
3419.507988021892, 0.859115180925434
3408.1757328850663, 0.8598952266086455
3394.0104139640343, 0.8590892527054065
3388.3442863956216, 0.8597373933966439
3374.1789674745896, 0.8618672468555397
3361.430180445661, 0.861289975744577
3347.2648615246285, 0.859830257351956
3333.0995426035965, 0.8551043840321066
3316.1011598983578, 0.8543616508375553
3212.694331774824, 0.752229450192275
3110.7040355433933, 0.8178186394808359
3086.6229933776385, 0.8243903490434451
3037.0443771540267, 0.8063732954855443
3017.2129306645816, 0.7935965034334578
2995.9649522830337, 0.8081474276153526
2936.470612814699, 0.8343484972138316
2927.97142146208, 0.8341101387009247
2913.8061025410475, 0.8380767675084321
2888.3085284831895, 0.8434470864929221
2874.1432095621576, 0.8414927103975371
2861.394422533229, 0.8427276589550716
2847.229103612197, 0.8464614131947195
2840.146444151681, 0.8472102855312496
2814.6488700938235, 0.8417445395107688
2796.2339554964815, 0.8460277891280534
2787.7347641438623, 0.8451288908990534
2757.987594409695, 0.8498551823730418
2752.321466841282, 0.8502601952859044
2738.15614792025, 0.8528844090343228
2728.2404246755277, 0.8542922709868888
2695.660191157154, 0.8584501125378684
2689.994063588741, 0.8591515399161209
2682.911404128225, 0.8592492912143965
2671.5791489913995, 0.8594590403491016
2661.6634257466767, 0.8594951605213947
2657.413830070367, 0.8595080948900845
2646.0815749335416, 0.860898909293225
2633.332787904613, 0.8603639578669832
2619.167468983581, 0.8622582529364429
2614.9178733072713, 0.8624512528227644
2596.5029587099298, 0.8653615088607611
2582.3376397888974, 0.865259764234847
2576.6715122204846, 0.8649233552348217
2566.7557889757622, 0.8657009576904516
2555.4235338389362, 0.8667693113306788
2544.0912787021107, 0.8661475756084556
2534.1755554573883, 0.8678780767718796
2518.593704644253, 0.8689317674954152
2511.511045183737, 0.8698470563013078
2486.0134711258797, 0.8592995975543947
2470.431620312744, 0.8673639274043081
2463.348960852228, 0.8691318005390405
2452.0167057154026, 0.866931137870319
2440.6844505785766, 0.8675541253915573
2418.0199403049255, 0.8641580914335982
2409.5207489523063, 0.8617584681845211
2365.608260297107, 0.8204983452132579
2324.528835426114, 0.8509676428408393
2310.363516505082, 0.8523246622217722
2291.9486019077403, 0.8620892733864016
2267.867559741986, 0.8683012700678863
2253.7022408209536, 0.8680163002415778
2240.953453792025, 0.8705255366943505
2233.870794331509, 0.8707711671829551
2215.455879734167, 0.8753054708634428
2185.70871, 0.8740358918632234
2170.1268591868647, 0.8801813691879613
2164.460731618452, 0.8806536170249508
2154.5450083737296, 0.8858762352670567
2137.546625668491, 0.8832092854553796
2121.9647748553552, 0.8854508970445104
2116.2986472869425, 0.8861628146760705
2106.38292404222, 0.8843642449436434
2103.5498602580137, 0.8843846892186236
2090.801073229085, 0.8858105513307875
2056.8043078186083, 0.884175357350257
2048.305116465989, 0.8810526106489318
1916.5676505003908, 0.8830679031907196
1602.097570453479, 0.8482923485901949
1531.2709758483188, 0.7047568537905406
1501.5238061141513, 0.7157006241154598
1473.1931682720874, 0.7585390783189381
1459.0278493510555, 0.7557139375115692
1449.1121261063327, 0.76227700522197
1413.6988288037528, 0.769884166530123
1398.1169779906177, 0.7768408034021055
1349.9548936591086, 0.7116094208865233
1330.1234471696635, 0.7027626012380163
1289.0440222986708, 0.7240206574409469
1253.6307249960905, 0.7874287938030896
1230.966214722439, 0.6702414727422149
1204.0521087724783, 0.6622077800073478
1150.2238968725565, 0.7029061293170165
1116.2271314620793, 0.7349778983661905
1086.4799617279123, 0.6698248367423261
1063.8154514542607, 0.742524621752529
1012.8203033385453, 0.7186365704428911
970.3243465754495, 0.7575365879507255
950.4929000860043, 0.7761396743248948
924.9953260281468, 0.7483059738265639
902.3308157544952, 0.7830070233028655
840.0034125019542, 0.5912794450809782
810.2562427677872, 0.6926038243097212
762.0941584362781, 0.737164137824415
718.1816697810787, 0.6058278061821945
711.0990103205627, 0.6642898298364752
664.3534578811568, 0.584491787759037
634.6062881469898, 0.69558721559543
621.8575011180606, 0.6608601793042533
583.6111400312743, 0.735889909411825
566.6127573260355, 0.603238222876461
545.3647789444876, 0.6682509161040877
507.11841785770093, 0.6107192614387295
439.12488703674717, 0.6214269975130264
419.29344054730245, 0.657971857270845
405.12812162627006, 0.6617356520234554
398.0454621657541, 0.6760307528766795
386.71320702892854, 0.6921187024744908
##END=

##END=

