##TITLE=X9697
##JCAMP-DX=5.0
##DATA TYPE=LINK
##BLOCKS=1


$$ === CHEMSPECTRA SPECTRUM ORIG ===
##TITLE=X9697
##JCAMP-DX=5.00
##DATA TYPE=INFRARED SPECTRUM
##DATA CLASS=XYDATA
##ORIGIN=Default
##OWNER=
##XUNITS=1/CM
##YUNITS=TRANSMITTANCE
##XFACTOR=1
##YFACTOR=8.8726127e-010
##FIRSTX=3996.5625
##LASTX=399.65625
##MAXX=3996.5625
##MAXY=0.9526895335270952
##MINX=399.65625
##MINY=0.4685294656104026
##NPOINTS=1765
##XYDATA= (X++(Y..Y))
1765I23749823I23900235I23841790I23998718I24155915I24246337I24474273I24955135
1757I25757512I26273105I26305552I26432922I26335849I25449567I23968891I22569770
1749I22622974I24141874I25072092I25109645I25195297I25459375I25890457I26225744
1741I26298431I26653871I27412246I26767939I24694416I23833930I24420933I25141353
1733I25776523I26309918I27088917I27989508I27581535I27102353I28343000I29231097
1725I27948866I26100255I25019559I25521111I29090492I34431565I37632675I37250565
1717I34043409I29998205I28680974I30984650I32405940I31403641I32235441I33670570
1709I34083313I34051135I31561308I30146467I32329357I36170944I39461670I38620128
1701I36865567I37317676I36035378I33907911I35334776I41679022I50006234I47047033
1693I35950935I30064375I30707069I35123702I40214133I44379654I45439189I42427119
1685I38847392I35799112I33769389I33609304I34294186I37695554I43080427I43118450
1677I40627817I37014434I30769008I27891563I30507483I34403888I35712923I38356386
1669I40268346I36395185I32092889I28874783I26479543I25642771I25819651I27116393
1661I28625753I29501287I31252758I31569504I28802231I27401968I29553955I33457212
1653I35372665I34858012I33342472I32881427I35153462I36716230I36862947I40391417
1645I47680994I51146316I48992783I48664214I47038031I41170348I38816154I42317148
1637I47737894I47917461I41533984I35032810I32839238I33484688I34114685I33763342
1629I31938514I30348942I32003341I37587599I42309557I39800920I34334291I32339702
1621I34179781I34824222I32604989I31171002I31954905I35796761I41729271I43188449
1613I37545612I32249079I30833902I33523181I39767667I47036687I48329197I45109277
1605I43803533I39743348I33665935I30567607I30249854I31527047I34185424I36160733
1597I37013359I42546897I52298087I53281845I42832539I33738554I30889391I31245033
1589I30960264I30831954I32337888I36145483I41559848I40692442I34248034I31794887
1581I34510432I38399649I39088293I38945271I39877503I39625719I37988585I35373404
1573I32189089I30610131I31249735I32460623I32971446I32584567I31467863I31857698
1565I35744900I38353632I35314623I31511730I29559397I29024523I29468975I29954539
1557I30279077I31607594I34492093I36199495I34120664I31454226I30077677I28511080
1549I27605047I28833200I29725192I28885129I28535600I29000272I29087805I28642279
1541I27842522I27307246I27490777I27839365I28188759I28989591I29586335I29175271
1533I28185333I27472438I27401632I27695536I28051783I28289190I28486762I28532309
1525I28513028I29420338I30748922I30608250I29169158I27819951I26989762I26478939
1517I26415657I26816509I26952881I26795214I26722594I26197059I25508683I25911350
1509I26819868I26682757I25756034I25290757I25560545I25906647I26180197I26442797
1501I26482163I26576884I26687930I26223460I25710554I26134986I26937497I27226364
1493I27056604I26696126I26323891I26062769I26058806I26365609I26890002I26974983
1485I26388450I26190811I26766126I27564942I28082550I28004153I27957061I28264200
1477I28266686I28182041I28218855I27816390I27224348I26878246I26699283I26954292
1469I27472169I27457793I27088715I27166508I27782331I28074959I27672897I27383829
1461I27293878I27041758I27105040I27742696I28538489I28809352I28052522I27042497
1453I27115117I28124604I28923958I29017671I28798066I28565158I28363490I28386935
1445I28542856I28473863I28219863I28328960I28658604I28394929I27576362I26997622
1437I26969743I27331833I27771045I27775479I27636487I27736448I27839902I28107675
1429I28386532I28014633I27470758I27510528I27551641I27595374I28151609I28320697
1421I27785287I27577168I27690700I27786227I28039758I27986217I27655297I27684855
1413I28227454I29130060I29672861I29073967I28161149I28114527I28591627I29088679
1405I29208995I28688162I28203001I28348845I28662030I28836356I29302641I29819108
1397I30120066I30516283I30875418I30644661I29751056I29176884I29481873I29901938
1389I30245555I30736762I30389115I29307344I29070809I29222632I28744592I28459958
1381I28886338I29482881I29765096I29713503I29616297I29766037I30169576I30373126
1373I30351831I30449105I30390458I30287206I30539796I30861445I31312278I31859781
1365I31902842I31517172I31211981I31084410I31107250I31230321I31000235I30478059
1357I30400334I30631696I30337253I29767783I29769329I30161851I30160978I29804127
1349I30208540I31113095I31186789I30674085I30280421I30163329I30497339I31386107
1341I31926019I31357758I30972020I31589724I32362946I32797790I32745929I32400230
1333I31891689I30665419I29168889I28021754I26365945I23249211I18651868I14298517
1325I13268205I16044076I19676135I21573786I20447005I17463888I16312655I17082517
1317I16368547I13445824I10823790I11159816I14089929I17040597I18570314I18884103
1309I19154832I19915356I20367264I20165998I19728869I19573957I20066239I20738223
1301I20925381I20813933I20666812I20345230I19665453I18811618I18417147I18169461
1293I17480481I16926261I16782970I16902681I17246634I17431441I17465501I17538120
1285I17433457I17463821I17997552I18935159I20117294I20795324I20521371I20149540
1277I20526880I21151033I21402817I21673814I22066739I22270894I22774261I23948200
1269I24593246I24320704I24432152I24529090I22956112I19010197I12400060I05120761
1261I01131516H99986194H97940953H94813538H92560044H91182957H90010563H89089012
1253H88489580H88135081H87530208H86069081H84106805H83361597H84844422H87306168
1245H89080010H89142754H87293405H84665325H83003671H82964102H83655233H84461103
1237H85926731H88007308H89874392H91248456H92342252H93467554H94225930H93683667
1229H91819202H90293988H90778343H92929390H96000107H99478999I02419457I04630763
1221I06561197I08181133I09124584I09478546I09551636I09405523I09304017I09312750
1213I08934134I08063638I07460579I07445128I07380234I07101579I06756484I06430737
1205I06342934I06429729I06612051I06928729I07648342I08897118I10227785I11398298
1197I12668437I13747454I14180216I14694600I15781342I16546502I16444324I16182262
1189I16301974I16514257I16365726I15963933I15938203I16198116I16249440I16432635
1181I17209148I18223002I19007846I19714023I20483348I20827435I20648876I20555095
1173I20690660I21106628I21835378I22517035I23010594I23495217I23893248I23781800
1165I23437578I23469219I23778306I24075033I24233708I24530971I25274433I25888509
1157I26071435I26124977I26032136I26092462I26312135I26380657I26489351I26647958
1149I26858966I26951605I26581453I26271895I26573055I26836057I26671606I26702441
1141I26924263I27011057I27155692I27502601I27734500I27654961I27692648I27773933
1133I27709308I27697753I27807590I28174988I28472922I28543594I28755407I28950493
1125I28945791I29098487I29381240I29479656I29615154I29763753I29629195I29450837
1117I29429474I29402871I29677899I30439499I30855869I30671465I30604085I30817981
1109I31095427I31497354I31911844I31871067I31257729I30861512I31256991I31765194
1101I31694254I31338142I31445291I32082947I32542916I32765545I33160486I33694486
1093I34232650I34320184I33515724I32585507I32657119I33588210I34284646I34214848
1085I34135779I34567870I34775518I34628061I34673810I34624837I34298552I34556181
1077I35484181I35678528I34771420I33980195I34279272I35214595I35667577I35658844
1069I35762769I35706810I35195516I35160583I35930715I36344600I36460348I36991392
1061I37510814I37910860I38381578I38695233I38832747I38613343I37952444I37446188
1053I37577656I38190053I38742258I39053696I39276191I39360701I39276728I38745617
1045I37775899I37235786I37406889I37864910I38399044I38724590I38534476I38204160
1037I38702421I40018376I40471829I39481151I38534543I38114813I37826887I38181924
1029I39290836I40521003I41435165I41522832I40779169I40489765I41194128I41477689
1021I41218918I41810288I42498395I42395612I42157196I41858857I41719665I41944376
1013I42010815I41910518I41988243I41877668I41423476I41525251I42118636I42217254
1005I42273549I42878355I43230973I42837846I42265488I42232503I42813259I43245349
997I42727674I42070469I42401591I42900322I43036559I43254687I43468247I43626922
989I43869435I43855126I43530991I43429619I43407652I43289687I43260868I43300570
981I43518026I44138954I45027991I45543987I45394045I45027185I44461880I42923969
973I40444890I38088076I36532027I35665831I35053031I33964676I32324721I31838217
965I32788520I33046955I32820295I33063480I32444500I31654283I31743361I32625881
957I34210482I35271427I35132436I34449300I33857729I34052747I35197195I36033766
949I35774794I35028108I34565451I34457630I33852019I32954047I33364841I35079768
941I36554935I37312302I38206243I39457236I40443077I41239407I42373107I43480608
933I44362725I45817334I47455678I47919477I47777529I48599723I50227385I51532725
925I52285726I52693968I52227684I50934973I49621907I49145950I50288450I52180256
917I53797236I54956867I55372969I55215906I55195148I55413477I54759228I52426330
909I47390246I37657733I23311821I09406397I03438148I07742728I17752822I28603852
901I37809421I44155614I48099649I50440743I52424113I54976483I56848539I57185438
893I56690267I56171248I56994853I59358452I61211496I62287826I62038796I58297439
885I51002219I38328037I18692444H99509901H90433450H92053855H99602607I08210490
877I13098445I15279655I21400331I31410761I38179103I40147089I41716305I45332510
869I48751815I48857956I47511033I45979638I41930201I39183418I42194547I46064954
861I46576046I45533372I46263869I49363674I52691214I53595298I51451104I49295220
853I49372407I50651683I52296542I52791847I51680383I51205500I51671112I52162118
845I52771962I53437631I54423001I56316218I58517044I58879874I56531457I53802140
837I52941117I53999980I55974819I57202568I57282846I57697940I58262372I57743017
829I56925122I57698142I60184543I62391549I63332044I63174579I62801605I63509865
821I63943837I62040274I59056956I58837686I62011522I64735868I65646200I65750461
813I64796530I63364626I63419040I65012642I66003857I65744012I64789073I63824797
805I65088487I68256142I69367001I68822589I68306794I66310123I65675826I67494341
797I67925759I65493840I63143139I64176944I65582045I65050396I65331067I68243579
789I71184239I70533887I67792276I65297075I64295985I66502051I71095027I74646404
781I76551780I78663125I79142173I75804019I72643955I73737550I77473331I81744053
773I84653878I84732678I82574712I80184107I78942922I77978646I78320852I79283785
765I78019155I76117876I75757599I76421253I76980243I77518475I78848268
758I79954895I78730236I76342319I75629625I76190563I77181240I78852030
751I79458784I79115974I80087035I81699245I82629798I83022925I82454194
744I81536741I81866989I82408109I80946245I78512511I77801161I78491888
737I78591983I78685025I79497143I80419769I82382582I84989299I85202590
730I83587693I82516469I81346224I80109875I79909147I80947721I83526762
723I88227290I93534102I94472313I90825476I88286474I88323960I88697874
716I88633853I88462884I87801985I87030376I87681467I91089620I96061078
709I97456438I95085650I94617284I95843421I95974889I96763763A000480331
702A003342191A003311894A002707693A000495850I97990572I97341563I97451735
695I97488280I98537671I99875794I99419520I98136819I98066147I99741438
688A001111001I99599692I97370046I98626279A001062431I98243766I93955914
681I93295821I94926371I96901277I97591197I96052614I95813459I99022765
674A000058183I93337874I84008296I76661617I72293016I68040701I61760611
667I55562882I49117600I44377101I43749992I43534485I39299098I33950233
660I31316376I31293535I31157835I32868932I42604536I54504489I55841134
653I52806492I51434846I53722400I59317675I68439874I83330803I98693995
646A003630319A004794249A010026224A020572065A034328152A045775256A055473777
639A067589506A073741823A070445051A060415475A049224320A041565800A035304184
632A030185270A011901169I67330157I21156945H80222492H33833907G73270445
625G17626042F78505200F63158937F77412143G14056661G61306471G99822104
618H30406876H62437122I03039781I32099741I42391917I56818577I67575022
611I68374443I70939711I79272566I93705003A006496277A005321598A001631766
604A001728167I99450220I91345704I75844998I54992337I36055733I07898648
597H58798749H07768819G62753491G23917418F93046198F70313688F57038530
590F55138730F64773096F83194040G06401902G30822400G54725624G77669007
583G99386655H19963281H39396802H58023647H77598645H97428249I08653933
576I16454804I28246465I37258895I42346773I49869258I63166786I87246824
569A004330988I97961148I91942247I88710302I83679660I74632767I63538550
562I51771208I39506612I21626856I06033243I01872962H94878566H67622005
555H23532527G64804845G04137123F69050737F69546781F96645204G37937112
548G83051058H18083432H38636680H38742351H01680724G46008107G22139747
541G22953679G38007985G58550619G75249314G90122441H08161946H23529034
534H30602096H36094924H43767753H52032154H60566141H71589888H83995491
527H91428359H91398398H92613652H99192685I05657247I09896193I18719785
520I32198829I36179811I30566801I24413745I13115038H92376782H74200770
513H72572704H82337532H93547765I01529816H98951717H83270369H58421879
506H33127460H24037909H20442329G95402918G55681839G20557230F87493312
499F57360918F43450456F53545329F79866769G10578709G40083389G64295769
492G81994210G90795298G84962749G68165033G55560045G58033682G72320948
485G89326244H01311244H09440281H16835261H24134176H32042263H39963114
478H45704502H50426057H54971403H58496984H63465890H68561023H69258602
471H64912103H55398993H41549999H21679953G94277481G69078926G60482799
464G71800115G95309474H20252013H34388329H28999022H06077338G81789048
457G75534284G89107848H09823936H28581509H44105929H56871473H65597321
450H68441244H64184562H53190509H37369295H18119776G98420699G85661268
443G86881427H01005113H20260612H38356950H53068244H62385932H61617548
436H46941051H23005917H02272632G95654165H05158676H23643103H41634106
429H53430199H58524192H60803012H65424068H74552314H85974226H96330086
422I04324229I09981174I11894074I05434079H83298046H42192491G94209967
415G63703122G63324842G82688430H04769244H20904649H30552317H36657744
408H42531137H50301912H60951946H73392347H81640355H79340778H70316659
401H60839892H51522473H47846077H50412621H46056113H27662578H01883132
394G78899645G61117365G40413570G11322372F80797053F59368876F51262478
387F55584054F69462473F89250090G11097863G31653193G48547713G60806934
380G70162578G79829123G90902380H02098237H11852181H18645848H21288640
373H20060353H17414203H17030212H21320818H29680612H39170949H47161396
366H53524855H59483430H65330556H70734037H75648394H80222224H84256881
359H87586772H90340878H92328883H93388889H93772947H92846290H88405406
352H80076447H72326766H69770433H70221400H66586184H52994684H29188129
345H03453021G88137257G89115304H01434785H12978357H10232648G89830753
338G68422527G65112051G73615405G79050729G85258333G97758658H07844395
331H05780209G95662696G90439925G95743378H07218159H19108572H28970135
324H36046758H40680443H42907200H40886882H37774649H41687244H52431865
317H59361434H50353370H28142499H15838470H24707542H40927861H51615918
310H55393350H56295352H58782895H64460732H71738755H78176243H82555794
303H85433710H88324859H91381738H93407497H94870370H97503488I00883225
296I03663464I05504954I05251356I00459129H89839392H75416293H62431479
289H56727711H60253225H69741143H80522846H89849469H97361944I03827177
282I09063317I12662996I15483743I18262436I20810708I23123655I25512310
275I27342380I26915194I22120280I15606948I15291008I22463225I30830342
268I36130301I36145618I27303551I11553816I00120685H95217480H78326991
261H41242121H14241442H24924259H57209110H84565498I01649931I12472814
254I19313977I23340909I24924367I22779702I13416467H93748494H68240717
247H50025473H49007857H62800959H82847279I01954584I16569880I26378910
240I30515276I25627119I10118822H93926247H91973309I01794565I07456616
233I02365580H95309985H98583446I13421304I31631711I47091236I57809187
226I62878188I61195172I46182986I02737815H33221510G81102150G83824817
219H23886019H64863533H92882163I09507231I16598834I08596160H77166017
212H35272058H17773808H32357127H52770712H67367669H81588159H91830958
205H83561116H38371326G55263521F73939566F46136913F79508978G38893058
198G92425579H30509323H55940382H73915800H87379796H97479909I04694650
191I07528093I05711862I03862379I06916906I14296636I22118534I28648661
184I34461325I39641170I43514465I46176537I48718965I51339319I53083132
177I53931458I54954784I57137338I60522919I63362812I61839478I54072667
170I45320955I41475740I42474009I47123818I53923397I60176347I65065579
163I68979114I70303398I67436769I60963273I50676874I37788058I28250026
156I29310568I40783737I53197603I60189178I62357288I60855049I55692536
149I41112239H98496450H07689347F78174885E65677879E28062569E63651985
142F27085032F86196839G33391027G70444659H00275020H24384280H44531973
135H60902234H71189303H79991534H92979841I02563487I09241071I16550533
128I23116870I27684654I31572660I34504386I37116343I41627026I46739961
121I49076151I45930934I40012263I39866284I47380841I55602450I61614297
114I66134183I68299942I70269944I74991633I80722407I83583259I81540772
107I73515190I59561129I47678710I48491701I59162493I70322611I79468592
100I86172375I88970886I90313040I94391967I99909585A003613927A006829010
93A011088581A014253817A016978903A021252647A020086904A000547308I62129756
86I29286653I24683802I40420773I52907998I45895867I08447293H46200412
79G99253373H01781425H40612056H83892171I16125698I36067758I48810999
72I58751564I65954347I71327060I73489729I64281071I34637399H85212357
65H28981623G86768567G78816680H04322374H43248063H80712490I09687269
58I31509513I49301870I62843793I71355544I64087598I25500286H79921601
51H75293021I09040208I44706006I68445316I77883320I63346824I20246477
44H71517873H48887407H57401912H80467894I06149462I28828229I48329734
37I64526541I71393365I72624810I78652175I86932900I86943447I77642016
30I59961981I30430295I02716990H87328673H70462234H46477925H37775791
23H58191794H92456119I20873049I37186007I45324650I47477780I43195503
16I39801726I43452460I53239590I67084150I78891665I83929899I77684069
9I68827896I71025027I83637203I95496378I96663264I93131368I93015150
2I92716744I88075803
##END=


$$ === CHEMSPECTRA PEAK TABLE EDIT ===
##TITLE=X9697
##JCAMP-DX=5.00
##DATA TYPE=INFRAREDPEAKTABLE
##DATA CLASS=PEAKTABLE
##$CSTHRESHOLD=0.93
##MAXX=3996.5625
##MAXY=0.9526895335270952
##MINX=399.65625
##MINY=0.4685294656104026
##$CSSOLVENTNAME=- - -
##$CSSOLVENTVALUE=0
##$CSSOLVENTX=0
##NPOINTS=44
##PEAKTABLE= (XY..XY)
446.5546875, 0.7433260122979145
485.296875, 0.7531849188218268
501.609375, 0.7766135974345967
526.078125, 0.6910138765939836
558.703125, 0.7091465627797637
609.6796875, 0.8415599512137203
691.2421875, 0.4685294656104026
717.75, 0.823600296946293
744.2578125, 0.8387466710909128
807.46875, 0.5732922580222595
827.859375, 0.7255790274588161
848.25, 0.6930416856087305
870.6796875, 0.7943738743347809
878.8359375, 0.7914133709494424
899.2265625, 0.7532917894417983
927.7734375, 0.7224448959155513
986.90625, 0.7601413169060529
1037.8828125, 0.7238618770070568
1068.46875, 0.7013267317142047
1084.78125, 0.6788542900625647
1099.0546875, 0.6992836635801364
1154.109375, 0.7249192635274893
1188.7734375, 0.577839973333627
1241.7890625, 0.6772685687354694
1280.53125, 0.7059531249186896
1302.9609375, 0.6970868144354904
1329.46875, 0.6881015337503806
1345.78125, 0.6747469340538947
1392.6796875, 0.6703791650879571
1413.0703125, 0.5709086687726391
1443.65625, 0.7741999664056353
1502.7890625, 0.6407266290406987
1523.1796875, 0.593622806605056
1600.6640625, 0.5812792216059871
1667.953125, 0.58839524065447
1743.3984375, 0.8263209505415575
2194.03125, 0.7900471136974815
2242.96875, 0.8015856785609279
2854.6875, 0.8041629835636274
2901.5859375, 0.7899233744662447
2926.0546875, 0.7834198513921907
2942.3671875, 0.7837725324234481
3078.984375, 0.8081386726616133
3099.375, 0.8103075074189203
##END=


$$ === CHEMSPECTRA PEAK TABLE AUTO ===
##TITLE=X9697
##JCAMP-DX=5.00
##DATA TYPE=INFRAREDPEAKTABLE
##DATA CLASS=PEAKTABLE
##$CSTHRESHOLD=0.93
##MAXX=3996.5625
##MAXY=0.9526895335270952
##MINX=399.65625
##MINY=0.4685294656104026
##NPOINTS=202
##PEAKTABLE= (XY..XY)
3992.484375, 0.8196890398744733
3965.9765625, 0.8185604257938078
3937.4296875, 0.8196820660008911
3921.1171875, 0.8225820111427683
3910.921875, 0.8207340286931799
3894.609375, 0.8239826604160769
3888.4921875, 0.8263983773962841
3876.2578125, 0.8252829355964331
3866.0625, 0.8312445327956901
3859.9453125, 0.8286203191769069
3847.7109375, 0.8252100985442562
3827.3203125, 0.828355376750856
3811.0078125, 0.823282246609665
3790.6171875, 0.8212869805637791
3774.3046875, 0.8228478479281793
3762.0703125, 0.8277095596794323
3739.640625, 0.8329752130945556
3727.40625, 0.8276721270137122
3717.2109375, 0.8254625838220763
3704.9765625, 0.8272289080679415
3696.8203125, 0.8261919658216925
3682.546875, 0.8258928700475755
3662.15625, 0.8253746668773545
3641.765625, 0.8259421032881865
3635.6484375, 0.8258911416626216
3623.4140625, 0.8267455148191265
3615.2578125, 0.8330897736079541
3603.0234375, 0.8256943267059264
3592.828125, 0.826455359089566
3578.5546875, 0.8242874781381242
3556.125, 0.8230280320596297
3547.96875, 0.8238536756962119
3537.7734375, 0.8227638047661624
3519.421875, 0.8228475498083926
3507.1875, 0.8238336484348255
3490.875, 0.8219727323777044
3478.640625, 0.8211680094746073
3468.4453125, 0.8209746521750814
3450.09375, 0.8213471217944436
3433.78125, 0.8216561123062436
3423.5859375, 0.82177323523019
3413.390625, 0.8233403604483275
3407.2734375, 0.823539976488852
3397.078125, 0.8222243827426694
3388.921875, 0.822569910673568
3374.6484375, 0.8225282475461126
3362.4140625, 0.8225289032321912
3348.140625, 0.8237009691590322
3339.984375, 0.823573534484606
3327.75, 0.8224643514257536
3319.59375, 0.8230559275539585
3307.359375, 0.8229088826309426
3293.0859375, 0.8230032961026833
3282.890625, 0.8230726169384471
3268.6171875, 0.8234800739314693
3258.421875, 0.8235585734850712
3235.9921875, 0.8244226621524826
3221.71875, 0.8243285459132674
3215.6015625, 0.8237865614792266
3205.40625, 0.8248125362889172
3197.25, 0.8254651471198854
3191.1328125, 0.8254078078603115
3174.8203125, 0.8261151360938007
3164.625, 0.8255081819532641
3158.5078125, 0.8249469439496644
3150.3515625, 0.8249791905732613
3138.1171875, 0.8252978965959678
3127.921875, 0.8260154167996654
3099.375, 0.8103075074189203
3087.140625, 0.8130087299923718
3078.984375, 0.8081386726616133
3056.5546875, 0.8159023569467454
3030.046875, 0.8134260222765719
3017.8125, 0.8140031741983104
3003.5390625, 0.8164130494503158
2983.1484375, 0.8201139617183341
2942.3671875, 0.7837725324234481
2926.0546875, 0.7834198505049295
2901.5859375, 0.7899233744662447
2875.078125, 0.8067902369395216
2854.6875, 0.8041629826763661
2824.1015625, 0.8128930373335927
2813.90625, 0.8126764932352978
2791.4765625, 0.8167728826946706
2773.125, 0.819330398222004
2752.734375, 0.8216324490481727
2734.3828125, 0.8218451779230066
2728.265625, 0.8221998260124996
2713.9921875, 0.8230723188186604
2705.8359375, 0.8231102865029263
2691.5625, 0.8242176222838146
2673.2109375, 0.8246231716651061
2663.015625, 0.8256889623242879
2648.7421875, 0.8259173673312402
2640.5859375, 0.8263402626703603
2620.1953125, 0.8274470013244138
2610.0, 0.8288224976279793
2603.8828125, 0.8292592803804975
2597.765625, 0.828966919806681
2587.5703125, 0.8286844539705476
2579.4140625, 0.8301738542141719
2571.2578125, 0.8297317665265204
2546.7890625, 0.8317596953215387
2526.3984375, 0.8315730137758082
2514.1640625, 0.8324322145208831
2499.890625, 0.8320974747997665
2485.6171875, 0.8344601433159016
2479.5, 0.8351070925327059
2467.265625, 0.8355513859518745
2461.1484375, 0.8357207224270379
2455.03125, 0.8352885889235745
2436.6796875, 0.8360064072470588
2428.5234375, 0.8358626407544356
2402.015625, 0.8369188356829823
2367.3515625, 0.8267839598499556
2361.234375, 0.8276553196234746
2355.1171875, 0.8266207623355194
2340.84375, 0.8285757946318558
2322.4921875, 0.8277739925928597
2291.90625, 0.8409262940580018
2273.5546875, 0.8421404410123565
2259.28125, 0.8475076601123179
2242.96875, 0.8015856785609279
2216.4609375, 0.848373715837965
2194.03125, 0.7900471136974815
2159.3671875, 0.8333010722176208
2151.2109375, 0.8389351404681024
2138.9765625, 0.8422728825021294
2126.7421875, 0.8439677999609849
2104.3125, 0.8455077457046386
2088.0, 0.849042599040625
2075.765625, 0.8542565748103383
2065.5703125, 0.8507395430042212
2053.3359375, 0.854756121537835
2041.1015625, 0.8551644134437122
2026.828125, 0.8568067597850589
2018.671875, 0.8545596047009265
2012.5546875, 0.8562518399689629
1998.28125, 0.8555824803070009
1981.96875, 0.8629893107711228
1963.6171875, 0.8677225754828404
1953.421875, 0.8657519265008907
1937.109375, 0.8656383801271237
1926.9140625, 0.868731682568527
1914.6796875, 0.870879535371321
1904.484375, 0.8675650999163345
1877.9765625, 0.8694354342518367
1863.703125, 0.876868312045062
1851.46875, 0.8757538249383375
1839.234375, 0.8824853945657907
1818.84375, 0.884902541811165
1804.5703125, 0.8855454371312267
1796.4140625, 0.8849278136739184
1786.21875, 0.8813129116261527
1776.0234375, 0.8835467143154329
1739.3203125, 0.8261802832525504
1727.0859375, 0.8441712897842144
1667.953125, 0.58839524065447
1600.6640625, 0.5812792216059871
1523.1796875, 0.593622806605056
1502.7890625, 0.6407266290406987
1470.1640625, 0.7909032746854454
1443.65625, 0.774199965518374
1413.0703125, 0.5709086687726391
1392.6796875, 0.6703791650879571
1345.78125, 0.6747469340538947
1329.46875, 0.6881015337503806
1302.9609375, 0.6970868144354904
1280.53125, 0.7059531249186896
1241.7890625, 0.6772685687354694
1211.203125, 0.7522609870435377
1188.7734375, 0.577839973333627
1154.109375, 0.7249192635274893
1111.2890625, 0.7717136189920298
1099.0546875, 0.6992836635801364
1084.78125, 0.6788542900625647
1068.46875, 0.7013267317142047
1050.1171875, 0.7433249990455442
1037.8828125, 0.7238618770070568
986.90625, 0.7601413169060529
950.203125, 0.8121022621776601
927.7734375, 0.7224448959155513
899.2265625, 0.7532917894417983
878.8359375, 0.7914133709494424
870.6796875, 0.7943738743347809
848.25, 0.6930416856087305
827.859375, 0.7255790274588161
807.46875, 0.5732922580222595
783.0, 0.8019620822967612
742.21875, 0.8353349607465897
717.75, 0.823600296946293
691.2421875, 0.4685294656104026
638.2265625, 0.8339069527720206
611.71875, 0.8408386157865617
570.9375, 0.8204361245109485
558.703125, 0.7091465627797637
526.078125, 0.6910138765939836
501.609375, 0.7766135974345967
485.296875, 0.7531849188218268
446.5546875, 0.7433260122979145
430.2421875, 0.833849672958952
415.96875, 0.8596034694163879
##END=

##END=

