##TITLE=R. Baer RB124-2
##JCAMP-DX=5.0
##DATA TYPE=LINK
##BLOCKS=1


$$ === CHEMSPECTRA SPECTRUM ORIG ===
##TITLE=R. Baer RB124-2
##JCAMP-DX=5.00
##DATA TYPE=INFRARED SPECTRUM
##DATA CLASS=XYDATA
##ORIGIN=Angelika Moesle
##OWNER=
##XUNITS=1/CM
##YUNITS=TRANSMITTANCE
##XFACTOR=1
##YFACTOR=8.4911378e-010
##FIRSTX=3997.453
##LASTX=373.96442
##MAXX=3997.453
##MAXY=0.9117289780716209
##MINX=373.96442
##MINY=0.32108858206663093
##NPOINTS=2559
##XYDATA= (X++(Y..Y))
2559A073433380A073355533A073133993A073100018A073299657A073424676A073261680
2552A072988055A072885498A072980263A073091946A073064429A072844925A072483763
2545A072143172A072004465A072117551A072358605A072510650A072408374A072107092
2538A071858316A071812267A071906611A072097405A072374469A072529252A072364993
2531A072061324A071837538A071482415A070701270A069735790A069275443A069779453
2524A070851490A071498209A071276880A070790139A070815690A071262349A071509160
2517A071321946A070876199A070454250A070421468A071029859A071897977A072185922
2510A071684159A071155721A071408779A072149350A072260049A071392353A070378646
2503A070248434A071235043A072596992A073488976A073741823A073583881A072957730
2496A071588622A069756569A068529888A068870481A070444352A072045038A072920737
2489A072862123A071931109A070508230A069282463A069131821A070280584A071404497
2482A071329387A070656976A070546909A070688495A070002256A069083807A069293413
2475A070133382A070226954A069617790A069057413A068737739A068739214A069441738
2468A070155705A069603541A068200317A067570375A068234923A068881150A068424102
2461A066801726A064212044A061452908A061193954A065810905A070842154A072015907
2454A070782626A068944747A067163307A065866992A065493407A065865728A066439934
2447A067392638A069150985A070875708A071400917A070883430A070263245A069941255
2440A069657381A069348377A069091037A068572427A067840490A068067014A069747162
2433A070994831A070929970A070798211A071125607A070967735A069862705A068224604
2426A066852056A066764030A067851581A068335795A067735968A067855302A069515585
2419A070648553A070333231A069895347A070029771A070079963A069755867A069523587
2412A069555526A069559528A069518252A069650572A069721190A069358415A068873850
2405A068860372A069141438A069078472A068618476A068133770A067921497A068082036
2398A068306243A068061749A067442688A066958544A066507392A065715789A065111469
2391A065798761A067552896A068573901A067925077A066322425A065409242A066736092
2384A069059238A069341217A067666123A066854232A068950994A071598449A071967120
2377A070546766A068886626A068154198A068834259A070423153A071821814A072328772
2370A071886465A070923161A070265702A070639217A071762638A072530094A072311431
2363A071401338A070434595A069742880A069241608A068880870A069122766A070406937
2356A071753934A071740737A070388616A068580079A067372492A067816483A069943080
2349A071962979A072234077A070925477A069055658A067309104A065850846A064824647
2342A064730443A065783107A066986131A067264038A066504725A065118910A063622044
2335A062300247A061116948A060429586A061261974A062855711A062587210A060568294
2328A059320836A060122126A061104243A060833285A059918908A059157700A058581669
2321A057862857A057143487A057179919A058147364A058599709A057356673A055278090
2314A054628915A056965048A060124373A061247514A060497045A059025029A057686876
2307A056879268A056415341A055886131A055295780A054970139A054811566A054382737
2300A054135365A055513950A057877528A058318994A056655061A054508248A052809989
2293A051634552A050851652A050254492A049498408A048610986A047878628A047081128
2286A045690469A044058333A043358759A043828162A044303531A044008426A043249533
2279A042482920A041582650A040277001A038824499A037761797A037153757A036491666
2272A035513270A034700537A034630481A034649223A033370879A030859325A028250480
2265A026372799A025356427A024816687A024263190A023396546A022075309A020178397
2258A017720052A015134231A013372444A013178422A013679764A013291368A011809664
2251A010046193A008613276A007405969A005984986A004259561A002660770A001590557
2244A000672460I99066017I96654002I94309586I92967012I92649795I92628666
2237I92229247I91196942I89722750I88307311I87401639I87049253I86871797I86365120
2229I85266197I83828437I82757171I82565675I82925289I82993452I82474280I81856763
2221I81504518I81187722I80629872I79972554I79503853I79249672I78962640I78417214
2213I77669133I76982753I76600043I76591339I76764232I76788380I76526267I76114074
2205I75732064I75434293I75190080I74993460I74914700I74996830I75012764I74550171
2197I73571424I72632057I72272230I72339479I72268650I71959155I71883975I72303398
2189I72794561I72793719I72263316I71539732I70839173I70171747I69548965I69082651
2181I68889260I68972724I69267548I69735406I70300136I70778734I71014453I70982371
2173I70804005I70836857I71539030I72909472I74305536I75161651I75497048I75581916
2165I75577774I75626490I75923210I76532372I77319555I78172019I79087379I79987714
2157I80704070I81222680I81643366I81904216I81947386I82110172I82828911I83964547
2149I84898298I85267812I85292100I85419083I85862023I86559283I87449302I88529413
2141I89662942I90561034I90985862I90908927I90623649I90697495I91486291I92707637
2133I93793082I94548113I95183600I95873981I96526877I96943913I97090062I97167909
2125I97442798I98065229I98990486I99949929A000647821A001089496A001528644
2118A002146371A002999886A004076840A005175482A006022541A006629107A007204927
2111A007770990A008223476A008626262A009092014A009528425A009818335A010141238
2104A010825021A011851150A012751698A013114052A013015496A012874261A013033607
2097A013555376A014272010A014964356A015530348A015988380A016414120A016922341
2090A017555372A018136386A018429596A018455148A018514815A018909739A019662805
2083A020489787A021085894A021396373A021479555A021285533A020837470A020467325
2076A020560475A021103865A021622686A021613490A021091089A020666823A020970492
2069A022042670A023328315A024171373A024305658A023945621A023443999A022959714
2062A022572159A022499999A022890080A023496646A023868055A023849312A023736013
2055A023879567A024245358A024497084A024465425A024282002A024057234A023751529
2048A023440278A023443646A024020310A025007551A025896236A026328645A026432115
2041A026550325A026782886A026929034A026755018A026291090A025962291A026246024
2034A027069006A027810419A027982119A027603551A026987718A026533899A026572367
2027A027041770A027472775A027547394A027484217A027696069A028239529A028747189
2020A028819561A028396418A027812174A027522965A027691858A028063196A028344543
2013A028571207A028928576A029446976A030054805A030643542A030950370A030726935
2006A030125914A029644297A029658477A030178281A030920747A031437532A031358421
1999A030742168A030124229A030045539A030530526A031168189A031636258A031896686
1992A031934452A031681113A031247089A030932750A030931487A031175840A031479650
1985A031762401A032127279A032695660A033395026A033989729A034303507A034355943
1978A034303787A034252825A034119101A033757871A033226836A032747676A032431582
1971A032264795A032314282A032638521A033009508A033026004A032570851A031939787
1964A031478878A031317496A031481193A031999173A032778773A033555776A034095653
1957A034385496A034580782A034794178A034965668A034988552A034902843A034848160
1950A034862409A034872799A034813623A034665579A034493386A034486929A034774173
1943A035167132A035285834A034959210A034384864A033924166A033780053A033814028
1936A033698485A033316827A032919797A032827629A033119927A033640502A034136018
1929A034339868A034088355A033465924A032779615A032306422A032050837A031757206
1922A031149023A030153291A028901761A027546692A026129849A024641618A023150578
1915A021792841A020593257A019382090A018006453A016583504A015368967A014377234
1908A013357563A012175808A010961693A009791521A008432659A006527673A003929779
1901A000805061I97477616I94246901I91350883I88958101I87065890I85516096
1894I84277412I83620515I83895544I85235451I87462148I90163231I92944478I95688312
1886I98443095A001118136A003463254A005256418A006432838A007195942A007966768
1879A008961309A009919627A010449400A010428271A009873931A008691966A006767253
1872A004153915A001060013I97668269I93982612I89854789I85133316I79738660
1865I73640918I66851953I59389946I51185192I42031244I31607374I19611248I06046094
1857H91380962H76335019H61591480H47710583H35092658H24027404H14925048H08314244
1849H04419262H02941980H03364773H05231433H08030370H10993075H13223492H14088240
1841H13376239H11031823H06987884H01486530G95348145G89671230G85431233G83531298
1833G85001912G90776821H01057631H14910730H30678431H46852573H62469425H76850470
1825H89410624H99865941I08439296I15754593I22472519I28880178I34823067I40106953
1817I44829900I49200532I53214146I56680790I59459862I61547780I62964833I63640613
1809I63498746I62646703I61318028I59509841I56759197I52357260I45694787I36355662
1801I24103390I09252941H93316135H79022484H69286398H65945896H69146637H77428326
1793H88373263H99680693I10002498I18908370I26368273I32512836I37666648I42255519
1785I46581368I50663704I54223569I56896433I58523583I59086768I58270736I55282550
1777I49220959I39478274I25843977I08767745H90080226H73329073H62629262H60456476
1769H66340540H77703636H91805651I06829133I21616896I35184226I46783744I56133961
1761I63365162I68842439I73050497I76411706I79098891I81127843I82626957I83871397
1753I85071753I86281867I87474783I88576584I89501982I90291691I91147945I92254941
1745I93606781I95027203I96302179I97310197I98052874I98586928I99008176I99517378
1737A000332639A001443777A002540383A003281235A003598171A003705642A003886608
1730A004288131A004827800A005242730A005307802A005077137A004864863A004962787
1723A005407411A005985688A006414377A006559893A006529639A006552733A006786066
1716A007204155A007601466A007733435A007558225A007318084A007318294A007639162
1709A008075502A008355585A008420446A008410336A008383593A008263207A008069956
1702A007945637A007929915A007967048A008081890A008298796A008472672A008424869
1695A008205154A008063709A008194555A008554662A008914979A009080502A009069552
1688A009054387A009116373A009190500A009272980A009457176A009666290A009668186
1681A009475146A009392314A009540850A009684822A009623822A009451419A009340228
1674A009285616A009152734A008902765A008693648A008717166A008968329A009253606
1667A009395473A009362340A009227072A009056495A008863104A008631948A008357270
1660A008088488A007986282A008238638A008797962A009310465A009446155A009233039
1653A008979771A008921578A009010938A009047791A008959133A008868439A008896097
1646A009000338A009058390A009027223A008957378A008892938A008827094A008766304
1639A008738506A008716394A008630474A008489449A008390543A008416515A008567718
1632A008749737A008811931A008684455A008456106A008258714A008128360A008019485
1625A007872775A007664011A007410813A007095983A006603977A005872251A005091387
1618A004609630A004593906A004881570A005191557A005407691A005601852A005853438
1611A006144823A006393949A006501560A006420203A006257418A006218669A006354850
1604A006465269A006363905A006112252A005885728A005726944A005552787A005313697
1597A005092019A005097073A005490102A006109233A006529779A006529007A006292446
1590A006105723A006129099A006452634A007035544A007582864A007753792A007494557
1583A007043125A006672910A006501209A006489838A006575126A006748511A006963101
1576A007048741A006845803A006439226A006173603A006340390A006879076A007445771
1569A007720730A007585181A007159300A006755109A006615910A006650377A006609663
1562A006443578A006247239A005989970A005578126A005099810A004778943A004714714
1555A004808636A004943694A005112867A005350060A005676052A006149877A006763533
1548A007249923A007254767A006798701A006331264A006219020A006384473A006556945
1541A006663363A006768938A006831343A006807686A006847909A007051338A007218896
1534A007181341A007107776A007143716A007113742A006975877A007149262A007883655
1527A008620014A008558311A007732242A007007395A006996304A007380769A007400213
1520A006728856A005762042A005115815A004968052A004997464A004922635A004814112
1513A004830114A004977107A005228129A005580655A005915351A006033770A005911841
1506A005752355A005722381A005743230A005658573A005575531A005821288A006474886
1499A007130519A007286987A006859281A006200488A005707359A005502316A005443211
1492A005336512A005080717A004664804A004165498A003775347A003697008A003931884
1485A004259069A004481451A004584710A004611525A004524482A004305469A004038442
1478A003759553A003387159A002965422A002765222A002919162A003170606A003227324
1471A003134805A003094021A003182258A003381545A003569950A003448723A002840613
1464A002030267A001495160A001439214A001805007A002467800A003196578A003688514
1457A003822308A003714557A003512532A003321808A003307488A003613755A004089967
1450A004288973A003918477A003206827A002672844A002595066A002833734A003120766
1443A003353678A003538364A003633971A003684162A003926550A004427611A004800774
1436A004678282A004229938A003838102A003550578A003180784A002675090A002150022
1429A001736074A001467784A001249614A000954719A000565340A000154271I99759908
1422I99343293I98849532I98314706I97882578I97686169I97761840I98094150
1415I98614796I99160431I99550512I99634888I99246843I98432706I97745906
1408I97736289I98131564I98237350I98088604I98349032I99111994I99626254
1401I99284819I98347769I97558622I97268782I97061913I96347034I95088765
1394I93860751I93360252I93610712I93686873I92804297I91220177I89669751
1387I88471781I87447407I86458201I85683655I85342360I85387075I85595839
1380I85813448I86010559I86233432I86596698I87236677I88161444I89190381
1373I90163231I91116708I92077833I92830972I93141660I93082485I92897588
1366I92723361I92620102I92639827I92729187I92740489I92595393I92368238
1359I92210577I92214086I92332227I92456264I92533901I92545483I92445383
1352I92237602I92019011I91827656I91522513I90953852I90278424I89902171
1345I89996445I90315838I90671663I91200662I91884445I92271084I92034875
1338I91417990I90870950I90593815I90514283I90364484I89819129I88889728
1331I88074821I87820290I88025052I88314050I88457461I88278391I87652310
1324I86902964I86676722I87112290I87586606I87535222I87160093I87123028
1317I87719909I88524429I88938306I88975370I89164198I89720363I90269438
1310I90430258I90304466I90355288I90909207I91644935I91718641I90773799
1303I89561158I89012854I89060448I89041424I88887484I89123343I89914596
1296I90868002I91620226I92036630I92044001I91782028I91634476I91734505
1289I91833342I91857279I91993459I92180390I92127113I91783853I91260891
1282I90610171I90104828I90160845I90612698I90672014I89860966I88534888
1275I87658906I88389301I91064552I94110159I95151942I93748367I91738296
1268I90700724I90445631I90274773I90391720I91386191I93285282I95709792
1261I98023251I98960581I97654019I95256956I94036031I94791203I96145922
1254I96395329I95127233I93067884I91384577I91074239I92070535I93069428
1247I92842484I91513176I90249783I89973210I90517793I90962206I90638180
1240I89605943I88229323I86749234I85361103I84299103I83709454I83617988
1233I83862061I83916533I83253810I82183667I81771615I82476105I83388657
1226I83325480I82228101I81021146I80464770I80605514I81088043I81606303
1219I82086866I82603581I83139530I83429932I83109626I82067633I80640612
1212I79362688I78454910I77687735I76855557I76124463I75718728I75508420
1205I75107670I74209789I72844681I71544856I71044638I71394636I71803249
1198I71889380I72378648I73778854I75183903I75447069I74871319I74616857
1191I75114057I76052933I77365814I79251497I81307266I82431179I81958828
1184I80507871I79343663I79077340I79454716I80182090I81222259I82517170
1177I83856305I84837859I85211725I85646591I87355450I90214545I92377503
1170I92604799I91676593I90848979I90138803I88870988I87032266I85285080
1163I83893509I82328763I80154292I77775901I75758600I73983195I72236150
1156I71029896I71012277I71863197I72481837I72182941I71330828I70886485
1149I71383124I72221338I72337022I71752076I71866706I73931882I77415092
1142I80096661I80058825I77383153I73945851I71801073I71751725I73277371
1135I75240551I76503242I76519387I75679348I74841064I74578319I74755705
1128I74461864I72828887I70336217I68580186I68382583I69083985I69613405
1121I69393129I68732933I68655647I69685988I70991850I71424400I71056080
1114I70867041I71264914I71753129I71988778I72415080I73420431I74305115
1107I74035070I72870654I72069153I72391141I73516670I74614681I75107389
1100I74935338I74384577I73788962I73357676I73121606I72871847I72275038
1093I71292922I70339235I69886258I69939678I70081966I70086248I70067084
1086I70039848I69725790I68965002I67994328I67132317I66566956I66458994
1079I66824155I67331113I67518748I67122349I66113979I64740940I63589861
1072I63276154I63870365I64700296I65070933I64955319I64719811I64640489
1065I64789586I65137479I65631169I66220467I66829139I67317635I67618005
1058I67957755I68781439I70138614I71289974I71621441I71316438I70775716
1051I70160375I69564338I69218270I69248946I69457359I69557248I69492878
1044I69416224I69437915I69471749I69403869I69330725I69323144I69024669
1037I68191579I67255863I66776843I66766945I66697311I66243000I65728180
1030I65637066I65885771I65830316I65288050I64721566I64294983I63680274
1023I62808295I62076288I61766793I61714146I61602253I61393980I61331435
1016I61625558I62201940I62782112I63213258I63536580I63861661I64353175
1009I65147306I66051224I66549407I66392659I65863238I65448238I65533737
1002I66059928I66363878I66059226I65528402I65239614I65140427I64831282
995I64266202I63742538I63254744I62475144I61335785I60209488I59621243
988I59682243I59795260I59532234I59026259I58355042I57538168I56927530
981I56965647I57492821I58024137I58561279I59090629I59108389I58465320
974I57914209I58442225I59960642I61162332I61351792I60908362I60369957
967I60049300I60032874I59978612I59308167I58081698I57271843I57862755
960I59013483I59305079I58965258I58565420I58177867I57756689I57326105
953I56760182I55962893I55300380I55495385I56593957I57392790I57346742
946I56902751I56328683I55637463I54965263I54616457I54579534I54338620
939I53778243I53623531I54354766I55047673I55011663I54569356I53705029
932I52335990I50864395I49656106I48566870I47318218I46236985I46011304
925I46067250I45177512I43478200I41561420I39816621I38434315I37295661
918I36068138I34710191I33472209I32266026I30617045I28559170I26620699
911I25205121I24077417I22662400I20847545I18885699I17181262I16639698
904I17997224I18932028I17977920I16626431I16161731I16420966I16033062
897I14783567I13333593I12036084I10970926I10449227I11032488I12167492
890I12416127I11813843I11263153I11447839I12353021I13445135I14631101
883I16195636I17666179I18260320I18313880I19094392I21285780I23560492
876I24695776I25084313I25476850I26185974I27010429I27662482I28162982
869I28671203I29167772I29489692I29574208I29522753I29490675I29572805
862I29721691I29731940I29345509I28320081I26232654I22321808I16203639
855I09149753I03967441I02720684I05297520I10945515I19127876I27066305
848I31486847I33103187I34182245I35969091I37955155I39212441I39721154
841I39601258I38882097I38323545I40056271I44351091I46472423I45996843
834I44967134I44058513I43308255I42744298I42319399I41936549I41615541
827I41396599I41431837I42499944I44761529I45981470I45471284I44614818
820I44614959I45474793I45979364I45656389I45115669I44861137I44809964
813I44852995I45409370I46662515I47737148I48037871I48013021I47981644
806I47640139I46705756I45267855I43525653I41492908I39031335I36559934
799I34877328I34204988I34606511I36050730I38308313I40937234I43043825
792I43907170I43802928I43465494I43448296I43516036I42470392I39333249
785I33359965I22758078I05099918H80256886H52150288H27112040H12314099
778H14391558H34623114H61998337H82133512H93215333I00064035I05917845
771I11264487I15026096I16796446I17306563I17506131I17664634I16023866
764I10704671I01828279H89545050H72735493H47644037H09446089G60374243
757G13566368F85435061F85964620G11541064G49547166G90389197H27642093
750H54211672H69799252H79977294H88378387H95264153I00030622I03203073
743I05730281I07866635I09366238I10470426I11970591I13859152I15066810
736I15342681I15298738I15379253I15605707I15767088I15747363I15723073
729I15901093I16090763I15987996I15726725I15645297I15783093I15977958
722I16257058I16624957I16831404I16833861I17039185I17888069I19235487
715I20431913I21202808I21733141I22153547I22459533I22679949I22931673
708I23382263I24089210I24833080I25385525I25786206I26115847I26339914
701I26562577I27109055I28102683I29135903I29787395I30126724I30405964
694I30753015I31205711I31745591I32239773I32513257I32545758I32470367
687I32353559I32124931I31731830I31217083I30628276I29927155I29023729
680I27870895I26499891I25020153I23597696I22374946I21431648I20879063
673I20907703I21605665I22754147I23911122I24675700I24844592I24402917
666I23382895I21698324I19157218I15644104I11198923I05954488I00219801
659H94727011H90667208H89317122H91444070H96825529I04213549I11834621
652I18157974I22467114I24846488I25730891I25548451I24700409I23672735
645I22996956I23027561I23782522I25022049I26455878I27900729I29303040
638I30662391I31951266I33116173I34133458I35028531I35829962I36523221
631I37087108I37568303I38042339I38474327I38723103I38739669I38660698
624I38644413I38716504I38800108I38798704I38629952I38273776I37813148
617I37359610I36932816I36491001I36070595I35790091I35721647I35843087
610I36102745I36468327I36936677I37529064I38248084I39030352I39764044
603I40359238I40761884I40874128I40500333I39393618I37221323I33378146
596I26918963I16674937I01202689H78643635H47065057H05166992G52740044
589F91160622F24731688E62249787E16339407D98489681E11687428E46898418
582E87993191F21869925F45337531F63843170F84765037G11538256G42384405
575G72814852G98840900H18723583H32949284H43120868H50642963H56095107
568H59642901H61755809H63294582H65059528H67485512H70647855H74306907
561H77968697H81066039H83126792H83855780H83302703H82044294H81000616
554H80877421H81749610H83146587H84433074H85099869H84816627H83365810
547H80586597H76293112H70142161H61633738H50353824H36259320H19855147
540H02303264G85181615G69662898G55973988G44251416G36025042G34190462
533G40991921G56039691G76330072G98005496H18093781H35008211H48161594
526H57631004H64011076H68086322H70489913H71747691H72480961H73333144
519H74725558H76762655H79289300H81981258H84472104H86459571H87633324
512H87429614H84847303H78388752H65857168H44086558H09654923G61702216
505G05784125F54891738F24401134F23185123F48068377F86466595G24316440
498G52465085G68040732G72359418G68369040G59141455G47519195G36435269
491G29027594G27947273G34347631G47556258G65618257G86069668H06485490
484H24807145H39408186H48809225H51180596H43943709H23992306G88993063
477G39249509F78584463F13310961E50095122D94192790D48751181D15007645
470C92841057C81165623C78145532C81601928C89722165D01534132D16454109
463D33072522D48444774D59139145D63815798D65227516D69236532D81001712
456E01641986E28251613E56520575E83212999F07003964F27955734F46583726
449F63250503F77906437F89845634F97480184F98423412F90477471F74153813
442F55227628F43391128F46037598F62814022F86792095G10359800G29357166
435G43040320G52432444G59223866G65012041G70612233G75992288G80840746
428G85004369G88474593G91325827G93761428G96031787G98286070H00593282
421H03008246H05510744H07996886H10429118H12887954H15403015H17846971
414H20074721H22092794H24003678H25815515H27358850H28373117H28679594
407H28333386H27572177H26541064H25137278H23207792H20812905H18232349
400H15877614H14290476H14038752H15382800H18016495H21206777H24184925
393H26413447H27655711H28003814H27800173H27368046H26863545H26477957
386H26617648H27700426H29897078H33153134H37258635H41791699H46185638
379H49999544H53097517H55584221H57649043H59456459H61090980H62579422
372H63928946H65063950H65714459H65419775H63552203H59062518H50140708
365H34665441H11939953G84619062G58720839G40957034G35216591G40877923
358G53784284G68394380G79231145G81260520G70522873G46485975G15200046
351F89240542F81511158F96589112G27757954G62714377G91905297H12133694
344H24649344H31913537H35982887H38255843H39563109H40395146H41184292
337H42327790H44013063H46223193H48899146H51925660H55024054H57892696
330H60437944H62712374H64725534H66468016H67950562H69059032H69626429
323H69853582H70386935H71663947H73314683H74524095H74981494H75192714
316H75771132H76719133H77583390H78057425H78183077H78150295H78150716
309H78343475H78789150H79412635H80095926H80848218H81812717H82964989
302H83908849H84272746H84250213H84391167H84903881H85495425H85862271
295H85992696H85834684H84743623H81267081H73351466H59110532H38553405
288H15373254G96225036G86869625G88673951G98747190H12595305H26297061
281H37317880H44494539H47454715H45941776H39462798H27091824H07622389
274G80427992G46229688G06869781F64654780F22066685E81511370E44766732
267E12796845D86341650D66720521D56348632D58619377D76614198E10943593
260E58077775F10626233F60293624G01710634G33698456G57539084G75037126
253G87880450G97480987H04791653H10422028H14874368H18540019H21695062
246H24614596H27529849H30494309H33425285H36178524H38513113H40107762
239H40637463H39705256H36570290H29730081H16527140G93404550G57630550
232G10204246F57467241F08299296E68131149E36509892E11735407D97033038
225E00300114E26830805E72692539F25912811F74206601G11473606G37801640
218G55558075G66824440G73472732G77631301G80980296G83951776G86168715
211G87443480G88038113G88532927G89674810G91657153G94253995G97322065
204H00451837H02997506H04776069H06190525H07648081H09256488H10857104
197H12096912H12704739H12818600H12838886H12962221H13027363H12738576
190H11961082H10949553H10286689H10414798H11238341H12211331H12702144
183H12365623H11408216H10434382H09783312H09096511H07779769H05805498
176H03749378H02014617H00258025G97755176G94474692G91685863G91094740
169G93204139G96672047G99463052H00576435H00459980H00014725G99604427
162G98982277G97904273G96609853G95513668G94650534G93976720G93927512
155G94804194G95845837G96003568G95295427G94391018G93537923G92657521
148G91827169G91117765G90464729G89862866G89260371G88421244G87214780
141G85724162G83904744G81427868G77714484G71819749G62499646G48575649
134G28946166G02474089F69379202F34258379F07023478E98055480F10409186
127F36809523F64472270F82776235F88090587F84072691F78307609F77585921
120F84819018F98926719G16322696G32781411G45380664G53458431G57936606
113G60092194G60976808G61222144G60755409G59056728G56105606G52410824
106G47509507G39124138G23865990F98918506F64759724F26588591E91548213
99E65221652E51087838E51015571E64937743E89624483F18436694F44565582
92F64482378F77754252F85197446F87651017F85633155F79672717F70540529
85F58934133F45505932F31417324F18124181F06563341E97464848E92873519
78E96175412F08947138F28723400F51012761F72332992F91200072G07330758
71G20421809G30034279G36747502G42102918G47027889G51235808G53996698
64G54821294G53481107G50011654G45030385G40416452G38894386G41711785
57G48092768G56505655G65513454G74031143G80738961G84550759G86686062
50G90031898G95333404H00511785H04109064H06228010H06780946H05798689
43H04606264H04435687H05200476H06700571H09221461H12388296H15392628
36H18727022H23753498H30431764H36370932H38695132H38044763H36826506
29H36564814H38074245H40422522H40584254H36564744H30388031H25950643
22H24415028H24293659H25396583H29519844H35803886H39144458H38912810
15H39255228H41592905H44771042H47686856H49416072H48797292H45913908
8H42720258H39754113H35606143H31034258H28893833H29491133H28673557
1H26066115
##END=


$$ === CHEMSPECTRA PEAK TABLE EDIT ===
##TITLE=R. Baer RB124-2
##JCAMP-DX=5.00
##DATA TYPE=INFRAREDPEAKTABLE
##DATA CLASS=PEAKTABLE
##$CSTHRESHOLD=0.93
##MAXX=3997.453
##MAXY=0.9117289780716209
##MINX=373.96442
##MINY=0.32108858206663093
##$CSSOLVENTNAME=- - -
##$CSSOLVENTVALUE=0
##$CSSOLVENTX=0
##NPOINTS=24
##PEAKTABLE= (XY..XY)
456.1232697419855, 0.6274054051172391
484.45390758404983, 0.5034170747799918
509.9514816419073, 0.46787491433066836
555.28050218921, 0.5078171492725144
692.6840957232212, 0.42203760168106363
746.512307623143, 0.38749191191534893
777.6760092494133, 0.6681418416509325
868.3340503440186, 0.5786805154815572
882.4993692650505, 0.624282538702724
997.2384525254101, 0.5463122727145439
1035.4848136121968, 0.32108858206663093
1066.648515238467, 0.6181100606177219
1083.6468979437059, 0.5291550754302949
1128.9759184910085, 0.6234112384287663
1201.219044988272, 0.42327445732490415
1306.0424050039314, 0.7597250343783115
1443.4459985379199, 0.5820123555902406
1476.0262320562938, 0.6897470951491842
1634.6778039718724, 0.7745339871252397
2879.80933713058, 0.7306254508618393
2916.639166325263, 0.7352865930280469
2970.4673782251757, 0.6653072238913139
2990.2988247146204, 0.6817890997584843
3460.5874128928895, 0.8227680923925367
##END=


$$ === CHEMSPECTRA PEAK TABLE AUTO ===
##TITLE=R. Baer RB124-2
##JCAMP-DX=5.00
##DATA TYPE=INFRAREDPEAKTABLE
##DATA CLASS=PEAKTABLE
##$CSTHRESHOLD=0.93
##MAXX=3997.453
##MAXY=0.9117289780716209
##MINX=373.96442
##MINY=0.32108858206663093
##NPOINTS=117
##PEAKTABLE= (XY..XY)
3525.7478799296323, 0.8343100543975015
3503.083369655981, 0.8292371633735514
3490.3345826270524, 0.8278135060945659
3481.8353912744333, 0.8255697484043294
3476.1692637060205, 0.8252400757336754
3462.003944784988, 0.8226972219600027
3450.6716896481626, 0.8243230583246889
3439.339434511337, 0.8283765313651257
3399.676541532447, 0.8411521911597832
3054.042759859265, 0.8352057335771966
2990.2988247146204, 0.6817890997584843
2970.4673782251757, 0.6653072230422001
2916.6391663252543, 0.7352865930280469
2879.8093371305704, 0.7306254508618393
2381.1901111102425, 0.8471490742133088
2367.02479218921, 0.8471916317959624
2362.7751965129005, 0.847490787317363
2345.776813807662, 0.8434758784774725
2331.6114948866298, 0.8366677758937208
2306.1139208287723, 0.8428474069132055
2297.614729476153, 0.842499673592451
2279.1998148788116, 0.8405395742480164
2256.53530460516, 0.8387718204025961
2246.6195813604377, 0.8378008010554291
2239.5369218999217, 0.8381797664792395
2226.7881348709925, 0.8408811684761415
2216.87241162627, 0.839784442928528
2212.6228159499606, 0.8396779895339295
2201.290560813135, 0.8420104982946792
2187.125241892103, 0.8407116530993298
2178.626050539484, 0.8386347878734384
2165.877263510555, 0.840855955740672
2153.1284764816264, 0.8440496917386071
2143.2127532369036, 0.8415347933379134
2134.7135618842844, 0.8405998944418338
2120.548242963252, 0.8352035878666746
2113.465583502736, 0.8336358071093547
2104.966392150117, 0.8325261470115306
2073.8026905238466, 0.8245273831209116
2061.053903494918, 0.8275606034989894
2046.8885845738857, 0.8313480610797451
2008.642223487099, 0.824499904949877
2001.559564026583, 0.8243930932292632
1995.8934364581703, 0.8251280784752072
1983.1446494292413, 0.8251277804362704
1973.228926184519, 0.8275278803521358
1964.7297348318998, 0.8222669955372937
1957.6470753713836, 0.8224988579425156
1950.5644159108676, 0.824376583060925
1937.8156288819387, 0.8253973129252283
1917.984182392494, 0.8235437867004352
1902.4023315793588, 0.8206336496103372
1891.0700764425333, 0.8179310563068021
1882.5708850899136, 0.8190895319558383
1858.4898429241593, 0.8229765888847606
1851.4071834636434, 0.8231446743539667
1831.5757369741982, 0.8199357392193695
1813.1608223768567, 0.8162797686056743
1794.7459077795152, 0.8197754027625196
1773.4979293979668, 0.8148276210120285
1763.5822061532444, 0.8125403521843634
1752.249951016419, 0.8133781549197
1735.2515683111806, 0.8128327130972965
1719.669717498045, 0.8111587166972364
1701.2548029007035, 0.8097348811043571
1684.2564201954651, 0.8032712342621691
1654.5092504612976, 0.7783313988668384
1647.4265910007816, 0.7779255505007532
1637.5108677560593, 0.7730749846360481
1630.4282082955433, 0.7737661004185483
1596.4314428850662, 0.7892433405240015
1580.849592071931, 0.7665125722754255
1561.0181455824859, 0.7967434521579501
1544.0197628772476, 0.7993528246560342
1535.5205715246284, 0.802085458755992
1525.604848279906, 0.8022511599137039
1502.9403380062545, 0.7932463286555346
1490.1915509773257, 0.8010949488511189
1476.0262320562938, 0.6897470951491842
1443.4459985379199, 0.5820123555902406
1413.6988288037528, 0.7771927712524096
1406.6161693432368, 0.7775530807973596
1399.5335098827209, 0.7774870392748926
1327.290383385457, 0.7819311021067881
1303.2093412197028, 0.7551314230801411
1286.210958514464, 0.7837294342376536
1256.463788780297, 0.7970159055983111
1239.4654060750586, 0.7945341455611094
1201.219044988272, 0.42327445732490415
1157.3065563330724, 0.7479651566619614
1128.9759184910085, 0.6234112384287663
1083.6468979437059, 0.5291550754302949
1066.648515238467, 0.6181100606177219
1035.4848136121968, 0.32108858206663093
997.2384525254101, 0.5463122727145439
936.3275811649723, 0.6912115217772026
920.7457303518372, 0.7017738221549474
882.4993692650505, 0.624282538702724
868.3340503440186, 0.5786805154815572
813.0893065519936, 0.7456495163955651
797.5074557388584, 0.7508290408262351
777.6760092494133, 0.6681418416509325
746.512307623143, 0.38749191191534893
692.6840957232212, 0.42203760168106363
638.8558838232993, 0.6880255933804744
613.3583097654414, 0.6717294450195171
593.5268632759967, 0.6741347907603153
555.28050218921, 0.5078171492725144
543.9482470523844, 0.5753475426550914
509.9514816419073, 0.46787491433066836
484.45390758404983, 0.5034170747799918
456.1232697419855, 0.6274054051172391
432.0422275762312, 0.6830574269554668
413.6273129788897, 0.7103387114305368
402.29505784206367, 0.699919104623521
395.2123983815477, 0.7123324271895217
378.2140156763094, 0.7038251757573187
##END=

##END=

