##TITLE=CZ- 186
##JCAMP-DX=4.24
##DATA TYPE=INFRARED SPECTRUM
##DATE=12/12/2019
##SAMPLING PROCEDURE=Diamant-ATR
##ORIGIN=Fabienne
##XUNITS=1/CM
##YUNITS=TRANSMITTANCE
##RESOLUTION=4
##FIRSTX=3997.453
##LASTX=373.96442
##DELTAX=-1.4165319
##MAXY=0.92582673
##MINY=0.43042257
##XFACTOR=1
##YFACTOR=8.6224333e-010
##NPOINTS=2559
##FIRSTY=0.90945488
##XYDATA=(X++(Y..Y))
3997+1054754322+1054871562+1054979332+1054998134+1054859603+1054610053
3989+1054417395+1054362992+1054303266+1054106183+1053876957+1053752389
3980+1053644412+1053414495+1053182572+1053320274+1054091874+1055239320
3972+1056068088+1056141502+1055744434+1055474007+1055548319+1055692173
3963+1055600027+1055363058+1055360224+1055704962+1056050046+1056082743
3955+1055915593+1055809552+1055792892+1055753282+1055729087+1055915731
3946+1056375083+1056823374+1056754523+1055866582+1054530557+1053635357
3938+1053817300+1054898107+1056064425+1056591728+1056389531+1055969927
3929+1055920570+1056324758+1056704268+1056537049+1055858079+1055178557
3921+1054842459+1054895065+1055393543+1056261161+1056979879+1057034697
3912+1056527302+1055995712+1055838585+1056092145+1056606591+1057157121
3904+1057461904+1057366923+1056919945+1056221551+1055526406+1055261371
3895+1055581846+1056162378+1056493775+1056373009+1056128229+1056120832
3887+1056299665+1056467783+1056683391+1057023775+1057183805+1056879506
3878+1056395545+1056132031+1056039193+1055941654+1055777961+1055390778
3870+1054749414+1054420920+1054884696+1055744157+1056297522+1056383240
3861+1056428173+1056788949+1057476075+1058309752+1058894777+1058497087
3853+1056901419+1055639014+1055778168+1056732679+1057670323+1058138661
3844+1058173363+1058223135+1058675228+1059271936+1059270623+1058449597
3836+1057589928+1057374112+1057600574+1057672674+1057258324+1056472484
3827+1055613783+1054980991+1054856423+1055360431+1056177171+1056544169
3819+1056162171+1055603760+1055474422+1055831603+1056234754+1056349437
3810+1056233856+1056126777+1056231091+1056693207+1057605966+1058815281
3802+1059717117+1059582871+1058550246+1057396026+1056609771+1056421468
3793+1056852892+1057568360+1058032205+1057945520+1057519902+1057211041
3785+1057266965+1057628432+1058110872+1058498608+1058587229+1058350537
3776+1057969161+1057592140+1057251757+1056973519+1056875082+1057147651
3768+1057803601+1058468745+1058628084+1058095319+1057134171+1056183116
3759+1055685468+1055828631+1056214224+1056314458+1056149382+1056144820
3751+1056450916+1056744776+1056968680+1057304847+1057538290+1057396233
3742+1057310861+1057723759+1058372796+1058844867+1059013192+1058951116
3734+1058582183+1057869203+1057265928+1057238139+1057678480+1058209033
3725+1058791777+1059607688+1060408114+1060715869+1060514087+1060092202
3717+1059601743+1059182347+1059035935+1059130778+1059167830+1058986025
3708+1058678201+1058416001+1058438605+1058807400+1059113358+1058797653
3700+1057916140+1057113295+1056877916+1057221133+1057753138+1057968124
3691+1057627119+1056937573+1056453819+1056625601+1057355655+1058147925
3683+1058508078+1058277400+1057814938+1057699772+1058090549+1058424642
3674+1058124006+1057644331+1057744704+1058517825+1059447935+1060048513
3666+1060295920+1060219880+1059696102+1058771246+1057956649+1057836160
3657+1058301802+1058519139+1058096909+1057659194+1057757493+1058154906
3649+1058167349+1057692790+1057398860+1057606311+1058007112+1058104305
3640+1057697006+1057101336+1056833260+1057091105+1057589721+1057862705
3632+1057716362+1057261919+1056646754+1056070646+1055789505+1055816603
3623+1056071545+1056643021+1057537599+1058248367+1058273183+1058041883
3615+1058178617+1058549693+1058800418+1059113842+1059679788+1060005793
3606+1059681723+1059145779+1058835673+1058517272+1057945520+1057531032
3598+1057740626+1058309475+1058628014+1058516166+1058241316+1058040293
3589+1057994531+1058158432+1058509323+1058877841+1059141424+1059335119
3581+1059533445+1059735090+1059859035+1059813411+1059571742+1059234262
3572+1058979182+1058894362+1058908395+1058871481+1058665620+1058366920
3564+1058256869+1058468745+1058751130+1058703363+1058227628+1057552530
3555+1056831877+1056057235+1055367897+1055127057+1055515484+1056215399
3547+1056593249+1056251069+1055516866+1055109291+1055276096+1055602100
3538+1055622078+1055289852+1054750105+1054077219+1053509406+1053429841
3530+1053774787+1053923480+1053465441+1052660591+1051988534+1051704766
3521+1051791107+1051990539+1052025794+1051929984+1051974847+1052233245
3513+1052417193+1052227439+1051746519+1051382011+1051373093+1051530773
3504+1051560290+1051405929+1051171241+1050924733+1050725024+1050652855
3496+1050736430+1050939250+1051177048+1051254816+1050919756+1050101702
3488+1049050827+1048145327+1047616226+1047524148+1047852296+1048416652
3479+1048783926+1048584286+1047901100+1047120030+1046448042+1045835228
3471+1045266102+1044804953+1044505700+1044517867+1044967679+1045516135
3462+1045538671+1044996505+1044552430+1044567915+1044637319+1044331845
3454+1043810624+1043441138+1043271430+1043113889+1042844983+1042442524
3445+1041883421+1041187101+1040530460+1040173831+1040218418+1040493891
3437+1040690006+1040561913+1040097653+1039557560+1039282779+1039421449
3428+1039855500+1040285749+1040366005+1039942946+1039180056+1038288450
3420+1037258106+1036056810+1034903143+1034113224+1033816529+1033899966
3411+1034081909+1034050318+1033701087+1033193691+1032653323+1031983063
3403+1031161760+1030535328+1030454172+1030682708+1030594501+1030008024
3394+1029390302+1029144346+1029156305+1029120221+1028926802+1028649463
3386+1028382839+1028136745+1027836318+1027476993+1027171104+1026920379
3377+1026512666+1025846485+1025209822+1024985019+1025134749+1025197655
3369+1024810265+1024062169+1023324372+1022868407+1022682040+1022573717
3360+1022419563+1022230845+1021944796+1021387629+1020604692+1019927866
3352+1019512548+1019114236+1018484624+1017706111+1017006265+1016430019
3343+1015799784+1014949448+1013953875+1013057569+1012386757+1011843969
3335+1011307817+1010805744+1010407501+1009994880+1009281139+1008153533
3326+1006905438+1005968830+1005461366+1005101282+1004568931+1003882427
3318+1003325468+1002967872+1002485915+1001622790+1000516130+999349397+998069849
3308+996725321+995670644+995145553+994922824+994562878+993833307+992796189
3298+991641692+990550377+989620268+988790255+987862151+986693829+985378541
3288+984164180+983232412+982591601+982102524+981540864+980732350+979711753
3278+978687700+977799413+977034103+976425505+976069499+975781169+975036667
3268+973546695+971711638+970276208+969604981+969436172+969271095+968879350
3258+968380804+967943849+967583073+967210131+966703081+965992866+965203224
3248+964564210+964150206+963830976+963433355+962840795+962096500+961487833
3238+961342873+961692865+962230953+962542165+962349852+961676551+960819994
3228+960139296+959848823+959881105+959893963+959597199+959095680+958697920
3218+958505193+958455767+958559182+958766771+958869771+958775481+958648218
3208+958657204+958856222+959311841+960011618+960648903+960866240+960701025
3199+960487836+960403294+960413317+960514105+960712915+960949607+961272156
3189+961836443+962568226+963116959+963297312+963326139+963555849+964163755
3179+965076168+966002544+966594068+966717667+966588606+966581002+966898781
3169+967433551+967972399+968474540+969048989+969726230+970399047+970911627
3159+971089630+970844919+970432228+970367387+970884944+971729750+972589902
3149+973368208+973934430+974086580+973932218+973936919+974441825+975353892
3139+976323404+977035693+977382713+977541498+977862733+978538523+979385541
3129+980042666+980360445+980542042+980931783+981686378+982613722+983346472
3119+983738286+984054337+984672267+985634105+986621729+987382752+988001028
3109+988612460+989036625+989016509+988728041+988649512+988937773+989307536
3099+989496599+989537661+989626213+989936941+990486642+991059639+991345273
3089+991175289+990630220+989989961+989544435+989334910+989077756+988424571
3080+987340308+986216435+985540576+985461771+985769872+986231712+986730812
3070+987103408+987059651+986341071+984929490+983111992+981271820+979592094
3060+978070392+976752893+975735821+975063281+974864678+975389355+976606688
3050+978009836+979144563+980107438+981179950+982249213+983007886+983497861
3040+984055996+984897000+986033800+987396439+988806846+990039664+990999636
3030+991670380+991998527+992060120+992181300+992655445+993454904+994347684
3020+995171130+995893788+996470310+996719238+996443074+995728780+995033912
3010+994848374+995286158+996103866+997050704+998034594+998983921+999769208
3000+1000305291+1000582354+1000611802+1000471819+1000323541+1000280405
2992+1000366884+1000602954+1000956886+1001243350+1001241968+1000869440
2983+1000178650+999299487+998366268+997386663+996286155+995137949+994106499
2973+993085210+991702316+989805599+987689540+985753627+984197914+983114826
2963+982574596+982460190+982409588+982100174+981500148+980746245+979909388
2953+978954048+977770241+976168144+973952887+971032393+967423804+963248508
2944+958756817+954190952+949580361+944803588+939860495+935017775+930738512
2934+927507013+925600617+924939967+925192904+926081329+927592869+929842482
2924+932778185+936198471+940037945+944355643+948995958+953527674+957618703
2914+961312526+964851089+968276352+971279454+973551672+975226421+976697591
2904+977978453+978629011+978427159+977727313+976988479+976312206+975655841
2894+975177203+975127500+975622798+976680102+978266023+980208710+982233383
2884+984131967+985775609+987053015+987921186+988406875+988490795+988129674
2874+987417592+986585299+985787084+984898728+983558417+981523582+978982874
2864+976337575+973725665+971014005+968178882+965431137+963030826+961197014
2854+960144826+960066367+961060350+963034352+965640248+968408869+971034190
2844+973493190+975876634+978153207+980123338+981613033+982648700+983356772
2834+983786261+983978297+984134386+984503250+985116479+985763650+986234200
2825+986522393+986780998+987129815+987596079+988182695+988826202+989338090
2815+989594138+989725895+989991482+990555493+991410737+992326053+992946541
2805+993174868+993325635+993741575+994473150+995412868+996455586+997455929
2795+998261056+998837163+999283934+999775568+1000500300+1001523524+1002657075
2785+1003559740+1004034922+1004215276+1004406620+1004745828+1005078400
2776+1005196124+1005152505+1005259652+1005716377+1006327533+1006758957
2768+1007003253+1007347024+1007951543+1008717613+1009467438+1010065874
2759+1010504902+1010966949+1011606170+1012287283+1012767926+1013056947
2751+1013343273+1013691883+1014050101+1014475373+1015125654+1016002950
2742+1016842226+1017351695+1017505987+1017527209+1017640647+1017928356
2734+1018356462+1018861230+1019396691+1019903049+1020274263+1020464087
2725+1020600752+1020873805+1021321129+1021853133+1022408157+1022933111
2717+1023287803+1023350087+1023177061+1022931866+1022715083+1022563002
2708+1022522217+1022639872+1022919838+1023307919+1023700356+1024041223
2700+1024398128+1024842963+1025310126+1025693230+1025997805+1026290421
2691+1026576747+1026788761+1026850630+1026781088+1026725855+1026828094
2683+1027097276+1027433719+1027717349+1027913740+1028152645+1028580889
2674+1029109921+1029502495+1029696398+1029825943+1029993023+1030186096
2666+1030333407+1030373777+1030341771+1030330711+1030352832+1030402811
2657+1030562426+1030795523+1030831815+1030565191+1030326494+1030455762
2649+1030861471+1031256396+1031543067+1031752592+1031863749+1031882414
2640+1031911862+1032018387+1032177449+1032379993+1032615372+1032776024
2632+1032764203+1032661756+1032627884+1032678278+1032710491+1032705583
2623+1032792061+1033071474+1033456583+1033787358+1034056332+1034345008
2615+1034597462+1034697696+1034744357+1034982156+1035437429+1035878393
2606+1036173083+1036437564+1036747946+1036979177+1037032889+1036963762
2598+1036837674+1036737715+1036778362+1036838227+1036600636+1036140040
2589+1035969364+1036262603+1036615636+1036696377+1036569736+1036389106
2581+1036291221+1036507659+1037174670+1038046574+1038589362+1038417580
2572+1037676327+1036946964+1036728521+1037080725+1037711029+1038222226
2564+1038366979+1038270063+1038312299+1038673214+1039109891+1039258101
2555+1039062954+1038858959+1038995831+1039426633+1039803792+1039964099
2547+1040056246+1040192081+1040301095+1040393518+1040631386+1041018223
2538+1041289202+1041259823+1041093433+1041073248+1041247449+1041439554
2530+1041533636+1041577601+1041572140+1041364966+1040916882+1040515182
2521+1040502670+1040904093+1041464509+1041911418+1042085273+1042014141
2513+1041943977+1042153364+1042697742+1043392749+1043976046+1044238177
2504+1044098263+1043624049+1042966855+1042300812+1041845332+1041839940
2496+1042353902+1043139190+1043818090+1044227946+1044459385+1044597570
2487+1044627572+1044566947+1044521945+1044608838+1044861706+1045150935
2479+1045256493+1045152802+1045116994+1045390600+1045861496+1046220336
2470+1046313589+1046225452+1046096045+1045972791+1045836334+1045687018
2462+1045558027+1045498301+1045558234+1045718264+1045854168+1045902972
2453+1045998437+1046211211+1046227802+1045653561+1044664762+1043980816
2445+1044072202+1044698635+1045317049+1045637316+1045699323+1045713771
2436+1045883617+1046156808+1046240867+1046101506+1046199875+1046880019
2428+1047781441+1048248742+1048095348+1047606133+1047006177+1046302944
2419+1045559755+1045019040+1044899450+1045213841+1045803567+1046448388
2411+1046919767+1047104821+1047163372+1047423015+1048004169+1048642837
2402+1048953634+1048816900+1048469673+1048241553+1048230285+1048275632
2394+1048237958+1048219086+1048434003+1048899576+1049343858+1049473679
2385+1049253025+1048854920+1048476447+1048320081+1048556013+1049123895
2377+1049747286+1050275073+1050781639+1051239608+1051442497+1051403855
2368+1051512385+1052037753+1052678702+1052925971+1052768361+1052612824
2360+1052586210+1052475537+1052165224+1051590361+1050614835+1049445752
2351+1048703462+1048770723+1049464071+1050230901+1050424250+1049852014
2343+1049204152+1049274662+1050004993+1050832655+1051396596+1051638612
2334+1051696886+1051833689+1052146491+1052348066+1052021785+1051055245
2326+1049751917+1048642077+1048128460+1048147263+1048286140+1048343792
2317+1048548478+1049159910+1050025316+1050604673+1050496074+1049927086
2309+1049529880+1049675117+1050266709+1051021166+1051594093+1051648635
2300+1051234700+1050903787+1051063955+1051469802+1051661493+1051583932
2292+1051432266+1051203938+1050762283+1050178641+1049736571+1049704081
2283+1050266225+1051439179+1052816197+1053760062+1054184850+1054681531
2275+1055496059+1056038087+1055839622+1055318056+1055090627+1055104452
2266+1054853796+1054155402+1053443113+1053295595+1053715959+1054105008
2258+1054066297+1053905990+1054093740+1054628164+1055247961+1055856075
2249+1056369069+1056468751+1055877711+1054781627+1053750454+1053274235
2241+1053465027+1054197570+1055407714+1057029374+1058613982+1059448764
2232+1059404523+1059272213+1059750505+1060457471+1060499293+1059677645
2224+1058501580+1057356969+1056404047+1056001173+1056389738+1057079975
2215+1057301736+1057047209+1057045412+1057715740+1058680620+1059432243
2207+1060034895+1060927330+1062320109+1063931123+1064976191+1064473566
2198+1062165540+1059183246+1057333396+1057777125+1060360624+1063560531
2190+1065300745+1064826876+1063381768+1062272135+1061443919+1060691744
2181+1060597109+1061566137+1063414603+1065905264+1068348157+1069296723
2173+1067913000+1065016354+1062089569+1059948763+1058722719+1058478630
2164+1059184490+1060245596+1061057843+1062141415+1064333929+1066870282
2156+1068377398+1069060722+1069955093+1071316073+1072556841+1072837637
2147+1071676158+1069539845+1067400213+1065575388+1063864346+1062634984
2139+1062552170+1063362689+1064134704+1064632075+1065351346+1066251316
2130+1066474113+1065424759+1063524723+1061795156+1060897674+1060579205
2122+1060094345+1059219745+1058490174+1058330421+1058618267+1059256659
2113+1060280505+1061200591+1061194853+1060146190+1058720507+1057502205
2105+1056714360+1056509259+1056894990+1057555364+1058187949+1058897680
2096+1059937979+1061168723+1062124893+1062549819+1062511661+1062137198
2088+1061585976+1061123998+1060899610+1060833663+1060874240+1061071945
2079+1061339952+1061447721+1061357648+1061460786+1062318934+1063920685
2071+1065286712+1065357222+1064250699+1063057629+1062521132+1062607403
2062+1063187796+1064329297+1065822657+1067052364+1067519803+1067190480
2054+1066264934+1064898492+1063244412+1061764048+1061489474+1063527074
2045+1067615407+1071519239+1072749361+1071114774+1068973622+1068666627
2037+1070254968+1072107098+1073130529+1073575226+1073741823+1073240096
2028+1071691366+1069172571+1066178524+1063800058+1063092815+1063885223
2020+1065238668+1066820027+1068498302+1069458274+1069222342+1068579388
2011+1068365992+1068342627+1067960905+1067384245+1067206933+1067645892
2003+1068367582+1068785319+1068377813+1067111952+1065679010+1064759684
1994+1063989605+1062555972+1060950695+1060735640+1062139479+1063506128
1986+1063309461+1061600562+1059636445+1058836848+1059754307+1061480488
1977+1062506200+1062474263+1062204113+1062090814+1061743587+1060905970
1969+1059846523+1059056051+1059076789+1060259836+1062163052+1063563089
1960+1063508824+1062314786+1061359307+1061931198+1064085001+1066433190
1952+1067421643+1066826179+1065637395+1064830886+1064640924+1064532393
1943+1063786854+1062651990+1062351977+1063313746+1064587834+1065331852
1935+1065672166+1065984138+1066262998+1066319821+1065961603+1065080574
1926+1063849276+1062627588+1061676118+1061052382+1060593099+1060013258
1918+1059182071+1058215393+1057264822+1056458243+1055917460+1055539402
1909+1055045348+1054497030+1054309280+1054575075+1054836307+1054629685
1901+1054000488+1053429979+1053356428+1053786054+1054365066+1054862022
1892+1055460389+1056432735+1057674194+1058794335+1059636721+1060324470
1884+1060859654+1061103951+1061119228+1061235224+1061731144+1062546640
1875+1063344439+1063903403+1064388125+1065077947+1065825836+1066008194
1867+1065344848+1064432988+1063987808+1064094264+1064323490+1064335104
1858+1064248142+1064426836+1065036125+1065761824+1065953791+1065266112
1850+1064126408+1063275104+1062905342+1062599453+1062043116+1061481801
1841+1061292046+1061540974+1062082656+1062584314+1062614039+1062072149
1833+1061324052+1060750295+1060400925+1060140384+1059900443+1059643219
1824+1059332768+1059044784+1058888556+1058860213+1058916345+1059077066
1816+1059384959+1059869404+1060558881+1061399539+1062173490+1062657866
1807+1062856330+1062918752+1062910457+1062781258+1062515118+1062216695
1799+1062022585+1061994381+1062115561+1062276766+1062245313+1061834489
1790+1061219739+1060753406+1060480145+1060141144+1059504066+1058630710
1782+1057777471+1057126152+1056697217+1056387941+1056047419+1055576039
1773+1054955621+1054244093+1053566782+1052993785+1052458324+1051878553
1765+1051214722+1050351252+1049155071+1047753098+1046380435+1045003141
1756+1043587688+1042368419+1041466929+1040671549+1039729688+1038540005
1748+1036984915+1034782931+1031655952+1027516465+1022331218+1016023343
1740+1009173577+1003175115+998591485+994613686+990757760+988128983+987497849
1730+988339268+989991551+991980900+993971424+995759404+997238316+998359217
1720+999019176+999053325+998519661+997764859+997008121+996370836+995990981
1710+995846988+995784082+995805788+996195598+997227463+998971340+1001411675
1700+1004251982+1006962122+1009491010+1011899962+1013893527+1015450000
1691+1016922967+1018469347+1019947982+1021296865+1022683077+1024146297
1683+1025353745+1026153687+1026703941+1027035753+1027020683+1026616081
1674+1026105160+1025817037+1025661362+1025289526+1024584011+1023864810
1666+1023451774+1023434077+1023794922+1024454467+1025340680+1026431925
1657+1027669790+1028955352+1030155058+1031005463+1031497374+1032052744
1649+1032811901+1033673228+1034547966+1035468813+1036502475+1037652617
1640+1038851078+1039982279+1040934993+1041587072+1041825700+1041742263
1632+1041554720+1041434853+1041486146+1041655508+1041776274+1041855632
1623+1042106564+1042593152+1043146932+1043702094+1044322098+1044958416
1615+1045525053+1046164205+1047045718+1048105372+1049064998+1049671038
1606+1049886647+1049798993+1049453632+1048822015+1047800865+1046175127
1598+1043522363+1039048230+1031671782+1020774884+1007128097+993011313+981309910
1588+973970929+970928701+970719315+972202927+975436016+980848899+988246361
1578+997049736+1006375576+1014435624+1020264931+1025095900+1030349997
1570+1035891319+1040149153+1042466234+1043672093+1044554020+1045286079
1561+1045637661+1045147548+1043758917+1042154055+1040165329+1037126419
1553+1032708901+1026855884+1020088034+1013908113+1009751551+1007869558
1544+1007734344+1008891053+1011734609+1017034676+1023323335+1028601281
1536+1033078594+1037650888+1042278069+1046058509+1048772935+1050962062
1527+1052991020+1054770152+1056155051+1057256596+1058287562+1059321017
1519+1060267578+1061035515+1061612037+1062071596+1062538966+1063055763
1510+1063462440+1063516843+1063291695+1063256232+1063443982+1063545669
1502+1063494238+1063355983+1063174109+1062800752+1061875827+1060178058
1493+1057480638+1052926040+1045089688+1033256390+1018499417+1002590851
1485+986699013+971330885+957261038+946512141+941533655+943357167+950905672
1475+961458662+971493680+977869300+979827887+978847730+976391011+973462912
1465+971365034+971339940+973308412+976135792+978339851+977995181+974456066
1455+970396766+968239092+968600974+971609261+976883129+982669093+985890637
1445+983060492+970148737+943899817+905442513+859780128+814396051+783739705
1435+781434099+803135888+835987858+870578797+900400913+922544149+938411377
1425+950447910+959798498+966813754+972121771+976445414+979886922+982372398
1415+984310938+986063801+987643224+988946276+989811820+989934452+988824612
1405+985827800+980438075+972189032+959941522+942938531+923376581+905726004
1395+893325308+887600868+888344264+893983885+903064184+914681805+927311866
1385+938744571+947791690+954569908+959391061+962329183+963438954+962933633
1375+961278032+959318477+958072732+958080060+959193979+960994126+963237655
1366+966047685+969623092+973676101+977366260+980103706+982058214+983735037
1356+985447531+987224451+989036142+990893733+992719664+994348583+995677419
1346+996673476+997290438+997472519+997196148+996515174+995624951+994813257
1336+994285055+994058801+994029421+994145417+994497276+995125436+995789336
1326+996048080+995558520+994277934+992443570+990397951+988398579+986505733
1316+984595950+982574803+980696680+979637303+980122508+982442977+986223970
1306+990561714+994504880+997527476+999559821+1000728074+1001223441+1001349184
1296+1001489236+1001915752+1002653065+1003582345+1004607712+1005642826
1288+1006532219+1007126231+1007385044+1007327599+1006967445+1006343086
1279+1005539688+1004650225+1003733388+1002792634+1001783443+1000671252
1271+999506731+998452953+997696146+997244399+996810970+995970173+994460707
1261+992355709+989970537+987585296+985220654+982704071+979956188+977135167
1251+974464361+971984623+969560048+967126763+964878671+963212493+962521426
1241+963015618+964699700+967519200+971435958+976266582+981552547+986778924
1231+991674666+996183984+1000267409+1003882704+1007045213+1009767727+1011995496
1221+1013614045+1014429956+1014186558+1012733362+1010129886+1006511826
1213+1002031057+996963189+991611414+986029722+980030500+973496923+966554596
1203+959500351+952740935+946763765+941959687+938280173+934961989+930652725
1193+923973082+914144685+901301781+886401231+870831043+855902357+842484244
1183+830853351+820678280+811201743+801634786+791444300+780387648+768582554
1173+756707433+745962200+737558796+732076855+729247263+728295240+728395406
1163+728895957+729521975+730616262+732965488+737163111+743154452+750325176
1153+757846860+765035281+771687480+778195342+785179076+792708433+799660231
1143+804111206+805045947+804020373+804777594+810762714+822795100+838863834
1133+855790578+870987063+882980253+890797042+893225903+888788269+876349345
1123+855834751+828742269+798242773+768551930+743797199+727226185+720958887
1113+725562772+739287396+757900780+775816875+788033554+791857268+787704508
1103+778663887+768970773+762252696+760550018+764378985+773267664+786164695
1094+801676263+818334447+834895990+850528324+864822281+877694979+889219831
1084+899432991+908210097+915218096+919827373+921031987+917717535+909460474
1074+897380322+884023732+871874936+861805976+853409969+847036837+844870176
1064+849309815+860423635+875434790+890615652+903403392+912990880+919657043
1054+923973773+926456484+927562591+927805989+927734788+927630336+927222623
1044+925814359+922529217+916210558+905377464+889041344+868097330+845916558
1034+827232457+815871990+813000645+817355395+827104433+841160869+858585330
1024+877422410+894995564+909375102+920146119+927902214+933514392+937827873
1014+941502617+944880112+948108431+951313662+954474029+957179053+958566371
1004+957340949+952034661+942107412+929523736+918860211+914733720+918473029
994+927351338+937055720+944683583+949642714+952690956+954885959+957156172
984+960037679+963422295+966688703+969170930+970489673+970627306+969906653
975+968727961+967043327+964144538+959157272+951801701+942823780+933946092
965+927291128+924360472+925261478+928899584+933828507+938888771+943390901
955+947146109+950379612+953462971+956668824+960083303+963560619+966780504
945+969489676+971638018+973263203+974454545+975490903+976746533+978286070
935+979672281+980330858+980112969+979407662+978650094+977829829+976529404
925+974210594+970252635+963891393+954359484+941105480+924055758+904173195
915+883966149+866936819+855843253+851333727+852455319+858264026+868367619
905+881944863+897017541+911135155+922524240+930487164+935198335+937536224
895+938870936+940474969+942892008+945899465+949020498+951990281+954876419
885+957983074+961630927+965863183+970284503+974145822+976578070+976814969
875+974324724+968858474+960526271+949940239+938290681+927261887+918815901
866+914729088+915855727+921621851+930289806+939750997+948177282+954314137
856+957604048+958149049+956457432+953095352+948356461+942108726+934037824
846+924117973+912733726+900392341+887593471+875127104+864436412+857532312
836+856266520+861275907+871359245+883951217+896478555+907480872+916597464
826+923789272+928924401+932132258+934186518+936266146+939324205+943591923
816+948508610+953114776+956584004+958545771+959148424+958853042+958007891
806+956676289+954974926+953312204+952117752+951637939+952067220+953410918
796+955163436+956672142+957944432+959681880+962490250+966368574+970848168
786+975308890+979264775+982595541+985484168+988101746+990444612+992405550
776+993874991+994807727+995209772+994982827+993824873+991339259+987072301
766+980300857+970052926+955785030+938123876+918720989+899397114+881542334
756+866097060+853752841+845107629+840678290+840914291+846370103+857557060
747+874040352+893683319+913248241+929859211+941915238+949099304+951717573
737+949583057+941632092+927279653+908223923+888453416+871966944+859744804
727+848312583+831403190+804052586+766576753+725849374+692219859+672785864
717+666512414+665972460+663024590+653479202+639024869+626201735+622321337
707+629947956+644060593+654811356+654022198+640160978+618077467+594725884
697+575205653+561931774+556052591+558994239+572618214+597353209+630114968
687+664938037+695980252+719665444+734955666+743541773+749455968+756325021
677+764327969+770164742+769979964+762862192+751606868+740699462+736104425
667+742774805+757355779+774219894+791204497+806687239+819380828+829461401
657+837040599+841057247+840398947+834813591+825141837+813565485+803231767
647+796878544+795480857+798276991+803944056+811515512+820401771+830022163
637+839653684+848526187+856146654+862658386+868646133+874526801+880303502
628+885703735+890435575+894530060+898220427+901181430+902504460+902099788
618+901689448+903451851+907632953+912407030+916046035+918171288+918575337
608+915621247+906682797+890542861+869660716+850177226+839058843+840064232
598+851593370+868408749+885465729+900215859+912317579+922381008+931200628
588+939324205+946722427+953147958+958871361+964497917+970117353+975148446
578+978900405+980995587+981379106+979852911+975371866+965914822+949019185
568+922336075+884100947+833728359+772374814+703411448+632886148+569718457
558+525009375+509197517+526739599+571776622+629891203+685378873+726874395
548+747655960+744481837+718096528+673710305+620033842+567799308+527318748
538+504588171+499189217+506238761+519893082+535706910+551576903+567712000
528+585638050+605992061+625860107+638727690+638277809+621970515+592700520
518+559462266+534617047+527076007+537666326+560873329+589257422+616979171
509+641275519+661430374+677284952+689211020+698190531+704810932+708640383
499+709149506+706784658+702846055+698690530+695450597+694309926+696229249
489+701408274+709474474+719582076+729903904+737921439+741882024+741663167
479+738392265+733745452+729361669+726732131+727338517+731634163+738038264
469+744480800+750063322+754757211+759071245+763867788+769249011+774225908
459+778329103+782459120+787279029+792298715+797245058+802460651+807848441
449+812353958+814414162+812794714+807235350+798134520+786159856+772826977
439+760799568+753201153+752372869+758392276+769004024+781191324+792326020
429+801009114+807997549+815513288+824727902+834113883+840775069+842279765
419+837448036+829128622+823097878+821352480+821803951+820891400+816110963
409+808556859+801553423+796613026+792869016+790094519+789583598+791520755
399+793076191+791322705+789254966+793256890+804154411+816724193+825008145
390+827148744+825492935+822542301+819797528+820384281+826906176+836460689
380+843816744+847872725+851884949+857423713+859368405
##END=
