##TITLE=S. Graessle SG-V2458 22-32
##JCAMP-DX=4.24
##DATA TYPE=INFRARED SPECTRUM
##DATE=24/6/2016
##SAMPLING PROCEDURE=ATR platinum Diamond 1 Refl
##ORIGIN=Angelika Moesle
##XUNITS=1/CM
##YUNITS=TRANSMITTANCE
##RESOLUTION=4
##FIRSTX=3997.4121
##LASTX=373.82813
##DELTAX=-1.4160156
##MAXY=0.96461809
##MINY=0.25155643
##XFACTOR=1
##YFACTOR=8.983706e-010
##NPOINTS=2560
##FIRSTY=0.81007922
##XYDATA=(X++(Y..Y))
3997+901720533+902381288+903291443+903955183+904236828+904408336+904569826
3988+904448875+903925526+903357923+903135990+903218726+903323223+903327602
3978+903282618+903283149+903523128+904176651+905019530+905468702+905212734
3968+904572480+904103072+904039312+904240875+904440515+904387570+903980992
3958+903440658+903172083+903335298+903676125+903897129+904097299+904630003
3948+905411643+905655802+904952519+904157543+904384120+905464721+906151484
3938+905886492+905080437+904118862+903313536+903291973+904430231+905836201
3928+906052892+904928634+903677187+903552653+904521525+905295933+905123231
3918+904605588+904745183+905666418+906434058+906369104+905767797+905130861
3908+904403493+903360510+902454535+902627437+903966130+905196279+905788033
3898+906665346+907856549+908151397+907122878+905776356+905612013+906695998
3888+906846342+904963267+902702343+902302135+903692845+905024240+906058863
3878+907119096+907078492+905594364+904083366+903650781+904023056+905060599
3869+907219414+909097446+908919303+907828484+908125721+909803118+910450139
3859+908925407+905890805+902276392+899382779+900204559+906874937+912997153
3849+913776736+911520855+908464292+905696141+903967789+903538056+903860638
3839+904503545+905822932+907509087+908093741+907308120+906342698+906142395
3829+906575843+907079620+907331674+906860142+905297791+903804242+904955372
3819+908641042+910343651+909090745+908106413+908760865+909264244+908548819
3809+907268710+906674104+907802608+909617345+909560087+907927939+907773747
3799+909932695+911268137+910922135+910728599+911129272+911076327+910391820
3789+909816122+909741879+910067447+910749897+911536845+911625220+910802577
3779+910260518+911206102+912883500+913574177+912989191+911898040+911097691
3769+911120050+911735954+912139214+912356369+912840838+913077168+912517394
3760+912001012+912751004+914067803+913852572+911702315+909048946+908183642
3750+911032736+915029775+915794364+914432117+914683640+917741132+919813032
3740+918481504+915140509+911858962+910627486+912539223+915670095+916973160
3730+916020609+913813294+911433210+910079655+910458167+911912504+913431464
3720+914846258+915967796+916158612+915192990+913573182+912306144+912789618
3710+915654968+918797783+920012539+919565423+918122100+916149389+914632354
3700+914518103+915207255+915507079+915423747+915468863+915557238+915386393
3690+915437879+916733314+918744306+919479769+918795527+917549653+915976421
3680+914178537+912588784+911729850+912417940+915491288+918639544+918527085
3670+916687733+916429641+918018266+918565168+917481979+916300065+915924936
3660+916040314+915928253+915676332+916216069+917479325+917407802+915007881
3650+912175240+912567288+918313379+924163239+925182071+923193238+920562493
3641+918479116+917431024+917136839+916888036+916350555+915631414+914713497
3631+913697783+913842354+916931759+920907898+921612443+919860802+918005527
3621+917103466+917542488+919330354+921246868+921990623+922033019+922315527
3611+922647663+922382405+921863568+921804651+921829598+921126447+919917463
3601+919178551+919542799+920601506+921455663+921811883+921963753+921913859
3591+921179459+919837713+919168665+920657238+923317706+924218108+923221237
3581+922160805+921963487+922310684+922601485+922639834+922461757+921989230
3571+921080203+919854433+918976788+919565357+921858260+923733506+923604062
3561+922532218+921942123+922077207+922258269+922028574+921689406+921818916
3551+922589011+923498702+923996507+924194621+924582489+925341239+926231821
3541+926982676+927338630+927062160+926252853+925393255+924909582+924836334
3532+924988071+925271574+925772099+926512073+927170041+927332924+926967283
3522+926322651+925576507+924826647+924208023+923846695+923743922+923686532
3512+923415967+923113754+923400110+924379266+925222609+925319676+925049310
3502+925033187+925235149+925251271+925073858+925033917+925304283+925731694
3492+926128385+926542659+927127711+927888784+928664253+929273522+929581308
3482+929484839+929043429+928650586+928791176+929517217+930365934+930807277
3472+930734892+930523244+930616926+931053559+931412168+931295396+930756057
3462+930159659+929882990+930208425+931101396+932033711+932405987+932181998
3452+931852184+931821930+932078097+932406518+932693537+932940217+933096134
3442+933030914+932713375+932292400+931923840+931613466+931321072+931131451
3432+931172786+931420925+931734484+932065160+932473131+932928274+933242828
3423+933281044+933198773+933385674+934075953+935149257+936412049+937812578
3413+939276403+940578606+941495064+942026308+942488817+943291223+944486407
3403+945737588+946834910+947892622+948963139+949928229+950830025+951901006
3393+953228553+954608979+955686728+956204902+956190704+955837801+955189719
3383+954064731+952271490+949700923+946247933+941751762+935827196+927565074
3373+915576412+898480917+875106759+844103898+803997696+754553481+698370948
3363+640666270+587247309+542841855+510640659+492172069+487307702+494516193
3353+511059013+533459389+558447053+583671577+607785244+630088421+650133461
3343+667719065+683028287+696381982+708053105+718561886+728617911+738348104
3333+747079634+754300962+760359153+765879265+770980393+775446973+779380252
3323+783243136+787305394+791371833+795097311+798337060+801141104+803580038
3313+805684648+807510133+809198544+810935920+812813156+814776246+816800641
3304+819032504+821549065+824028139+825963164+827234316+828184080+829147579
3294+830188306+831262140+832397280+833695435+835256591+837085195+839035546
3284+840829715+842167546+842966768+843512675+844202490+845141905+846140302
3274+847050324+847975076+849141996+850578751+851956125+852878488+853323812
3264+853652962+854242792+855237606+856503118+857671763+858406495+858776316
3254+859259591+860255467+861621961+862787952+863356284+863502647+863730219
3244+864374984+865452401+866813321+868275620+869690547+871008739+872233978
3234+873288638+874073927+874685518+875378186+876265385+877213225+878080454
3224+878916100+879842311+880860547+881840366+882634082+883161942+883419437
3214+883492950+883572368+883821038+884211162+884634990+885095242+885562859
3204+885810402+885695289+885452324+885452988+885792554+886231775+886420799
3195+886222221+885902625+885868456+886238808+886868711+887651943+888533038
3185+889338895+889862708+890081987+890205659+890524193+891174863+892037911
3175+892877207+893471681+893616185+893277349+892774966+892496638+892459019
3165+892422395+892279681+892040830+891638433+891067446+890509397+890055381
3155+889568988+889077088+888925351+889221128+889551406+889624388+889734591
3145+890168438+890590275+890441325+889611649+888462312+887517324+887256114
3135+887825243+888781178+889359131+889207659+888805660+889005565+890118942
3125+891511112+892199202+891816377+890819108+889817857+888985992+888253516
3115+887847005+888226446+889320649+890229676+890148069+889378106+888953482
3105+889332791+889927530+889938145+889287674+888568733+888266056+888289476
3095+888189225+887455223+885625093+882544114+878667231+874859017+871815126
3085+869774344+868714044+868555673+869047308+869613982+869705608+869336649
3076+868857819+868155730+866574470+863681652+859731322+855417607+851445116
3066+848183407+845587163+843584596+842357831+841977792+842117122+842456490
3056+843102515+844397088+846518748+849305011+852240092+854593504+855734151
3046+855372026+853554436+850652795+847425851+844742825+842849068+840906811
3036+837483612+831577490+823358428+814387715+807190669+803885370+804776151
3026+808540509+813650461+819226040+824797505+829876804+834000368+836990849
3016+838989965+840262510+841056557+841585480+841997232+842319217+842518790
3006+842658584+842995563+843880307+845425209+847247509+848782658+849939559
2996+851127445+852499378+853632262+854248497+854764814+855712654+856997606
2986+858073298+858558166+858440001+857940139+857418581+857259281+857622467
2976+858267829+858739095+858845318+858904765+859353141+860158534+860829241
2967+860993252+860764021+860508384+860421071+860425184+860412976+860437989
2957+860584286+860733568+860675646+860498631+860598617+861097815+861514212
2947+861326648+860698403+860320554+860682812+861772503+863300685+864907489
2937+866214203+866929960+866932746+866189124+864731270+862803543+860867191
2927+859290244+858140044+857373730+857037083+857130567+857456797+857732471
2917+857730016+857298625+856403796+855157525+853767412+852516828+851731870
2907+851554523+851798151+852231003+852908676+853977999+855236412+856174366
2897+856495422+856436306+856506502+856987654+857751314+858530034+859211954
2887+859795414+860215261+860390551+860317370+859913247+858848701+856689555
2877+853188397+848462398+843087521+838062958+834413447+832605810+832389119
2867+833234850+834796339+836855102+839039129+840899778+842268129+843335395
2858+844351242+845383741+846397332+847416297+848478388+849490519+850318868
2848+851019895+851792777+852679910+853505007+854084818+854346625+854328512
2838+854179164+853999694+853609637+852691123+851192863+849314897+847067508
2828+844134882+840302385+835851994+831400077+827416042+823959669+820742744
2818+817246230+812841951+807068457+800020893+792683257+786972197+785076715
2808+788148472+795428452+804803155+814243542+822712070+829998618+836167609
2798+841310801+845598177+849302689+852671550+855771703+858534148+860989669
2788+863353033+865801920+868297315+870698033+872888231+874731962+876121875
2778+877149266+877991681+878603736+878759122+878430636+877906889+877464815
2768+877076948+876542784+875847860+875270172+875128852+875500531+876126918
2758+876476171+875999929+874522370+872334627+869834587+867181483+864252175
2748+860691437+856070798+850251259+843476981+835909318+827278503+817249282
2739+806019835+794467674+783859637+775393828+769743211+766823523+765972085
2729+766458346+768017446+770981122+775843465+782723038+791259573+800810627
2719+810581558+819770819+827847301+834674857+840322090+844855350+848329902
2709+850837904+852457911+853164711+852829722+851376049+849059990+846718056
2699+845606868+846659670+849775548+853964066+858159882+861823723+864969590
2689+867874682+870723710+873433209+875798033+877698159+879110167+880077712
2679+880753130+881371091+882111927+882990368+883877036+884674466+885408402
2669+886038173+886328377+886133846+885653623+885187532+884829520+884588215
2659+884568178+884799399+885057424+885090664+884958566+884992006+885468248
2649+886434467+887738195+889109598+890323823+891372313+892360957+893264278
2639+893989191+894612460+895291460+895976697+896453868+896672815+896845849
2630+897157417+897471108+897478672+897126366+896689534+896381019+896103620
2620+895657300+895006696+894295783+893730303+893439303+893352985+893275889
2610+893160378+893198926+893550501+894100655+894619360+895060836+895603426
2600+896454532+897666501+899087798+900458404+901539802+902165260+902299348
2590+902138655+901986918+901933575+901845930+901703349+901678402+901858138
2580+902123262+902339820+902523603+902790652+903187476+903630147+904076732
2570+904661718+905474143+906298112+906845214+907198846+907765520+908735255
2560+909762845+910271399+910037789+909464016+909266035+909864158+911041163
2550+912174378+912769382+912750208+912373089+912034385+912100135+912691225
2540+913559714+914253111+914465224+914218146+913693205+912992907+912215646
2530+911670336+911718836+912353914+913184253+913877120+914380897+914739638
2521+914996601+915305582+915822562+916410865+916784932+917043289+917644928
2511+918692821+919686507+920221865+920541660+921112381+921940531+922552388
2501+922586955+922269416+922160340+922449350+922768415+922788452+922643217
2491+922611636+922740947+922951070+923203456+923392347+923320028+922937469
2481+922443445+922060023+921864696+921886590+922184955+922742473+923349553
2471+923652562+923406081+922769344+922245331+922199220+922536398+922887310
2461+922981855+922864022+922841862+923160662+923766149+924502606+925308463
2451+926020239+926348991+926333598+926426286+926884083+927447705+927815602
2441+928041250+928252036+928332317+928141037+927765112+927388590+927162411
2431+927290926+927903513+928752893+929345111+929467323+929369262+929372844
2421+929509321+929678574+929965792+930480251+930990994+931154076+931047455
2411+931064175+931354313+931739327+932011087+932057463+931847739+931446270
2402+930960540+930486819+930095302+929794085+929566712+929445429+929401905
2392+929288052+929116345+929174664+929617335+930177175+930472422+930409259
2382+930208160+930182947+930496638+931059464+931697528+932388803+933222194
2372+934163068+934982128+935393947+935268351+934769683+934177598+933514123
2362+932644241+931895177+932050497+933343809+934912463+935724092+935653432
2352+935293098+935103079+935114955+935199681+935265365+935269346+935242343
2342+935328064+935676587+936306888+937128469+937988665+938655722+938959859
2332+939037552+939183782+939351973+939095076+938188238+937026294+936176316
2322+935713343+935259460+934663129+934207056+934095062+934303990+934879289
2312+935817708+936805423+937558932+938176561+938800294+939318600+939694658
2302+940179725+940956853+941828327+942411787+942568036+942580111+942866334
2293+943504929+944142064+944385095+944178024+943841642+943857964+944497222
2283+945522291+946388988+946843270+947169168+947759728+948573347+949168418
2273+949317766+949416756+950040025+951165610+952179864+952694920+953006355
2263+953565731+954216733+954303913+953610051+952802934+952625653+953033425
2253+953534548+953904236+954102681+954059224+953996857+954515562+955971558
2243+957923634+959386994+959797885+959719395+960116618+960907148+961044488
2233+960076478+958705274+957798702+957660632+958232880+959362181+960732323
2223+961771258+961941572+961408404+961154160+961896854+963109487+963561911
2213+962672655+961069434+959979677+960134465+961141355+961903356+961702920
2203+960905556+960533811+961078789+961979457+962590053+963171589+964202231
2193+965244152+965460445+964857014+964119827+963531922+962918672+962447140
2183+962640809+963566754+964672767+965581861+966536469+967939254+969671919
2174+970847397+970513205+968991724+968025373+969054423+971745676+974449602
2164+975737275+975552696+975198599+975837459+976942477+977307654+977341889
2154+978377640+980375894+981775428+981317100+979472440+977937424+977951689
2144+979318315+980752416+980920740+979445171+977146429+975175577+974041167
2134+973568906+973321828+972975228+972678190+972911734+973733315+974507524
2124+974628608+974150375+973525116+973017027+972578935+972212298+972153116
2114+972450884+972615757+972193854+971526597+971373732+971944984+972833045
2104+973620060+973967322+973537921+972549742+971950292+972265045+972809890
2094+972780963+972427463+972400327+972742083+973110511+973309553+973310217
2084+973199350+973150054+973191057+973217397+973368603+974047271+975350071
2074+976739387+977631695+978196777+979130551+980621910+982066760+982837187
2065+982876929+982640400+982747950+983513998+984703741+985869069+986661324
2055+986712545+985859050+984668113+984148612+984807774+986236634+987660651
2045+988815230+989912087+990643103+990162615+988702903+987897843+988437779
2035+988834670+987577053+985292907+983769303+983858740+985089353+986520469
2025+987668480+988864061+990638525+992804639+994467307+994904272+994394723
2015+994065507+994454966+994740725+994205035+993766943+994732830+996419582
2005+996768769+995100926+992591331+990375789+988571801+987003611+986046615
1995+986374770+988063446+990316143+992022999+992506672+991862371+990868353
1985+990543317+991325156+992695099+993891411+994861478+996307853+998642224
1975+1001022706+1002164745+1002016127+1001679347+1001901346+1002478701
1967+1003027793+1003666454+1004617081+1005440454+1005131275+1003121675
1958+1000088732+997338031+995418332+993791889+991896540+990148350+989449047
1948+989890059+990693527+991502171+992824609+994816494+996559443+997523406
1939+998538788+1000198935+1001803284+1002536357+1002688691+1003039338
1930+1003816798+1004749710+1005424929+1005415706+1004502698+1002863716
1922+1001012289+999481254+998503823+998015439+997878829+998096648+998829788
1912+1000285386+1002446125+1004730867+1006274575+1006767537+1006588067
1903+1006194825+1005820691+1005490546+1005025052+1004217072+1003103761
1895+1001951040+1001030734+1000550510+1000695811+1001458940+1002415406
1886+1003120614+1003629698+1004236180+1005002428+1005729994+1006225809
1878+1006497237+1006795535+1007401553+1008329423+1009486059+1011063604
1869+1013389283+1016165329+1018369658+1019530076+1020082286+1020640799
1861+1021560973+1022772943+1023952070+1024926715+1025841448+1026942286
1852+1028294050+1029769287+1031238817+1032595756+1033717560+1034586381
1844+1035150666+1035013725+1034020436+1032756583+1031998496+1032077981
1835+1032613073+1032959142+1032950583+1032972809+1033421385+1034168060
1827+1034878111+1035508478+1035972247+1036057769+1035823164+1035522212
1818+1035296830+1035071646+1034575632+1033659440+1032641271+1032156735
1810+1032621101+1033857686+1035356808+1036790378+1038204509+1039816289
1801+1041656105+1043476946+1044967243+1045893654+1046228576+1046306335
1793+1046648356+1047354095+1047810300+1047695784+1047484998+1047791656
1784+1048727156+1049822222+1050718178+1051466844+1052170127+1052901476
1776+1053761339+1054812018+1056146200+1057700656+1058928151+1059517649
1767+1059665272+1059458997+1059022762+1058800830+1059118966+1059669717
1759+1060034429+1060291061+1060657698+1061267033+1062210495+1063488812
1750+1064956949+1066226177+1066946777+1067386462+1068034810+1068914511
1742+1069735695+1070339789+1070639547+1070682871+1070882843+1071610542
1733+1072531711+1072794712+1072342222+1071555009+1070684198+1069899241
1725+1069287517+1069042297+1069312530+1069923392+1070835205+1072321323
1716+1073741823+1073723113+1072688357+1071473866+1070216780+1068966594
1708+1067533886+1065295189+1062130081+1058914682+1055999639+1052579425
1699+1047786349+1042001576+1035813544+1028988045+1022057584+1015682451
1691+1009008025+1000622896+990596726+979411798+963361409+935756867+901193402
1681+869154260+837647026+803670470+764659931+717168256+665564762+621131907
1671+585258675+552566309+525898096+511205608+506249649+509335272+522918264
1661+545746316+570346344+591916581+609590294+624764432+645628333+683487014
1651+719391097+738477548+755391185+783077533+818019444+843533641+858578203
1641+870069325+880457419+889541122+898037782+907709058+917174392+923814782
1631+929119795+935131609+942166500+948773252+953190934+954998505+954425396
1621+951636611+947015508+939945651+927203613+905574128+877989159+847090796
1611+809764024+763814531+712940461+664728186+623509668+587725011+553895846
1602+520456440+487998745+457176515+427501069+398197866+369757147+344099241
1592+322780396+305967574+293237014+284397935+280014090+281570271+290433733
1582+305974374+324859162+343421833+360832778+378660219+395782485+408517722
1572+415626824+414099703+399514565+378706131+366377671+367198721+376610777
1562+388366526+402247950+429301774+472093557+501251924+517300721+532977507
1552+550624649+569947596+590279191+608676424+623420829+636512916+649864289
1542+662952860+675831175+686147615+687357461+680156037+664125419+632433341
1532+583212054+529732717+481014940+435795137+397152063+373887312+368110800
1522+375770221+392619401+410507816+425325833+440408080+455186289+464217113
1512+465197597+459297678+448670500+438191377+440957006+463274514+487300968
1502+507338975+525485946+539586846+542979725+530192107+507645899+488942638
1492+479193735+477747824+483940500+494143419+501614247+504860067+506664420
1483+509769848+515878827+524924712+535995390+549260644+565641709+586234182
1473+610276726+626936318+623718398+602792595+572501577+543313652+529572023
1463+536019308+551439695+566376773+575278949+564719346+530713167+504320927
1453+500803381+514292890+536767807+562030481+586161598+606285061+621222471
1443+632405475+641477899+648760599+654883080+661999911+671133772+679178075
1433+684061384+687420226+690672979+693139978+693509733+692137334+690720417
1423+690694873+692413207+696186854+702959541+711704075+719400253+726009260
1413+733409063+742435044+752454578+762054265+770353608+777595902+783658936
1403+786652071+784458556+776255152+763214882+750880483+747317224+755481815
1393+769886986+782538857+790945550+797203712+803379669+809369521+814141499
1383+818271963+823211866+829378203+835851928+841339065+845227626+847727002
1374+849311513+850386741+851452149+852863493+854210746+854456762+852579725
1364+846903829+834040309+810682273+776196965+731605075+679825162+628054141
1354+585872987+558454948+543649835+536422867+533729855+535392125+542084830
1344+553315140+567712680+584702550+604195181+624256940+641754767+655753161
1334+667218872+676969101+685500594+693717135+703067289+714827118+729202565
1324+745183555+761277867+776187610+788516767+795927916+795185819+783156552
1314+757526115+717978625+667692858+612050327+556025999+504735134+464889976
1304+442862506+441080014+456730760+483585044+515211007+547049083+576521373
1294+602620688+625761569+647188561+667829136+687574484+705589290+721175977
1284+734355975+745770465+756093805+765455238+773215574+777972291+777534730
1274+768997399+749163211+715716175+669607050+617267496+569647307+537511928
1265+525801229+530889087+543393634+554828725+562893529+571308118+584933838
1255+605359513+630391364+656104338+678410965+693356005+697912884+691858011
1245+678614652+663458561+650288316+639651684+629411411+616952744+600952380
1235+581808074+561132003+540941430+522704128+506353814+489963228+470903449
1225+448166823+423948658+402792563+389089648+385216314+391224511+405525649
1215+425896123+450214805+476616167+503437344+529439991+554062578+577225784
1205+598914915+619101872+637968779+655961028+673552271+691035435+708516808
1195+726001232+743480879+761034769+778833150+796977666+815300656+833238566
1185+849846142+863818925+872877682+872949138+859967055+834641683+803521122
1175+771666492+735210796+685148023+618494925+542835585+470837731+413088966
1165+375109400+357703929+357721246+367649685+376108494+373112937+357861206
1155+339910989+330755233+335068948+350233565+371293987+394327319+416827316
1146+437415111+455696800+471887747+486357473+499405473+511227138+521952344
1136+531660012+540249724+547114037+550623654+547880782+535987495+515304523
1126+491948909+475514202+472730161+483176243+501062137+520193107+537096991
1116+551052756+562750086+573093197+582632243+591519889+599670016+606933807
1106+613229986+618544686+622849643+626052304+627994959+628550088+627831147
1096+626358431+624959826+624268617+623956519+622265255+616474843+604496200
1086+587074075+568879733+556400398+553198932+556672191+559821109+556907592
1076+548240286+539821252+538087194+544881178+557236874+570897758+583285633
1066+593887367+603069994+611051598+617825214+623530833+628495152+633017464
1056+637289182+641401334+645355512+649103416+652565628+655687477+658537964
1046+661260866+663976403+666832331+670038508+673775464+678071266+682700729
1037+687088820+689722086+687111445+675128489+654296966+632991722+621791733
1027+624286001+635552735+648619809+659695065+667883475+672902796+674373255
1017+672794848+670468771+670749288+675830047+685209461+696391205+706525454
1007+712700880+711844267+702820875+688515358+673518832+660288742+649873379
997+644584222+646265800+652998744+660575430+666451695+670429162+672731088
987+673176612+671856562+669640290+667700554+666640919+666403063+666881229
977+667982266+669278099+670407665+671632639+673300416+675143351+676847685
967+678975317+682542889+687781820+693880748+699890305+705376978+710257103
957+714532403+718324892+721793473+724670168+725950675+724625915+721228922
947+718228423+718108998+721179958+725745396+730069064+733634910+736823571
937+740042088+743287012+746265351+748723460+750622989+752072284+753133114
927+753715313+753683732+752992656+751529163+748729763+743259212+733120651
918+716946258+696408787+677147112+665640465+664413567+670988803+681418099
908+693526120+706596512+719685680+731531960+741557200+750030439+757304182
898+763420028+768477367+772885229+777004215+780864246+784459883+787991958
888+791546194+794801733+797426440+799700501+802376561+805744095+809007397
878+810544403+808377029+800711040+787296769+770800193+755944456+746513358
868+743197974+744155235+746959545+749854419+751972232+753182941+753512157
858+752225546+748198585+742060910+737010870+736049030+738859975+742414277
848+743891305+741972270+736162883+726106857+710621748+685327294+641982671
838+574903223+491619129+414615655+367249742+356321712+369660213+389644976
828+406724416+421520937+438182254+457314319+474612274+485370256+487843425
818+480530438+460468811+429977589+402569636+394905504+412116543+445165329
809+481589443+514444992+542206810+565378708+584825293+601272374+614565163
799+622800082+623076950+615149618+604646477+600508980+607991850+625018941
789+645488605+664661972+680976159+694529759+705669770+714796068+722310785
779+728417674+733246246+737084449+740244050+742807386+744733387+746229059
769+747839844+749979551+752389093+754262945+754989517+754590171+753300243
759+750855205+746296734+738077937+723412684+697033249+651951383+584561297
749+501308717+419546037+359277294+332297513+337657695+365338138+403203387
739+441737684+475306202+501741402+521584912+537068030+550759766+564520238
729+579402911+595858286+613210678+629316468+642222848+652651349+663801179
719+678138343+695123503+712416249+728051303+740787901+749277329+751452333
709+744381215+724182249+686225175+627893845+554034546+477618944+411175338
700+359531106+323670646+307668093+316219059+346816437+389651877+434843814
690+476720565+513032685+543442665+568778951+590366438+609357945+626298984
680+641221333+654117164+665171056+674667639+682731979+689099349+693375379
670+695235166+693926395+688717851+680154843+668237571+651610290+629384010
660+602617902+574121119+547453703+525852947+511291992+504440352+504615078
650+509625542+516800925+524457029+532186446+539995381+547681905+555165671
640+562871436+571516183+581838329+594407465+609099986+623628099+631039446
630+620622889+587464398+542682356+508066675+496834242+504100023+518064082
620+532492043+546136307+558119760+567601017+574644004+579655363+583117044
610+585775389+588211338+590439552+592297946+593858771+595111080+595682664
600+595433264+594953770+594908853+595360215+596114055+597006164+597631091
590+597481743+596483146+595047055+593797267+593309480+593569629+592834631
581+586446362+568657668+539117139+507671973+488797502+488163253+498637733
571+510288520+518310696+522392593+523659498+523492004+523145173+522995327
561+522476887+521096163+519087957+516920284+514653290+512054524+509218003
551+506992840+506545559+508246277+511391978+515263554+519732323+524661910
541+529601116+534226632+538550731+542701032+546822904+551187906+556149638
531+561792891+567589009+572418974+574671472+572061295+561410265+538917632
521+502199499+454889650+409751819+381997365+375708551+382072172+390181794
511+393799524+391416156+384417921+375276231+366286045+358863551+353562982
501+350496899+349412780+349703581+350680183+351841597+353207194+355493794
491+359455868+364678412+369669469+373537561+376868139+380696357+385152156
481+389792799+394658426+400002750+405478343+410408825+414792670+419437161
472+424850785+430452704+435470333+439785143+443761714+447840029+452016703
462+455692521+458621796+461925703+467130432+473913834+480681843+486593239
452+491386813+495348754+499554091+504753612+510461985+515632181+519422481
442+521017508+520133925+517644965+514972985+513506738+514131102+516661131
432+520183287+523846101+527140520+529770933+531161676+530237721+526695228
422+522021677+517653391+513166110+508355153+505746071+507215934+512838387
412+521554392+531315171+540337403+547953631+553867582+557288493+557201644
402+553723708+549153194+547960498+554427986+565949230+575006858+579383206
392+580692773+580688394+580998966+583573183+590293190+600764882+610356409
382+615433121+617833971+619981905+623147942+629494213+638221696+640162759
##END=
