##TITLE=R. Baer GH018-2
##JCAMP-DX=4.24
##DATA TYPE=INFRARED SPECTRUM
##DATE=23/1/2018
##SAMPLING PROCEDURE=Diamant-ATR
##ORIGIN=Angelika Moesle
##XUNITS=1/CM
##YUNITS=TRANSMITTANCE
##RESOLUTION=4
##FIRSTX=3997.453
##LASTX=373.96442
##DELTAX=-1.4165319
##MAXY=0.83132988
##MINY=0.27784064
##XFACTOR=1
##YFACTOR=7.7423629e-010
##NPOINTS=2559
##FIRSTY=0.77673846
##XYDATA=(X++(Y..Y))
3997+1003231801+1003075676+1003044343+1003072827+1003017629+1002908618
3989+1002792063+1002551330+1002158244+1001837602+1001773858+1001923748
3980+1002219525+1002637554+1003058123+1003335115+1003441817+1003423032
3972+1003411254+1003691633+1004354321+1004914926+1004761341+1003985716
3963+1003332652+1003320180+1003763229+1004194423+1004388040+1004367408
3955+1004268790+1004263478+1004406979+1004578194+1004650713+1004626925
3946+1004650559+1005013159+1005841596+1006573262+1006346926+1005164974
3938+1003850992+1002965048+1002515840+1002564495+1003382461+1004730316
3929+1005681082+1005650596+1004983751+1004380419+1004096652+1003893103
3921+1003630969+1003435427+1003396857+1003454288+1003502712+1003521727
3912+1003628352+1003843602+1003790482+1003055044+1001897881+1001171835
3904+1001411258+1002269411+1003201931+1004009582+1004365330+1003844911
3895+1002547712+1001233115+1000946422+1001906349+1002697063+1002161247
3887+1001010551+1000542635+1000687213+1000650800+1000908930+1002116980
3878+1003350589+1003762152+1003942528+1004320832+1004321371+1003860923
3870+1003837905+1004202660+1003976324+1003339042+1003318795+1004042993
3861+1004600673+1004461561+1003701718+1002559337+1001709344+1002540860
3853+1005306780+1007181598+1006988366+1006110967+1005370986+1004706066
3844+1003967702+1003297316+1002947265+1003182685+1004263786+1005924586
3836+1007269361+1007813107+1007754983+1007295074+1006430917+1005388923
3827+1004674887+1004351011+1003882171+1003326031+1003781013+1005360747
3819+1006202810+1005830433+1005702561+1006369328+1006821693+1006526147
3810+1005884399+1005517104+1005850218+1006376642+1006028208+1005138722
3802+1005283300+1006663181+1007422022+1006950027+1006324908+1006191955
3793+1006259702+1006248693+1006211124+1006220439+1006333607+1006575495
3785+1006658484+1006146611+1005202620+1004633007+1004937175+1005597168
3776+1005754911+1005157044+1004067705+1003015088+1002554102+1002708072
3768+1003046267+1003584239+1004453016+1005023552+1004727776+1004104658
3759+1004024594+1004267790+1003856997+1002558567+1001048966+1000684134
3751+1002882597+1006366095+1007942288+1007468444+1007258121+1008374174
3742+1008707750+1006945639+1004393121+1002783363+1003277608+1005695940
3734+1008114503+1008899135+1008295341+1007163276+1006092952+1005611641
3725+1006031826+1006978280+1007790781+1008256772+1008483801+1008565944
3717+1008489344+1008092024+1007309778+1006582577+1006635466+1007417711
3708+1008082939+1008083247+1007361127+1006301274+1005728967+1006146072
3700+1006842710+1006767033+1005788322+1004452169+1003279763+1002548636
3691+1002520382+1003481233+1005046417+1006043143+1005996413+1005308397
3683+1004366100+1003296546+1002088804+1000940109+1000848805+1003121020
3674+1006432148+1007688391+1007130172+1007107153+1008222744+1008781656
3666+1008137368+1007118701+1006328141+1005779315+1005384689+1005269212
3657+1005648286+1006305354+1006413287+1005623959+1004721463+1005033406
3649+1007008074+1008929159+1009243182+1008349924+1007174438+1006302890
3640+1005879164+1005692476+1005499705+1005226639+1004785437+1003923435
3632+1002664575+1001921053+1002976442+1005137875+1006093568+1005614490
3623+1004693979+1003909270+1003698408+1004390889+1005266055+1005273600
3615+1004763189+1004752565+1005411788+1006203964+1006913844+1007516329
3606+1007662601+1007186833+1006503129+1006182255+1006467176+1007091987
3598+1007601475+1007816571+1007769379+1007295382+1006128596+1004565029
3589+1003649599+1004325375+1005940753+1006757256+1006450471+1005862767
3581+1005456362+1005138953+1004816308+1004575191+1004453247+1004279568
3572+1003799720+1003025173+1002462412+1002856807+1004302818+1005696941
3564+1006111044+1005797021+1005341424+1004941640+1004467104+1003824817
3555+1003146271+1002730167+1002752877+1002850494+1002378268+1001326267
3547+1000452871+1000303520+1000514613+1000484435+1000121142+999585172+998984380
3537+998492215+998353488+998610541+999043505+999451834+999806658+1000103128
3527+1000254865+1000243010+1000263180+1000588057+1001267065+1001965089
3519+1002178030+1001696180+1000842107+1000161328+999939072+1000087269
3510+1000331696+1000413531+1000244318+999938611+999667392+999457454+999145202
3500+998615391+998036771+997781565+998124842+998972063+999846690+1000267799
3490+1000210060+1000104436+1000287276+1000573045+1000503527+999884721+999012326
3480+998445177+998510768+999049587+999639139+999948157+999852695+999323731
3471+998354334+997108100+996074960+995843158+996580752+997804045+998767744
3461+999105324+999023720+998858433+998688912+998528706+998546566+998804466
3451+999090081+999284699+999525816+999786411+999758004+999405797+999143663
3441+999245514+999462304+999408029+999034498+998547182+998127921+997926682
3431+998085734+998531015+998894924+998832335+998350408+997821675+997744767
3421+998339091+999209716+999647145+999409569+998931723+998714240+998818709
3411+999040349+999243127+999324577+999117950+998562348+997852623+997287244
3401+997050823+997176232+997580019+998094048+998558114+998905933+999134886
3391+999284545+999451218+999677477+999820361+999704268+999404565+999186774
3381+999164218+999204558+999134578+998913554+998681598+998673900+998954818
3371+999274999+999365149+999262681+999199477+999341591+999742299+1000325461
3361+1000836180+1001014169+1000885912+1000750803+1000794839+1000809466
3353+1000485974+1000005895+1000003740+1000756731+1001721893+1002127450
3344+1001787715+1001125644+1000572737+1000178419+999780791+999396943+999301790
3335+999715585+1000525545+1001356753+1001880867+1002056008+1002070481
3326+1002059165+1001984874+1001838910+1001776706+1001897727+1001985875
3318+1001708036+1001124720+1000733481+1000858351+1001260059+1001526890
3309+1001557838+1001499329+1001485010+1001558608+1001659535+1001651067
3301+1001446671+1001073756+1000644872+1000333313+1000276267+1000450715
3292+1000730017+1001058128+1001430735+1001749685+1001877865+1001884947
3284+1002047617+1002441703+1002735863+1002615844+1002198970+1001748684
3275+1001292855+1000837026+1000645026+1000936260+1001541902+1002140615
3267+1002639324+1003049732+1003188151+1002878286+1002376805+1002179261
3258+1002389816+1002623850+1002554410+1002281421+1002129991+1002242697
3250+1002444090+1002497595+1002406136+1002354094+1002434852+1002595366
3241+1002788906+1003058739+1003472457+1003980019+1004366715+1004424300
3233+1004139071+1003665381+1003200007+1002894376+1002794680+1002885522
3224+1003182839+1003650754+1004038605+1003982868+1003369220+1002568652
3216+1002248933+1002833942+1004148694+1005629194+1006695360+1006889132
3207+1006098803+1004868735+1004118054+1004314289+1005088605+1005739360
3199+1005912422+1005718266+1005448202+1005365520+1005582618+1005915578
3190+1006037523+1005911960+1005772848+1005647362+1005373911+1005063123
3182+1005007077+1005233798+1005581232+1005979630+1006331221+1006421755
3173+1006205966+1005929513+1005849833+1006019662+1006330836+1006633387
3165+1006889671+1007256351+1007857527+1008429603+1008417517+1007552897
3156+1006210431+1005097150+1004668882+1004870275+1005323101+1005624113
3148+1005448664+1004572728+1003113629+1001717582+1001093618+1001281692
3139+1001750377+1002234152+1002994148+1004165015+1005305010+1005886863
3131+1005972008+1006054305+1006359012+1006628383+1006572569+1006252234
3122+1005990177+1006065237+1006464713+1006872811+1007046489+1007178673
3114+1007653055+1008490498+1009323939+1009874305+1010196565+1010454157
3105+1010670562+1010808750+1010972113+1011316544+1011740655+1011919568
3097+1011766676+1011594075+1011635262+1011683917+1011419242+1010806056
3088+1009879232+1008333295+1005732893+1002210594+998650034+995905285+993880269
3078+991588500+988135489+983552798+978795504+975083976+973155500+973034095
3068+974419826+976979503+979932497+981311377+977980001+967288313+949821783
3058+930641335+916662615+911834033+914896654+921647168+928639723+934854498
3048+940889897+947234623+953472570+959041517+964074494+968982139+973612869
3038+977326937+979683912+980783413+981167877+981563734+982527510+984150510
3029+986079063+987821081+989055460+989671341+989491812+988158738+985598753
3019+982479318+979802315+978074462+977144790+976619675+975948904+974208271
3009+970321987+963580019+953786977+941238101+927036277+913162334+901472534
2999+892422783+885186109+878903433+872999832+866320067+857634533+848202167
2989+842688957+845733024+857536839+873802786+889637771+902511986+912079462
2979+918808266+923256849+925839236+926649196+925534145+922390536+917310136
2969+910499343+902216441+892866910+883153779+874141136+867174063+863534670
2959+863810738+867447360+873089596+879480667+885981826+892312926+898087346
2949+902800527+906257311+908824301+911100442+913433321+915814778+917984063
2939+919498899+920035562+919795292+919341695+918945992+918340966+917167483
2929+915485744+913830718+912815824+912644917+913004822+913410380+913536250
2919+913183197+912026496+909505080+905038175+898391052+889871036+880342823
2910+871241647+864375501+861241823+862274655+866785827+873608322+881662347
2900+890016769+897825366+904515138+909957753+914295554+917656954+920130639
2890+921932243+923441228+925032972+926900322+929034733+931282390+933351056
2880+934814311+935210169+934190193+931568081+927142979+920563295+911913636
2870+902745867+895854316+893277626+894831647+898975369+904432225+910419817
2860+916057435+920500321+923570794+925775339+927726141+929721055+931757696
2850+933781556+935923435+938474798+941561746+944940852+948203942+951103662
2840+953646633+955992908+958268587+960379441+962084352+963352990+964513155
2830+965937302+967666541+969397550+970782512+971735895+972465021+973215933
2820+974057457+974911838+975681843+976305807+976757632+977050175+977266042
2810+977559278+978042436+978617900+979000977+978999438+978747697+978600039
2800+978799585+979321466+980004478+980685565+981210372+981504917+981690682
2791+981972756+982390862+982801577+983096507+983322381+983572121+983864202
2781+984163443+984432198+984591249+984493940+984055048+983426311+982964478
2771+982965786+983425002+984068367+984608494+984928675+985084955+985221603
2761+985439625+985662882+985702760+985536857+985425075+985641095+986132491
2751+986553368+986653834+986523344+986383231+986302782+986264443+986313175
2741+986440046+986497554+986426805+986406096+986609952+986945145+987161473
2731+987161396+987106583+987210744+987514296+987908921+988284763+988542124
2721+988561601+988315711+987955266+987668266+987509754+987451784+987513449
2711+987725235+988004999+988194767+988240342+988268211+988425337+988665685
2701+988785397+988702253+988585466+988614952+988739283+988811495+988837669
2691+988913038+988990716+988927357+988773618+988827738+989268247+989847175
2681+990150188+990093527+989923159+989777965+989541544+989129289+988630349
2672+988110083+987495589+986746062+985981215+985360176+984943379+984745912
2662+984788870+984993881+985185266+985363641+985817314+986758995+987968277
2652+988988329+989578959+989827005+989914306+989944484+989950720+989953953
2642+989993601+990101534+990251116+990372752+990440807+990511787+990691393
2632+991073085+991632074+992166043+992469826+992564517+992609477+992652896
2622+992651587+992610708+992526256+992383987+992319936+992494384+992746818
2612+992735270+992436106+992168891+992185982+992495077+992925731+993183477
2602+993046136+992648893+992394303+992521945+992894398+993213656+993337371
2592+993367780+993519363+993959025+994686765+995445607+995825528+995622673
2582+995045516+994487913+994202606+994224316+994458196+994764135+994992704
2572+994983389+994649581+994131703+993750627+993711133+993932696+994182436
2563+994290600+994239636+994117999+994045479+994151642+994541956+995179239
2553+995871720+996467199+996974069+997461769+997965021+998464269+998820402
2543+998765820+998117990+997053210+996117533+995885500+996472280+997350988
2533+997826679+997810050+997882955+998374813+998720168+998196746+997032578
2523+996192131+996262034+997087776+998256717+999358913+999958319+999891573
2513+999606497+999760159+1000393515+1000855657+1000643332+999974640+999413264
2503+999278155+999474083+999617429+999399869+998994234+998838109+998999623
2493+999199939+999329659+999450217+999504877+999451372+999395019+999383394
2483+999378852+999473852+999842071+1000437320+1000854502+1000600143+999653997
2473+998634945+998154096+998218456+998503301+998851504+999260680+999683559
2463+999978720+999914822+999338897+998451798+997703195+997376162+997442369
2453+997759471+998214607+998722631+999246053+999825904+1000442863+1000836488
2444+1000688445+1000074951+999452219+999098164+998898927+998729868+998654730
2434+998712700+998847193+999048586+999313800+999534439+999617737+999634673
2424+999703421+999846536+1000043310+1000239622+1000258637+999981029+999623588
2414+999503953+999628130+999868554+1000294744+1000923404+1001498790+1001891337
2404+1002323223+1002952500+1003611030+1004028058+1004030753+1003625657
2395+1003058200+1002596213+1002199354+1001647063+1000927022+1000249707
2387+999755386+999370538+998904239+998222228+997368694+996533791+995911213
2377+995628293+995791578+996512466+997752465+999016483+999363763+998155559
2367+995766096+993054065+990308546+987340156+984320416+981911860+980879567
2357+981736950+984155591+986851300+988684854+989538311+989840862+989980513
2347+990370673+991352849+992619254+993328517+993303189+993197566+993498962
2337+994184437+994947052+995238055+994592612+993269624+992113385+991569100
2327+991251152+990618642+989654789+988758375+988220403+988046956+988230257
2317+988749753+989308818+989587658+989755178+990287530+991301269+992469980
2308+993524367+994490761+995451535+996290518+996759050+996785994+996647652
2298+996746424+997263995+998077342+998935803+999631132+999995425+999858161
2288+999207252+998390056+997903356+997931686+998270652+998658964+998962902
2278+999128496+999226652+999582862+1000621468+1002316834+1003911349+1004535467
2268+1004051616+1002981138+1001872630+1001105781+1000860661+1000929332
2259+1000923173+1000753575+1000612692+1000684211+1001000004+1001217410
2251+1000764660+999708810+998972063+999174380+999860240+1000244626+1000122528
2241+999854697+999986341+1000918400+1002479657+1003745138+1003733975+1002525309
2231+1001326498+1001100238+1001526890+1001700260+1001284772+1000499832
2223+999579013+998828794+998806776+999903043+1001783019+1003506253+1004308900
2213+1004208896+1003857382+1004002576+1004945104+1006159390+1006756486
2204+1006609599+1006405280+1006368251+1005963771+1005147883+1004863346
2196+1005826276+1007381451+1007977162+1006907762+1005363903+1005042029
2187+1005930360+1006615681+1006674343+1007244572+1008869419+1010148141
2179+1009377752+1006920927+1005144265+1005855222+1008349154+1010447459
2170+1010924921+1010347918+1009892782+1010024734+1010404887+1010541997
2162+1010224664+1009882081+1010629221+1012761015+1014546376+1014072687
2153+1011383367+1008215893+1006615373+1007466520+1009336103+1009574910
2145+1007515944+1005151578+1004139917+1004274102+1005112239+1006783662
2136+1008872883+1010391106+1011038243+1011291447+1011468435+1011447495
2128+1011035548+1010238368+1009307926+1008579955+1008212197+1008059536
2119+1007749594+1007017312+1006141068+1005770308+1006041449+1006280103
2111+1005959845+1005460904+1005424414+1005840749+1006225289+1006311513
2102+1006185257+1006003495+1005870696+1005798484+1005565219+1004757030
2094+1003122637+1000841261+998429318+996496607+995424667+995054138+994906404
2084+994871683+995269542+996025074+996403071+995916294+994961063+994276435
2074+994249413+994901246+996133931+997755775+999391093+1000516076+1000663040
2064+999686022+997980957+996492296+996151098+996926415+997653308+997131195
2054+995248140+993083705+992237177+993772490+997232508+1000993691+1003832131
2044+1005414944+1005697095+1005094686+1004676426+1005237186+1006667954
2036+1008357699+1009672296+1010312966+1010476791+1010151067+1008944941
2027+1007553667+1007758832+1009689387+1010965723+1009813564+1007136485
2019+1004911539+1004441930+1005940445+1008102802+1008896056+1007944058
2010+1007011461+1007620413+1009527718+1011884771+1014356454+1016632518
2002+1018221028+1019046539+1019360099+1018945843+1017318686+1014913826
1993+1013089587+1012522130+1012545072+1012466239+1012253991+1011802936
1985+1010776263+1009079203+1006975817+1005293770+1005441427+1007808719
1976+1010236289+1010005719+1007092449+1003937986+1002714000+1003527963
1968+1004694287+1004528538+1002944416+1001018788+999550529+998668665+998114988
1958+997026496+993958948+988266209+981491984+976489108+974971501+976536685
1948+979920795+984339508+989412055+994370587+997979571+999636829+1000030762
1938+1000226997+1000782829+1001752148+1002936410+1004125290+1005363980
1929+1006813609+1008300114+1009406929+1010002639+1010297184+1010447074
1921+1010315122+1009623411+1008445616+1007421330+1006931474+1006467407
1912+1005471990+1004219674+1003356671+1002942261+1002574657+1002062860
1904+1001411258+1000537170+999290704+997479707+995010718+992448809+991113503
1894+991861336+994038012+996150175+996933267+995813134+993000638+988966312
1884+983976985+978541146+973891939+971309167+971054269+972542006+975300612
1874+979042088+983208135+987257243+991092640+994689460+997594954+999450294
1864+1000555261+1001459220+1002384196+1003225335+1003992953+1004917852
1856+1006055922+1007085367+1007635887+1007740972+1007824808+1008256772
1847+1009118466+1010301496+1011389372+1011726181+1011292832+1010722450
1839+1010356001+1009955063+1009163194+1007963382+1006618452+1005374527
1830+1004278722+1003206781+1002113824+1001058897+999931066+998528783+996982845
1820+995787344+995360385+995605582+995946472+995875646+995221888+993866412
1810+991699975+989056153+986666151+985022982+984212791+984330193+985664190
1800+988280528+991594197+994702008+997072764+998827562+1000500371+1002265331
1790+1003440354+1003549057+1003050963+1002674583+1002769660+1003155201
1782+1003493628+1003658453+1003654450+1003431116+1002927248+1002208593
1773+1001432275+1000673895+999965324+999468463+999161831+998612004+997435287
1764+995600116+993083859+989700518+985294508+979709240+973049492+966211369
1754+960405077+956506090+955036907+955634619+956869306+957559092+957427294
1744+956756600+956055727+955743399+955791284+955769728+955628152+956164738
1734+958111460+960340794+961360847+961267541+960431252+958878078+956440499
1724+952809267+947953971+942376094+936612683+931252289+927526211+926143097
1714+926202144+927024422+928743807+931478625+935206935+940028049+945408537
1704+949953736+953452015+957446617+962604387+966982066+969775470+972151461
1694+974235678+975656130+976972113+978731299+980555614+982050973+983930717
1684+986780320+988833127+988734817+987590973+986592784+986387773+987212668
1674+988538044+989485191+990001222+990590081+991131979+990873386+989602978
1664+987614607+985309751+983282657+982039194+981533094+981381510+981674208
1655+984056665+990229560+995779722+997156524+996694921+996565586+997114875
1645+997388480+997106945+996697462+996376819+996187127+996465121+997758008
1635+999566619+1000647412+1001025871+1001355829+1001941531+1002596290
1626+1003039955+1003492627+1004425224+1005587314+1006247076+1006428607
1618+1006802216+1007579226+1008021967+1007683541+1006831008+1005867925
1609+1005117782+1004633315+1004240845+1003904035+1003752913+1003800028
1601+1003850915+1003639668+1003009545+1002031912+1000921325+999845766+998848425
1591+997795808+996342714+993832847+988853913+979145094+963234586+943119616
1581+924571831+913510152+912168533+915992767+914562077+906346613+901444357
1571+909200681+930341247+952744522+966011053+971879626+974873499+976993514
1561+979502920+984568847+991736389+996184895+998014753+999393325+1000842800
1551+1002109359+1002933715+1003217097+1003120943+1002931945+1002719774
1543+1002357097+1002032759+1002015437+1001586476+1000249707+998604690+997714050
1533+998313301+999908740+1001817816+1004174638+1007061809+1009831502+1011994244
1523+1014083773+1016756156+1019492360+1021460021+1022741977+1023634465
1514+1024092064+1024150342+1024055420+1023938633+1024065274+1025322748
1506+1027405964+1028283825+1027724836+1026246107+1023863111+1020752528
1497+1017940186+1016515962+1016617121+1018239350+1022034022+1028731416
1489+1037462603+1045740347+1052369378+1057681888+1061762174+1063762401
1480+1060362585+1042753325+998494832+922642816+830670662+759002554+737447654
1470+753848787+778794341+800236688+818528190+835319791+850073597+862275964
1460+873079588+884847066+899758384+915123221+926201451+934266024+941859370
1451+949319302+955526070+958639116+956791936+947682753+924974694+879252175
1441+809005058+728631861+667515098+658120531+696960275+747132840+789269008
1431+823354384+851053540+872174244+887457861+898512919+906516135+912185008
1421+916649373+921516062+927060220+931844381+935433425+938400584+940980047
1411+943219543+945265498+947199441+949191430+951372417+953309901+954506634
1401+955125594+955507825+955568489+954814035+952648984+948948080+944429902
1391+940026586+936599364+935295160+936800449+940182096+943935735+947315534
1381+950030798+951975903+953340849+954490467+955764647+957206962+958401694
1371+959024811+959238060+959299032+959344453+959541843+960023770+960689999
1361+961303262+961790500+962356649+963316114+964781910+966549025+968437161
1351+970527845+972909225+975435490+977768061+979557965+980728061+981566120
1341+982406490+983301287+984003776+984202552+983753883+982469925+979621862
1332+974269243+966771974+959619598+955862957+956627573+960552195+965503645
1322+970345622+975010148+979530866+983623624+987050076+989870193+992267355
1312+994274818+995619285+995375859+990904873+977683763+953314828+923617447
1302+901988026+899077836+913583057+934973209+953547477+965951544+973245573
1292+977337638+979702466+981409225+983070948+984763619+986186611+987000190
1282+987066012+986414025+985148159+983484974+981732408+980133736+978809978
1272+977801473+977113149+976825225+977120848+978084855+979595841+981513848
1262+983795839+986337810+988840518+990887551+992125779+992408007+991866186
1252+990934127+990244418+990315629+991268473+992903791+994951517+997148902
1242+999294784+1001395399+1003691556+1006484806+1009879386+1013567203
1234+1016968789+1019742869+1022032252+1024140411+1026176897+1028053178
1225+1029572094+1030357572+1029755703+1027042441+1022072130+1015829332
1217+1010154069+1006724923+1006063929+1007184524+1007949293+1005747135
1208+997898044+980922833+948253674+889711446+798900535+685868418+579184492
1198+508722509+485166498+497875734+529217247+566589463+603843623+638322508
1188+669030857+695832059+718975160+738965877+756410158+771664675+784603481
1179+794859357+802528534+808582025+814350594+820688314+827706659+834987831
1169+841759670+846957241+849561338+849372032+847363722+844921140+843049247
1159+842515818+843844503+846850232+851145460+857017652+864732635+873415397
1149+881675743+888850983+895042586+900511452+905342112+909236633+910846007
1139+906750554+893039203+871179981+850540512+839454044+834646710+825961176
1129+811073031+798826398+797769701+807427172+821845939+836964115+852437886
1119+868648404+884392469+897768012+908076314+915923250+921996218+926479752
1109+929244979+930026917+928551498+924713407+918863772+912309262+907338104
1099+906061153+908883426+913940730+917772277+916933371+910142055+899887411
1089+891810136+891246220+899326806+912525128+926064033+937233799+945780067
1079+952551905+958375904+963612044+968259249+972125055+974081939+970241076
1069+952995032+914690103+856619254+795019409+753540231+746154975+768175788
1060+803878544+839722260+869782702+893214190+910838231+923954103+933993419
1050+942105338+949050470+955306817+961068149+966411530+971567452+976846550
1040+982457300+988397238+994161804+998345019+997479322+984309176+950871090
1030+898941803+845246325+808625213+792147865+784049804+774682028+765478308
1020+762563884+769004763+784137644+805321322+828705310+850712804+869815267
1010+886439195+901515030+914651610+922137101+918283766+902820543+886029403
1000+881104359+891038900+907442034+921404742+930525626+936076020+938630385
990+937927819+934840332+932161251+932948655+937935133+945258724+952687553
980+959113883+964152634+967389702+968273029+966881139+964706618+963376470
970+962344639+959934313+957118430+957614752+963250676+971520106+978630602
960+983043849+985415529+986942759+988703100+991435377+995130584+999100474
950+1002400516+1003977864+1003080911+1000184193+997048590+995195175+994335867
941+992307541+985837407+970425609+939666527+887317210+813929794+732674810
931+665559292+630140803+628776281+650415556+680981020+711271109+737702706
921+759329509+775640647+786665757+794054016+800457173+806874111+811499144
911+812210409+809458962+806078162+805269203+809204757+818393466+831633360
901+846823749+862019526+876038664+888072510+895771634+894581984+882558146
891+866331692+857760558+862699228+876322970+890125471+899564151+904373255
881+905791089+905448197+905015002+905625802+907750667+911390599+916256826
871+922002146+928226852+934305671+939633270+944073615+947888303+951315448
861+954392619+957022198+959065151+960437872+960849358+958838738+951610609
851+937975165+922245650+912728600+914330428+924174742+935811961+945642802
841+953801912+961081468+967283078+971938443+975243259+977952980+980599111
832+983140234+985446554+987672038+989934322+992053259+993850707+995485639
822+997318962+999506108+1001864007+1004162397+1006354239+1008411743+1010177242
812+1011573597+1012856553+1014451376+1016460071+1018490784+1020212709
803+1021880360+1023989212+1026644659+1029550153+1032377353+1035033338
795+1037688477+1040439539+1043029086+1045277512+1047547033+1050201170
786+1052804498+1054441278+1054893873+1055176408+1056595243+1059403813
778+1062810634+1066089429+1069013476+1071448052+1073155967+1073741823
769+1072173945+1065376008+1045931809+1003455135+935050579+857083320+800095343
759+785754177+810149210+850985331+885474187+897387628+874865411+814491169
749+729662692+645226069+577706417+524729864+476212940+430920037+399277166
739+393316789+416156762+459827743+511528923+561610530+606562890+646698254
730+683025051+716067588+746073063+773466126+798975826+823318586+846766549
720+869010850+889532224+908156841+924985318+939728577+951559337+959341836
710+960095289+946237127+908430061+847936260+785757795+750598246+753622759
700+778799114+797372920+786924966+739139478+659431433+563736742+472312645
690+402619551+364566363+358857688+378442039+412880315+452771560+491709460
680+526638593+557153478+583872653+607400564+627988724+645361716+659728211
670+672914369+686618638+698240229+704431678+707120766+709252868+711817164
660+714282381+716330569+719306427+725472317+735842669+749225602+763419419
650+776827141+788695469+798638708+806776879+813902156+820784853+827373083
640+833036875+837520948+841224239+844577555+847750418+850962390+854381990
630+857695813+860405457+862534711+864542867+866665345+868706451+870027284
620+869294771+865304480+859304032+855485418+857325900+864245319+873033166
611+880999352+886804335+889992903+891171545+891814678+892982542+894616858
601+896214453+897560152+898627935+899279845+899473693+899623352+900357482
591+901836596+903671767+905581613+907675376+910114802+912878644+915639098
581+917682051+918538279+918853687+919955113+922494542+926037550+929808356
571+933195777+935639437+936629235+936152851+934974363+933885640+932484204
561+928119073+914101013+880353370+823789273+761682789+725439367+732832552
551+771133093+811125689+831790025+831048966+821848017+820970618+836012272
541+861037197+885130602+902551788+914029494+922239722+928664743+933336506
531+936119824+937886555+940009265+943009142+946295559+949058938+951112438
521+952944606+955199730+957915610+959860253+958058571+946850621+917383118
511+861825755+783805531+705733187+659515424+662613303+705503541+764203743
501+817587278+856039094+881186041+898512457+911585525+921944561+930422389
492+937161740+941976926+944856938+944604735+936755336+913069798+864759118
482+790100986+700255314+616692009+560978906+543367182+560955849+603728145
472+657498030+708690261+751752406+786908953+814540593+835505787+851980826
462+865272377+875065265+881073104+884204241+886469835+889740007+894463350
452+899544519+903356282+905344268+906479567+908057607+910307342+912724905
442+915621468+919564875+923204653+924020387+921700364+919146384+918961697
432+920525033+920355127+912612891+890390685+850617343+801039257+760063562
422+743102670+754457585+790610704+834763420+866339467+883051466+891269932
412+894632717+894528325+892518784+890704938+891093174+894859823+901521881
402+908861716+914275615+917012358+920205853+928284591+940108652+950894417
392+958117003+961995281+963592567+963679483+962893312+962037853+961577406
382+961434444+961579176+961270928+958094600+950030798+942111342+945943275
##END=
