##TITLE=X7649
##JCAMP-DX=5.0
##DATA TYPE=LINK
##BLOCKS=1


$$ === CHEMSPECTRA SPECTRUM ORIG ===
##TITLE=X7649
##JCAMP-DX=5.00
##DATA TYPE=INFRARED SPECTRUM
##DATA CLASS=XYDATA
##ORIGIN=ComPlat
##OWNER=
##XUNITS=1/CM
##YUNITS=TRANSMITTANCE
##XFACTOR=1
##YFACTOR=8.1680451e-010
##FIRSTX=3997.453
##LASTX=373.96442
##MAXX=3997.453
##MAXY=0.8770371636020218
##MINX=373.96442
##MINY=0.3493230927270003
##NPOINTS=2559
##XYDATA= (X++(Y..Y))
2559A072904531A072965683A073130310A073154974A072900956A072352562A071721129
2552A071499583A072024696A072995747A073708985A073738101A073229261A072608115
2545A072148677A071828910A071567521A071514031A071920345A072718377A073437745
2538A073667537A073462699A073160885A072967507A072878699A072848269A072856077
2531A072864396A072745815A072339137A071746085A071407564A071596781A072041991
2524A072306372A072273753A072075048A071941578A072116204A072552437A073003920
2517A073388269A073541658A073016107A071762577A070667034A070628942A071275556
2510A071520307A070945061A070101129A069825072A070227299A070573994A070208326
2503A069237932A068474854A068624302A069565288A070784740A072068261A073261004
2496A073741823A072869212A070932072A069159486A068392612A068367510A068825562
2489A069864915A071169745A072039437A071956758A070964107A069902934A069599659
2482A069662197A069204946A068133340A067095883A066390746A066131619A067014592
2475A069050610A070804880A071076923A069852145A067982213A066470213A066116367
2468A066964386A067933905A068183400A067977762A068013808A068378164A068646778
2461A068610218A068277170A067544083A066309235A065478730A066424459A068410199
2454A070127107A071028761A070968994A070011956A068483099A066867186A065536668
2447A064869478A065413053A067165791A069182618A070363613A070231605A069273105
2440A068473905A068453181A069063235A069495526A068978951A067680032A066849819
2433A067048889A067531457A068160778A069301710A070353834A070401048A069387891
2426A067970829A067120548A067369751A067786718A066991824A065095768A063939876
2419A064700035A066625865A068828699A070664772A071518775A071289348A070431259
2412A069574264A069191521A069340386A069621697A069488740A068666335A067322829
2405A066144608A065905330A066563108A067489864A068233386A068528489A068208648
2398A067495556A066914181A066749919A067105516A067950470A068710556A068542281
2391A067290575A065914889A065328989A065245946A064836422A063711252A062486765
2384A062228441A062603887A062522011A061702671A060867055A060770952A060872968
2377A060142801A058155601A055620009A054242572A054960699A057041158A059614258
2370A062044403A063627114A064047000A063674108A063102000A062661827A062578127
2363A062964446A063622954A064255557A064595538A064320576A063383676A062641541
2356A063181833A064632170A065850819A066279387A065959694A065294765A064809057
2349A064663184A064664862A064789208A065218508A066018803A066964678A067567140
2342A067311956A066281505A065232519A064465718A063670460A062659273A061660638
2335A061133482A061220465A061517246A061823879A062551638A063300195A062899792
2328A061311828A060570933A062102781A064478051A065914597A065955024A065201359
2321A064285914A063274143A062372417A062434298A063530716A064214400A063355873
2314A061214555A059022812A057850209A058091093A059616958A061658011A063257068
2307A064078962A064464989A064585249A064115376A062911176A061365828A059757212
2300A057887863A056146436A056057045A057598161A059113882A059932493A060372518
2293A060800433A061233382A061499149A061326422A060490006A059370747A058932982
2286A059588717A060898435A062476330A063932794A064454043A063603981A061936768
2279A060442720A059579449A059025877A058334020A057525479A057079907A057186082
2272A057283574A056807790A056175334A056663377A058551333A060471106A061058174
2265A060147617A058936701A058692755A059198822A059465393A059440873A059657239
2258A059841641A059252968A058028482A057281166A057401061A057585098A057568752
2251A057810147A058475514A059207725A059665266A059705328A059286390A058733766
2244A058607523A058788204A058510177A057544015A056572453A056265455A056735474
2237A057876552A059248882A060004152A059735539A059000774A058434139A057971563
2230A057370631A056679358A055945469A055107520A054411577A054413548A055306226
2223A056471166A057010509A056715115A056286690A056448836A056965777A056927539
2216A055959553A054753893A054266799A054605466A055002658A054768415A054030804
2209A053499634A053444758A053349529A052741810A051879342A051421072A051659183
2202A052340386A053109081A053820642A054426829A054768780A054658299A054132748
2195A053482630A052954599A052529094A052104245A051795132A051834245A052186559
2188A052502386A052498736A052090891A051228205A050019918A048915546A048311402
2181A048106567A048000903A047953835A048034615A048161808A048235292A048277251
2174A048359565A048526892A048729684A048744351A048333586A047537670A046705851
2167A046291803A046546697A047141865A047304011A046656302A045706049A045230484
2160A045419922A045852360A046075073A045992614A045780773A045552003A045161525
2153A044433473A043532330A042890241A042743420A042914249A043031590A042864333
2146A042492611A042186198A042121836A042321051A042731306A043152287A043209717
2139A042643374A041528639A040138869A038763620A037586493A036508902A035272229
2132A033922375A032850475A032249470A031920508A031646640A031357886A030963905
2125A030459954A030130481A030180248A030259716A029855665A029095724A028648181
2118A028837181A029263781A029331500A028941386A028585497A028671314A028882424
2111A028705465A028494354A029143738A030646400A031905913A032143075A031725013
2104A031457713A031705310A032292305A032785967A032832232A032510859A032290991
2097A032452554A032732478A032695553A032224513A031520397A030898959A030711200
2090A031200775A032270997A033436448A034112251A034082769A033715497A033547951
2083A033653324A033598667A033002551A031981659A031080297A030805116A031210043
2076A031938313A032535378A032594413A031918464A030852840A030154781A030234102
2069A030757538A031060448A030753524A029946808A029022168A028190641A027408735
2062A026804957A026806417A027583725A028679487A029448840A029632219A029324713
2055A028678319A027946544A027623130A028057465A028862868A029166581A028647014
2048A027887219A027513452A027502579A027521260A027410049A027140266A026781679
2041A026638360A027013147A027780970A028512160A028914022A028891473A028383070
2034A027425300A026282106A025376730A025124608A025703795A026818895A027802860
2027A028171668A028108984A028191297A028534343A028548646A027881892A027189962
2020A027324670A028125695A028703057A028576011A027960995A027311462A027043725
2013A027326057A027771630A027745797A027233819A026945430A027301684A027837306
2006A027934287A027668300A027531111A027676692A027844457A027823805A027683479
1999A027559133A027400270A027077292A026704400A026613622A026945941A027472514
1992A027826360A027753022A027256587A026577281A025858206A025003036A024134657
1985A023796792A024277466A025147741A025801068A026029984A025884987A025406795
1978A024703774A023977912A023322614A022713290A022275233A022263193A022638858
1971A023016712A023192066A023313055A023438787A023388582A023042471A022414320
1964A021665179A021287252A021754498A022799690A023602247A023672666A023036560
1957A021881325A020522569A019297645A018207720A017124729A016296996A016061148
1950A016225264A016279775A016099824A016095883A016692437A017808485A018870169
1943A019413088A019558596A019701550A019935136A020038539A019837426A019395647
1936A018950512A018676864A018458091A018031491A017442234A017130129A017360942
1929A017763169A017728580A017156107A016394488A015490205A014110362A012280054
1922A010479811A008829746A006875456A004450785A002213215A001087534A001405695
1915A002549401A003229509A002180450I98764586I93021832I85275898I75858446
1908I65341655I54949284I46381456I41020789I39410567I41377335I46195520I52614441
1900I59192224I64752764I68464387I69848466I68953233I66232217I62200972I57494214
1892I53000249I49472590I47116292I45838610I45758849I47171096I49980409I53456914
1884I56808123I59851242I62766440I65337277I66964282I67423866I67155180I66766378
1876I66517980I66292858I65976739I65810507I66187485I67083593I67989260I68405863
1868I68071793I66905174I65293201I64265669I64788010I66943631I70071033I73353576
1860I76032778I77475016I77374164I75792697I73125316I70190417I68074274I67609874
1852I69067947I72167473I76095900I79756224I82369823I83834391I84496401I84653366
1844I84220855I82892528I80638102I77778875I74531214I70913944I67045647I62891223
1836I57741448I50620892I41280281I30358126I18613638I06381253H93858801H81666844
1828H70761691H61776457H54797396H49764159H46608954H45035219H44616574H45063606
1820H46069465H47054308H47288624H46126165H43136609H38347247H32407759H26196301
1812H20113639H13882916H07050749G99494180G91490068G83756758G77681978G75111721
1804G77432848G84694023G95498108H07758587H19785991H30797611H40493236H48524203
1796H54671080H59245828H62905860H66081205H68717281H70549997H71551113H71992672
1788H72054772H71555199H70204251H67993097H65218373H62203568H59120023H56135720
1780H53624064H52017126H51441078H51687070H52519326H53837218H55578059H57648012
1772H59939509H62265157H64274395H65585719H66035597H65646797H64359189H62045874
1764H58748007H54512364H48986997H41511647H31631984H19376539H05229855G90117665
1756G75442073G63041194G54902446G52606936G56857684G67286250G82366550G99695293
1748H17003313H33103118H47762949H60977768H72633886H82609216H90968926H98048836
1740I04249129I09750634I14578233I18798989I22450044I25485356I27977529I30173942
1732I32266004I34252911I36067311I37721900I39287170I40777935I42184416I43631542
1724I45314664I47215391I49064161I50630890I51916236I53061838I54162344I55164043
1716I55952954I56543743I57099943I57784284I58659959I59681800I60733924I61713440
1708I62543142I63142688I63549877I63998588I64668918I65453304I66113928I66517834
1700I66613939I66382615I65947696I65593193I65507377I65565609I65570426I65679155
1692I66287458I67482536I68953233I70397368I71642287I72474544I72760014I72685873
1684I72624284I72782924I73054241I73155381I72926976I72489065I72045973I71643965
1676I71237871I70880960I70677220I70588995I70454287I70262733I70282144I70727863
1668I71419136I71996352I72366617I72659384I72880054I72954925I73006225I73233170
1660I73561622I73707714I73591103I73454206I73517546I73695308I73730116I73538416
1652I73341535I73459314I74013249I74839743I75630259I76153694I76411289I76582629
1644I76774767I76898456I76871821I76849419I77093002I77622421I78139143I78390314
1636I78510283I78805240I79273215I79653405I79916691I80315999I80894529I81346158
1628I81456494I81331710I81121913I80864318I80689986I80848556I81395122I82093037
1620I82686015I83075910I83272645I83369115I83496964I83692018I83886347I84027696
1612I84119861I84235304I84525955I85000644I85313479I85097480I84494431I84051704
1604I84126282I84605642I85125063I85396669I85367625I85158850I84879728I84569082
1596I84360963I84551131I85307569I86395231I87399558I88141693I88614922I88682422
1588I88249401I87636209I87317974I87328409I87346287I87335923I87604974I88173436
1580I88654984I88946219I89439152I90267322I90949838I91094471I90858987I90438152
1572I89720317I88779111I88154025I88243417I88777433I89216949I89380700I89370119
1564I89172363I88735547I88299606I88312741I88978838I89968571I90697133I91014857
1556I91397746I92155789I92862824I93062843I92976735I92913685I92693965
1549I92377700I92760224I94263175I95947683I96470462I95629521I94270327
1542I93120419I92406086I92174762I92289111I92378649I92249122I92057495
1535I91900163I91697957I91589811I91922057I92722351I93549427I93900135
1528I93614590I92989068I92589832I92831665I93691359I94780335I95592962
1521I95812683I95596316I95357769I95091419I94346292I93159167I92440457
1514I92947911I94289227I95387762I95675566I95504956I95557278I96094286
1507I96773226I97085551I96858678I96230308I95288664I94041484I92732422
1500I91847770I91666141I92020716I92569473I93046497I93216305I92971554
1493I92611578I92706005I93535416I94800694I95851430I96163537I95788383
1486I95370613I95495397I96068891I96557445I96670116I96512786I96262197
1479I95979281I95659000I95321210I95128854I95315810I95786705I96022335
1472I95705121I95153883I94812443I94754648I95020927I95806991I96902462
1465I97615478I97648318I97406486I97234343I97025348I96667562I96248040
1458I95798162I95331281I95060697I95228243I95823702I96654353I97492448
1451I98042445I98085718I97784411I97511421I97284619I96836713I96326194
1444I96312256I96820951I97113572I96661943I95819178I95359229I95729566
1437I96756808I97849722I98572594I98972046I99165645I98931329I98105859
1430I97037534I96246508I95928127I96027443I96473599I97173556I97984067
1423I98631775I98537056I97129480I94642416I92125068I90302714I88844568
1416I87071909I84933436I82892310I81179342I79514902I77448308I74862876
1409I72046192I69175290I66245207I63843447I62969159I63505437I64104910
1402I64114250I64329083I65547950I67636363I70064247I72380481I74152119
1395I74951246I74466924I72813357I70956852I70229020I70880960I71850698
1388I72182141I72171122I72796862I74228522I75523646I75893838I75606105
1381I75343840I75313922I75338294I75235549I74904470I74574414I74963286
1374I76492654I78461391I79741264I80094672I80182313I80546886I81248156
1367I82298529I83785426I85529552I87011341I87800032I88024352I88336311
1360I89298168I90835854I92320781I93111589I93055327I92581222I92271816
1353I92384560I92929595I93922465I95188254I96202505I96575835I96451489
1346I96159159I95793491I95336024I94927667I94817914I95095359I95575010
1339I96016424I96341737I96566494I96736156I96954636I97109413I96771475
1332I95934256I95381121I95572018I95811735I95382216I94670073I94361105
1325I94547624I95308586I96985578I99170972A000509442A000282350I99400764
1318I99170023I99661277I99976009I99771393I99714912A000405747A001617391
1311A002801596A003688071A004223109A004461074A004621031A004866074A004888550
1304A003973250A001760491I98970953I97095402I97214202I99209283A001945258
1297A004081031A005054271A005444166A006024957A006598306A006332101A004954006
1290A003030731A001438169A000810964A001088993A001525372A001321412A000192520
1283I98439198I96587802I94900083I93564093I93398884I95171032I97989102
1276A000247104A002175561A005019463A007817976A007740990A003980912I99016050
1269I95644043I94519092I94718892I95316686I95908132I96679748I98412564
1262A001251942A003289347A002384701I99400107I97199170I97487340I99561961
1255A001259896A001227496A000234407I99662153I99393464I98354478I96174775
1248I93196165I89986960I87810103I88314493I91639360I95687535I98170147
1241I98613167I97880153I96709740I95335440I93999086I93257606I93604084
1234I94719548I95386010I94741878I93503673I93136473I93886562I94535948
1227I94166048I93264978I92836262I93093492I93386551I93155519I92578595
1220I92143530I91862657I91312438I90383495I89529128I89178201I89321373
1213I89775484I90404730I90994279I91374103I91675116I91916511I91558943
1206I90332048I89240811I89597430I91188679I92535614I92857497I92616757
1199I92331289I92065741I92028670I92649159I93889481I95024721I95284797
1192I94404524I92509124I90035996I88059744I87897452I89388873I90181944
1185I88213060I84653001I82993304I85043334I89207171I92994030I95549470
1178I97186764I97728297I96454043I93658521I91192984I90560673I91199916
1171I91797565I92274370I93081597I93963621I94937519I96937780I99947623
1164A001916798A001060534I98127021I95210073I93507832I93054159I93191349
1157I92775914I91428322I90561111I91571349I93552273I94367162I93268846
1150I91283686I89919095I89944560I90653276I90637076I89800733I89639171
1143I90992527I92563927I92416741I89939673I86022921I82219207I79674129
1136I78602594I78954105I81043467I84463126I86986677I86597950I83941880
1129I80986037I78524732I76381662I74957011I75042243I76368892I77627602
1122I78133378I78708111I80445964I82853123I84044845I82912450I80538275
1115I79272413I80659921I84251212I88052593I90135606I90041033I88697455
1108I87284187I86436314I86332985I86924431I87771866I88212111I87991441
1101I87396712I86784758I86367428I86206085I86071596I85690896I85287428
1094I85265609I85319901I84808944I83987926I83793963I84194877I84120882
1087I83136915I81935123I81060323I80139405I78956440I78107837I77916575
1080I77825067I77312213I76497251I75601581I74671759I73878835I73365981
1073I72886546I72063268I70923211I70186549I70934157I73558703I76975078
1066I79280805I79670115I79118805I78954689I79570799I80620880I81761664
1059I82855896I83663926I83674361I82693969I81539464I81145118I81485902
1052I81972266I82090045I81653812I80886429I80285351I80190996I80463696
1045I80630221I80281994I79381143I78300413I77479175I76994927I76613497
1038I76205797I75808824I75378284I74830476I74098849I73051687I71609228
1031I69919468I68311655I67274417I67226620I67947666I68738474I69151282
1024I69293139I69459228I69742509I70193920I70958603I72012260I73052927
1017I73815130I74275735I74603676I75047059I75714762I76392898I76728429
1010I76615978I76298473I76084297I76064230I76113997I76017965I75600558
1003I75001670I74785962I75216574I75760808I75898508I75529994I74735975
996I73631457I72376614I71162198I70135687I69353782I68825531I68582166
989I68646674I68870482I69004970I69146539I69559639I70063006I70158236
982I69713393I69127493I68790431I68609604I68350841I67953066I67390444
975I66623353I65633912I64452991I63375034I62852913I62880277I63036367
968I63075699I63088323I63164872I63178007I62990394I62703026I62678288
961I63279440I64159420I64755899I65240077I65824445I66296069I66475436
954I66513601I66511850I66282715I65719509I65164623I65205926I65795401
947I66427201I67026163I67653001I68082520I68025309I67633588I67454296
940I67579079I67513769I67100741I66818993I66914369I67128982I67530188
933I68037496I68081790I67402485I66294901I65160026I63972245I62556205
926I61509553I61677391I62360126I62694196I62564888I62017515I61144616
919I60176410I59160116I57983646I57079438I57200354I57903740I58068148
912I57432554I56547465I56009289I55676533I55029481I53866584I52300001
905I50808141I50477501I51074055I50881698I49873942I49306358I50353739
898I52058898I52845474I52565038I51686663I50599877I49583436I49049566
891I49177998I49279212I48776355I47678477I46211210I44641123I43143426
884I41745410I40371694I38817078I36805214I34151698I31016048I28280292
877I26698677I25793156I25055837I24664483I24909818I25544391I25908380
870I25646115I24937621I24064426I23011427I21588381I19698527I17187163
863I13320034I06642789H96305365H84277743H75511501H74356120H80639165
856H90243064H99017333I05205440I08955886I11039264I12467490I14570644
849I17675644I20075360I20535600I19254049I17388276I16516468I17148195
842I18707189I20233197I20693441I19764130I19041114I21546057I25408734
835I27639518I28765199I29680863I30704966I31793796I32591974I32669471
828I31970755I30844563I29696845I29208728I30701974I33450939I35139971
821I35374214I35160257I35593425I36382408I36413641I35358452I33604255
814I31563566I29191068I26410653I23910964I22581397I22489962I23673875
807I26109275I28844228I30798517I31548752I31046042I29934882I30754150
800I35034087I39079489I40928332I41342673I41164910I40965840I40951610
793I40607908I39081095I35564455I28881810I18408438I07132145I00351498
786H99322798I01695951I04993527I07480226I07565021I02862716H90221683
779H67338092H35360318H03027020G86088026G89533152H02557439H14668032
772H20555199H19442434H16027737H15496275H19234899H27988808H43410330
765H61498867H74035696H80771028H84742800H87366835H89133729H90764383
758H93130458H96487871I00519117I04664054I08250456I10949653I12775728
751I12632409I06885716H90046548H55175323G98924845G34842617F90832697
744F84455152G13970817G62897509H09611517H43477539H66878143H84233522
737H96548220I04616329I09893734I13362796I15671879I17190373I17878363
730I17740954I17183295I16600825I15851757I14502123I12279293I08855402
723I03040040H93097110H79397020H65658765H55858277H52458540H56865523
716H67502938H78972463H87065821H91506956H93650245H94657198H95099342
709H95020093H94285547H92931169H91172740H89217940H87136021H84573503
702H80367268H72852586H61317093H48475676H40781771H42677025H52749191
695H66652511H80258101H91132094H98931298I04533870I08853723I12363212
688I15258560I17682284I19654306I21012989I21702000I21996738I22174135
681I22094448I21576121I20866897I20329743I19998227I19759824I19760919
674I20250495I21138794I22033808I22593656I22642110I22125389I21111284
667I19668900I17723222I15254985I12582058I10153226I08128445I06472251
660I05388675I05339781I06584191I08865326I11633774I14466001I17198328
653I19762087I22052781I23987221I25615394I27122504I28635672I30008439
646I30945923I31393612I31632306I31952585I32403339I32840082I33073520
639I32952460I32383125I31329396I29865266I28192142I26444586I24465486
632I21960178I18963543I16023974I13800050I12528131I12010680I12085258
625I12908247I14673463I17191760I19878114I22160343I23893668I25384070
618I26994875I28750823I30408623I31832471I33099574I34255830I35206011
611I35879552I36307757I36516095I36492816I36303087I36119706I36074825
604I36151668I36315273I36639784I37092581I37270708I36691449I35400411
597I34030125I33199839I33012955I33099501I32946258I32214777I30915785
590I29300309I27542464I25587518I23322583I20743719I17843481I14447466
583I10282169I05154870H99074617H92368766H85698965H79799830H75222820
576H72427810H71918313H74031537H78621025H84956538H91874156H98255203
569I03630173I08188064I12124226I15295120I17573190I19124595I20190365
562I20884338I21277443I21435211I21269927I20463357I18665887I15921082
555I12978666I11038826I10954250I12594390I14962217I16857836I17485841
548I16690071I14800728I12225001I09114529I05406481I01084365H96208896
541H90680537H84160330H76328288H67174267H56979580H46007438H34245291
534H21492755H07650441G92792854G76922184G59685167G40195986G16950158
527F88090883F52390613F10671095E66662634E26324494D95485974D76945296
520D69136677D67830608D69594511D73775132D81392998D92654988E05887249
513E18686925E29600433E38572203E46320618E53743027E61645196E70512505
506E80416870E91207418F02740831F14948186F27805511F41240782F54979913
499F68505378F81292282F93065377G03688270G12879361G20279987G25811337
492G29749031G32438669G34100044G34851666G34688425G33375423G30576253
485G26297921G21139024G15927587G11262207G07610274G05547621G05453559
478G07094792G09881486G13469566G17883701G23174532G29182250G35599857
471G42105178G48396688G54149074G58888449G61876910G62460548G61066545
464G59751354G60944024G65211191G70648406G74723362G76309357G75727397
457G73577979G70319152G66591401G63012078G59467562G55056930G49012507
450G41785119G35411514G32779742G35875695G43659502G51351655G53417812
443G49294474G45673045G50822966G66362777G86255935H03479599H15420091
436H23078312H28007927H31285360H33838175H36295467H38672050H40663993
429H42123233H43121649H43815184H44417430H45151830H46120327H47288479
422H48569008H49802981H50750973H51258646H51391602H51320891H51133424
415H50807016H50304743H49625875H48768881H47678446H46267222H44515944
408H42505539H40275047H37623721H34059137H28956209H21940736H13428878
401H04833685G97950510G93998076G93261706G95338443G99306567H03849424
394H07709768H10133711H10837973H09807230H07286525H03726393G99498996
387G94669500G89108012G82833212G76184354G69616642G63440721G57883903
380G53293320G50109217G48651582G48990031G50975042G54343036G58751551
373G63743413G68816712G73693933G78484535G83407802G88318225G92702879
366G96311246G99560732H02971269H06373779H09107346H10862200H11860397
359H12359241H12492635H12510805H12755849H13407862H14437510H15697024
352H16982078H18157744H19260074H20372985H21440726H22278455H22715853
345H22734463H22506204H22224236H21887466H21421972H20985155H20864458
338H21061193H21280112H21361331H21412850H21471666H21303682H20647145
331H19486656H17997788H16326633H14431235H11889149H07718233H00578850
324G89289349G72929103G50542969G21744043F88627454F56973972F34542886
317F27194434F35840199F56359540F82166500G07321010G28313726G44227159
310G55945084G65043572G72809282G79788926G85956090G91088498G95052097
303G98142210H01218750H05001158H09192214H12936019H16063859H19137918
296H22444031H25692641H28545811H30902765H32871575H34760332H36929456
289H39581950H42698917H45990800H48932924H51173778H52925859H54724496
282H56814807H58900009H60463528H61207341H61094744H60111069H58193120
275H55266612H51133570H45489549H38208672H29349754H18785240H06056785
268G90642049G72215063G50646007G25974578F98891393F71517264F47012214
261F27574917F13044395F01928642E93656537E89612667E92029605F01979286
254F18477524F39373988F62760655F87428946G12319658G36056522G57259108
247G74955416G88284439G95903254G95779929G85169880G60969127G21639327
240F70035840F13848922E62343401E21772879D92584861D70586104D51407715
233D35114604D27670377D37130920D66401214E09000458E52114270E83988714
226E99646559F01503283E96122074E90834453E92071674F04142387F27624903
219F58770347F91335991G20172425G43394610G61491175G75450976G85793944
212G92632898G96536002G99613345H05607341H15414691H24176628H29519270
205H33167262H36904572H41080377H45152414H48730351H51935178H55107604
198H58152255H60338087H61327893H62064263H63756798H66287208H68520035
191H69936294H71078832H72408545H73539115H73951412H73896026H74016431
184H74252645H73580929H70719075H64394727H52541875H32339019H03543961
177G72320801G47974612G32790544G17785406F92802310F59970388F32713819
170F21658780F26047155F37976045F50749451F62929950F76852026F94921080
163G17177322G41456448G65117931G86379042H04422263H18903091H29756870
156H37414872H42816549H47042049H50959894H55007121H59052523H62659576
149H65697295H68383940H70675145H72219107H73044140H73783648H75173418
142H77532415H80596987H83558814H85372265H85542803H84707553H84000227
135H83802105H83613106H83203070H83058292H83277649H83125281H82415254
128H82291200H83711327H85899859H87093770H86526113H84996965H83600700
121H82704373H82225014H82051484H81841030H81053141H79454522H77051449
114H73432793H67669097H58888334H46590419H30315332H09736224G85976888
107G61909236G39641392G18968152F98890663F79482044F61921539F46655084
100F32058595F15774386E97108596E77308514E57900916E40371169E27241509
93E21518641E24739777E35626867E50658715E66360344E79966481E88818028
86E91506607E89329277E85614442E83887318E86536200E94568334F08050782
79F26554901F49272551F74773245G00856482G24753375G43936289G57802973
72G68259417G77527567G85666459G91563917G95657481G99472434H03584607
65H07435682H10356425H12100989H13279867H15549107H20127796H25910611
58H31165540H35662280H39138420H40572923H40391293H41180642H44958671
51H50697994H55313753H56680610H55176637H52071783H47518051H41437579
44H35349591H30852049H26929095H21850177H16820151H14618702H15549618
37H17413640H18587410H19496361H22404407H31192905H45911406H58778217
30H64256298H62591492H56952361H51511205H48042216H44972024H41344320
23H39455707H41758150H46861514H49851581H45601271H34721805H26985430
16H28825586H35915496H43268690H49934697H54913350H55206191H50319338
9H46117554H49629889H59503496H68893219H74078677H74312993H69035005
2H60550731H57379326
##END=


$$ === CHEMSPECTRA PEAK TABLE EDIT ===
##TITLE=X7649
##JCAMP-DX=5.00
##DATA TYPE=INFRAREDPEAKTABLE
##DATA CLASS=PEAKTABLE
##$CSTHRESHOLD=0.93
##MAXX=3997.453
##MAXY=0.8770371636020218
##MINX=373.96442
##MINY=0.3493230927270003
##$CSSOLVENTNAME=- - -
##$CSSOLVENTVALUE=0
##$CSSOLVENTX=0
##NPOINTS=20
##PEAKTABLE= (XY..XY)
427.7926318999216, 0.6653842297239461
504.28535407349455, 0.42597877801787093
613.3583097654414, 0.5077736951850979
701.1832870758403, 0.3493230927270003
736.5965843784202, 0.4815982855587282
821.5884979046127, 0.5122952439717063
907.9969433229085, 0.6115019885962348
1007.1541757701325, 0.5985377997358454
1051.066664425332, 0.5762176485867512
1107.7279401094602, 0.3821261505304421
1187.05372606724, 0.7121868104099917
1361.2871487959342, 0.6867543424785872
1389.617786637998, 0.6962919800600155
1426.4476158326815, 0.5590660550463356
1471.7766363799842, 0.6420802448937973
1587.932251532447, 0.7141780221621012
2364.1917284050173, 0.7872716744435461
2855.728294964816, 0.6147327395820814
2929.387953354183, 0.6331147519170752
3071.041142564511, 0.7686300244589584
##END=


$$ === CHEMSPECTRA PEAK TABLE AUTO ===
##TITLE=X7649
##JCAMP-DX=5.00
##DATA TYPE=INFRAREDPEAKTABLE
##DATA CLASS=PEAKTABLE
##$CSTHRESHOLD=0.93
##MAXX=3997.453
##MAXY=0.8770371636020218
##MINX=373.96442
##MINY=0.3493230927270003
##NPOINTS=132
##PEAKTABLE= (XY..XY)
3069.6246106724, 0.7673147878672573
3046.960100398749, 0.7725000932356091
3025.7121220172007, 0.7888783779229867
3014.379866880375, 0.7876165472773672
2997.381484175137, 0.7903481090037318
2953.4689955199374, 0.6898866268639487
2929.387953354183, 0.6331147502834662
2891.1415922673964, 0.6954609125096618
2855.728294964816, 0.6147327395820814
2774.985977114933, 0.7886307799718704
2757.987594409695, 0.7944439017067209
2739.5726798123533, 0.7925149761993259
2719.7412333229086, 0.7951217857392691
2712.6585738623926, 0.7950297555583229
2697.076723049257, 0.7978950110300798
2672.9956808835027, 0.801032003476637
2646.0815749335416, 0.8037778699003851
2633.332787904613, 0.8040304740463432
2619.167468983581, 0.8064457739672628
2614.9178733072713, 0.8064604347914128
2596.5029587099298, 0.8071286641946528
2585.1707035731038, 0.8072475754120231
2566.7557889757622, 0.810578580983427
2554.007001946833, 0.8104128203097767
2544.0912787021107, 0.8099350296948477
2534.1755554573883, 0.8107518513577424
2518.593704644253, 0.8106298411840611
2511.511045183737, 0.8131329377881517
2495.929194370602, 0.809997376383096
2487.430003017983, 0.8107696135886169
2477.51427977326, 0.8130232058198646
2463.348960852228, 0.8128257359783316
2453.433237607506, 0.8125200828298625
2435.018323010164, 0.8127700650333435
2418.0199403049255, 0.8137923440690746
2410.9372808444095, 0.8130139073173228
2395.3554300312744, 0.8134785857694529
2362.7751965129005, 0.7865575520621071
2342.943750023456, 0.7924874392688802
2337.2776224550425, 0.7940737569413603
2327.36189921032, 0.7966408101553882
2321.6957716419074, 0.7960367766858072
2290.532070015637, 0.8104920944546902
2273.533687310399, 0.8125717587839922
2257.9518364972632, 0.8130317888016557
2250.8691770367473, 0.8121986351325836
2215.455879734167, 0.814432021253863
2184.2921781078967, 0.8114126886801669
2168.7103272947616, 0.8123276796267049
2154.5450083737296, 0.8145167794242567
2137.546625668491, 0.8068477471539646
2123.381306747459, 0.8112972921726032
2114.8821153948393, 0.8111983501918932
2107.7994559343233, 0.8109531364931417
2093.6341370132914, 0.8079652157704865
2079.4688180922594, 0.8080163559008576
2068.136562955434, 0.8102934917053017
2055.387775926505, 0.8069190942111085
2048.305116465989, 0.8029133640070011
2034.1397975449568, 0.8090944251350353
2014.308351055512, 0.8111311157454572
2008.642223487099, 0.8090947828954107
2000.1430321344799, 0.8085703813311185
1993.060372673964, 0.8083417381454613
1981.7281175371381, 0.799327012276899
1967.5627986161062, 0.7963492836409196
1951.9809478029708, 0.7998741234569827
1939.2321607740419, 0.8056412305097624
1922.2337780688035, 0.8047693929790967
1916.5676505003908, 0.8035673458891732
1888.2370126583264, 0.7924527487645361
1878.321289413604, 0.7996146050608475
1865.5725023846753, 0.8014037573468822
1855.656779139953, 0.800624426194192
1828.7426731899918, 0.7900350654080562
1798.9955034558247, 0.7972536651136773
1791.9128439953088, 0.7962095700462887
1774.91446129007, 0.7911422814943687
1748.0003553401093, 0.7864626018050377
1735.2515683111806, 0.7863199673174789
1718.2531856059418, 0.7883508169588498
1705.504398577013, 0.790221032191675
1699.8382710086003, 0.7897021138360585
1684.2564201954651, 0.7853653392984841
1670.0911012744327, 0.7817468013866654
1653.0927185691944, 0.7763543094703296
1647.4265910007816, 0.7753977145860746
1636.094335863956, 0.7751879657223427
1610.5967618060981, 0.7552701199512184
1587.932251532447, 0.7141780221621012
1568.1008050430023, 0.7486147845516707
1559.6016136903827, 0.7506769267906241
1541.1866990930412, 0.7589818797617633
1534.1040396325252, 0.7638431154903591
1518.52218881939, 0.7534939613913286
1508.6064655746677, 0.7595750056239179
1485.9419553010162, 0.734570917352219
1471.7766363799842, 0.6420802448937973
1461.8609131352619, 0.6661010353082003
1426.4476158326815, 0.5590660550463356
1389.617786637998, 0.6962919800600155
1361.2871487959342, 0.6867543424785872
1330.1234471696635, 0.7512639723600063
1306.0424050039092, 0.7394856162032124
1260.7133844566065, 0.7449344365921668
1229.5496828303358, 0.7645901387574608
1215.3843639093038, 0.7620891895324271
1187.05372606724, 0.7121868104099917
1155.8900244409692, 0.7440715398036676
1107.7279401094602, 0.3821261505304421
1051.066664425332, 0.5762176485867512
1029.818686043784, 0.6205683324258066
1007.1541757701325, 0.5985377981022365
998.6549844175133, 0.609069106141433
936.3275811649723, 0.6479397390710941
907.9969433229085, 0.6115019885962348
852.7521995308834, 0.6704857913931056
821.5884979046127, 0.5122952423380974
736.5965843784202, 0.4815982855587282
701.1832870758403, 0.3493230927270003
688.4345000469116, 0.4825962458737831
636.022820039093, 0.7138022153078774
613.3583097654414, 0.5077736951850979
559.5300978655196, 0.7212859954984969
553.8639702971068, 0.720659431293312
504.28535407349455, 0.42597877801787093
490.1200351524626, 0.4769217946742042
449.0406102814695, 0.6864353982871315
427.7926318999216, 0.6653842297239461
405.12812162627006, 0.6856712074228386
396.6289302736509, 0.6754854289282893
385.29667513682534, 0.6911126340973686
##END=

##END=

