##TITLE=X8764
##JCAMP-DX=4.24
##DATA TYPE=INFRARED SPECTRUM
##DATE=2/11/2018
##SAMPLING PROCEDURE=ATR platinum Diamond 1 Refl
##ORIGIN=ComPlat
##XUNITS=1/CM
##YUNITS=TRANSMITTANCE
##RESOLUTION=4
##FIRSTX=3997.453
##LASTX=373.96442
##DELTAX=-1.4165319
##MAXY=0.93385988
##MINY=0.40567684
##XFACTOR=1
##YFACTOR=8.6972479e-010
##NPOINTS=2559
##FIRSTY=0.93201709
##XYDATA=(X++(Y..Y))
3997+1071622996+1070916423+1070602269+1070690744+1071176916+1071952295
3989+1072671067+1072998037+1072885986+1072494527+1072008698+1071573789
3980+1071269161+1071122775+1071122158+1071119622+1070901551+1070560189
3972+1070501046+1070798752+1070949387+1070637494+1070311758+1070538122
3963+1071187675+1071710032+1071857857+1071759650+1071595377+1071539386
3955+1071651162+1071646776+1071166362+1070319982+1069700926+1069812634
3946+1070563068+1071330361+1071461327+1070813898+1069908032+1069350518
3938+1069343322+1069817500+1070565398+1071141210+1071001403+1070160849
3929+1069435841+1069451329+1069924891+1070221295+1070211289+1070240278
3921+1070386048+1070348080+1069938940+1069384441+1069108802+1069252858
3912+1069619166+1070095469+1070836513+1071832569+1072524270+1072123627
3904+1070476991+1068508387+1067149930+1066393808+1066083766+1066490166
3895+1067590253+1068595698+1068558416+1067743082+1067753293+1069022109
3887+1070012544+1069312619+1067727388+1066871071+1066450348+1065804564
3878+1065875153+1067210308+1068509209+1068383863+1067042608+1065576761
3870+1064687480+1064920491+1066149695+1067103328+1066697614+1065533243
3861+1065208123+1066249753+1068266466+1070899906+1073453917+1073741823
3853+1069620125+1064629570+1062933658+1063819307+1065717596+1067711899
3844+1069012651+1068972148+1067752608+1066154081+1064764785+1063983374
3836+1064163067+1064989983+1065611850+1065653655+1065635973+1066057861
3827+1066634496+1066990797+1067265682+1067251359+1066035999+1064059925
3819+1063532566+1064542053+1065232452+1065144182+1065505624+1066736746
3810+1068175181+1069018545+1068742426+1067875487+1067604371+1067603549
3802+1066454734+1064630460+1064290332+1065334429+1066159906+1066346726
3793+1066561234+1067099490+1067806063+1068571643+1069170345+1069209272
3785+1068734819+1068398460+1068416896+1068084512+1067010877+1066149695
3776+1066401004+1067307830+1068134404+1068691849+1068882576+1068508318
3768+1067788450+1067202015+1066986685+1067208526+1067655154+1067774332
3759+1067374924+1067247590+1068165243+1069729915+1070876605+1070384471
3751+1067692025+1064933992+1064746555+1066215692+1066573501+1064653625
3742+1063013019+1063576632+1065163714+1065990356+1065100801+1063038856
3734+1061464863+1061252069+1062085428+1063438813+1064683094+1065108408
3725+1064570426+1063837879+1063654074+1063995573+1064548495+1065109367
3717+1065607052+1066135234+1066630452+1066345973+1064525674+1062484837
3708+1062478532+1064560831+1067197698+1068780531+1068236449+1065912023
3700+1063804983+1063340811+1064153678+1065386582+1066609687+1067471623
3691+1067229086+1065282824+1062589486+1061192788+1061604054+1062974229
3683+1064420270+1065331276+1065582723+1065406046+1064579404+1062693382
3674+1061175450+1061684305+1062859848+1062637870+1061451637+1061475829
3666+1062823800+1064160805+1064882935+1065380963+1066111933+1066725233
3657+1066275384+1064610312+1063239588+1063390497+1064477769+1064883346
3649+1063399406+1061168322+1060190086+1060558518+1061479050+1062363671
3640+1062902681+1062948392+1062527395+1061910532+1061597886+1062069802
3632+1063167080+1063651675+1062066924+1059509761+1058866375+1060204957
3623+1061985164+1063046805+1062659801+1060969303+1059574387+1059608585
3615+1060189400+1060178846+1059731122+1059549784+1059572605+1059406756
3606+1059260644+1059458772+1059772241+1059920135+1060112986+1060696406
3598+1061491660+1061981532+1061927391+1061583905+1061443276+1061671421
3589+1061754346+1060883363+1059256190+1058302419+1058638504+1059624690
3581+1060462366+1060750546+1060575308+1060339898+1060423028+1060913380
3572+1061585550+1062068432+1061999145+1061093622+1059495095+1058144040
3564+1057857573+1058413442+1059078278+1059333152+1059145441+1058777488
3555+1058461415+1058254583+1058102372+1058090516+1058418856+1058931755
3547+1059029620+1058418445+1057692340+1057555001+1057890743+1058146507
3538+1058115599+1058016980+1057999915+1057939675+1057777801+1057658759
3530+1057706869+1057984770+1058554071+1059263660+1059677598+1059495300
3521+1058879259+1058226896+1057829406+1057765328+1057892936+1057953861
3513+1057808366+1057556920+1057436302+1057631757+1058138283+1058701759
3504+1058866238+1058333053+1057478381+1057042239+1057117076+1057095489
3496+1056701151+1056460807+1056866246+1057592145+1057943513+1057714682
3488+1057356256+1057391413+1057773003+1057919732+1057455423+1056774824
3479+1056557918+1056884271+1057304171+1057482699+1057272029+1056444016
3471+1055020111+1053690027+1053272731+1053832575+1054695266+1055173693
3462+1055058078+1054673609+1054539011+1054772570+1054942121+1054639343
3454+1054002194+1053514103+1053472093+1053762466+1054016928+1053960457
3445+1053685915+1053502384+1053513281+1053521848+1053327831+1052935413
3437+1052429504+1051901801+1051556808+1051588881+1051847112+1051946485
3428+1051846084+1051950049+1052438413+1052808284+1052390166+1051214007
3420+1050027636+1049406386+1049259247+1049302491+1049512132+1049931622
3411+1050401345+1050722490+1050922674+1051142458+1051314613+1051164320
3403+1050620444+1049996111+1049598758+1049415570+1049295158+1049152473
3394+1048940843+1048727981+1048752173+1049129994+1049624595+1049901947
3386+1049908252+1049884060+1050093222+1050560341+1051024582+1051170009
3377+1050947962+1050652244+1050589879+1050719954+1050748121+1050543619
3369+1050252835+1050018932+1049823751+1049641111+1049572304+1049729244
3360+1050073896+1050496332+1051024308+1051694421+1052212255+1052169148
3352+1051691200+1051380610+1051530285+1051848620+1051998912+1051947170
3343+1051687911+1051043977+1050010023+1049060844+1048755051+1049064819
3335+1049478689+1049732260+1049963763+1050191635+1050176695+1049831701
3326+1049385690+1049144523+1049300435+1049823066+1050396479+1050684317
3318+1050764295+1051052818+1051714570+1052380297+1052520447+1051948404
3309+1050982914+1050236387+1050118853+1050486874+1050897385+1051088934
3301+1051009436+1050605504+1049929154+1049291800+1049007389+1049089902
3292+1049385347+1049843009+1050445000+1050958311+1051033080+1050605025
3284+1050008515+1049633230+1049585737+1049669552+1049613287+1049391652
3275+1049286865+1049518849+1049984803+1050479815+1050877100+1051022252
3267+1050853113+1050631478+1050694186+1051015878+1051275892+1051240666
3258+1050913559+1050442054+1050010708+1049790855+1049890982+1050257632
3250+1050645390+1050818298+1050801714+1050817887+1050980653+1051219489
3241+1051485465+1051772069+1051891384+1051584152+1050951800+1050446028
3233+1050357484+1050647789+1051193378+1051831761+1052290931+1052392976
3224+1052238229+1052030026+1051813120+1051432695+1050749971+1049910034
3216+1049280492+1049095796+1049295569+1049641385+1049857264+1049786606
3207+1049527484+1049292691+1049196813+1049284878+1049559968+1049863774
3199+1049958349+1049776052+1049407826+1048911785+1048341661+1047892566
3190+1047786066+1047996805+1048266412+1048434455+1048567203+1048709956
3182+1048734354+1048530743+1048242974+1048223648+1048647934+1049140137
3173+1049095248+1048498601+1048022093+1048141683+1048601469+1048856959
3165+1048655336+1048150524+1047738367+1047734667+1048051494+1048255036
3156+1047999751+1047376583+1046865740+1046913713+1047447583+1047906341
3148+1047918335+1047757077+1047799362+1047776198+1047119311+1045947264
3139+1045060176+1044949152+1045320600+1045578557+1045405307+1044922082
3131+1044502730+1044418914+1044659670+1045040095+1045309292+1045255425
3122+1044911939+1044520754+1044165892+1043689931+1043058333+1042546873
3114+1042437495+1042637200+1042720673+1042383560+1041720163+1040937107
3105+1039986695+1038684024+1037002436+1035159247+1033554004+1032582004
3097+1032354749+1032631759+1033057827+1033413238+1033665507+1033840814
3088+1033862950+1033631857+1033233545+1032815632+1032271756+1031380556
3080+1030246750+1029330467+1028982937+1029085394+1029191551+1029009459
3071+1028630130+1028270539+1028056237+1028157940+1028770760+1029779973
3063+1030734840+1031247054+1031235061+1030891369+1030584274+1030562549
3054+1030594965+1030166429+1029137341+1027846801+1026448321+1024628502
3046+1022254322+1019811266+1017886592+1016623122+1015820466+1015112248
3037+1014036626+1012428848+1010671805+1009185809+1007927684+1006659965
3029+1005313022+1003884594+1002369266+1000873812+999482666+998057458+996414043
3019+994554269+992554689+990429556+988275160+986382833+985026981+984243035
3009+983916819+983934432+984091029+984043193+983561888+982722498+981726580
2999+980629234+979308265+977653952+975777320+973992315+972546342+971450092
2989+970608578+969985479+969606835+969501706+969637195+969849510+969884393
2979+969541318+968748599+967509869+965837259+963790528+961561088+959379416
2969+957237151+954804032+951693261+947727887+942980142+937696952+932102416
2959+926126291+919464975+912068782+904465071+897536477+892126501+888850223
2949+887978898+889299319+892214977+896079813+900329530+904376184+907701668
2939+910099972+911582953+912068028+911416829+909765532+907607299+905512046
2929+903827168+902613796+901795789+901286385+900953247+900591051+900058003
2919+899440797+899062702+899342247+900561034+902652380+905211393+907765130
2910+910062759+912145949+914184182+916245100+918209934+919924555+921381425
2900+922644963+923637386+924199287+924384119+924453337+924526462+924466085
2890+924169543+923780209+923553434+923618129+923870124+924082301+924179275
2880+924329910+924661197+925009412+925131401+925093708+925257432+925835643
2870+926592930+927064299+926951220+926196537+924894277+923344820+922007198
2860+921154239+920655389+920197727+919619653+918981202+918400729+917909281
2850+917523990+917398369+917742129+918645940+920155511+922399136+925411768
2840+928940726+932616344+936234737+939766230+943201777+946479220+949512412
2830+952237137+954619953+956636735+958263497+959463643+960176864+960356968
2820+960026297+959247628+958055775+956432028+954322109+951678732+948538904
2810+945113293+941790140+938916150+936490775+934248794+932143193+930491554
2800+929545322+929235485+929433751+930130181+931301611+932869435+934777387
2791+936979825+939459888+942295911+945537717+949040495+952603650+956220673
2781+960009507+963916697+967675924+971093585+974226286+977209106+980080355
2771+982848873+985536317+988081075+990395975+992566613+994775082+996964704
2761+998796996+1000059095+1000961534+1001890290+1002988117+1004137685
2752+1005202479+1006112320+1006875090+1007623193+1008485198+1009408883
2744+1010307348+1011238091+1012213175+1013035020+1013569507+1013976729
2735+1014468726+1015026788+1015521869+1015951363+1016382640+1016777526
2727+1017059333+1017265479+1017475464+1017694700+1017959785+1018375641
2718+1018904303+1019318378+1019465929+1019392873+1019199954+1018987570
2710+1018914172+1019136698+1019672693+1020344451+1020852416+1020956997
2701+1020674093+1020276535+1020077104+1020182165+1020440122+1020647640
2693+1020780867+1020927665+1021045061+1020969195+1020653396+1020238842
2684+1019904539+1019779535+1019917697+1020219927+1020443892+1020426759
2676+1020255084+1020130012+1020140977+1020246860+1020394343+1020555532
2667+1020694516+1020765173+1020739199+1020616937+1020442590+1020308060
2659+1020314228+1020494263+1020757703+1020955078+1021021280+1020996746
2650+1020866876+1020515988+1019973551+1019566330+1019611013+1020001787
2642+1020341504+1020476856+1020648462+1021046500+1021542472+1021985057
2633+1022396664+1022668328+1022487196+1021867454+1021360517+1021400609
2625+1021769315+1021987455+1021917689+1021719424+1021508891+1021362436
2616+1021443374+1021821263+1022260901+1022454437+1022434700+1022524684
2608+1022861111+1023186710+1023226939+1023144151+1023414376+1024205038
2599+1025052446+1025339735+1024992206+1024474235+1024181189+1024118961
2591+1024168168+1024359648+1024739800+1025146130+1025318970+1025184440
2582+1024869121+1024483144+1024057830+1023643824+1023329875+1023235026
2574+1023487912+1024022878+1024457170+1024463475+1024198939+1024104843
2565+1024414406+1025075267+1025909311+1026611087+1026825115+1026441605
2557+1025726740+1025108232+1024936763+1025345903+1026149039+1026906874
2548+1027260640+1027210200+1027000490+1026803869+1026620202+1026418304
2540+1026241901+1026129850+1026013824+1025799727+1025558218+1025511890
2531+1025774644+1026231484+1026708951+1027056138+1027056550+1026591075
2523+1025960094+1025700355+1025983738+1026463878+1026764326+1026849786
2514+1026883230+1026981643+1027187584+1027448146+1027559649+1027372897
2506+1027100068+1027089103+1027214107+1026921677+1026089758+1025414436
2497+1025586590+1026407065+1027099999+1027273524+1027171616+1027099177
2489+1027055522+1026935521+1026760008+1026662692+1026793315+1027179703
2480+1027654018+1028026905+1028302407+1028552963+1028677418+1028457085
2472+1027785875+1026766313+1025681645+1024921411+1024791953+1025205685
2463+1025636825+1025668693+1025530668+1025724136+1026257252+1026749386
2455+1027085265+1027389276+1027559238+1027367209+1026842727+1026217709
2446+1025705152+1025479611+1025599886+1025872715+1026049598+1026190638
2438+1026580315+1027223016+1027723785+1027821718+1027726046+1027730364
2429+1027815207+1027789028+1027504891+1026878159+1026036234+1025433283
2421+1025482009+1026065772+1026653508+1026869592+1026752881+1026483890
2412+1026119844+1025689115+1025309238+1025087398+1025059436+1025228712
2404+1025504145+1025695009+1025737294+1025755387+1025825701+1025886901
2395+1025900402+1025899854+1025913560+1025962835+1026053230+1026118062
2387+1026081054+1025979831+1025948649+1026092910+1026423855+1026894881
2378+1027453080+1028014158+1028449615+1028752393+1029153515+1029810333
2370+1030493742+1030929610+1031251988+1031686349+1032053616+1032026135
2361+1031579095+1030877937+1030067126+1029282288+1028526715+1027534292
2353+1026129301+1024660713+1023735109+1023658832+1024280904+1025105285
2344+1025616197+1025749493+1025772314+1025710086+1025386886+1024875769
2336+1024519672+1024518850+1024711153+1024794215+1024660713+1024422973
2327+1024215181+1024131914+1024298997+1024820805+1025599063+1026293026
2319+1026622600+1026667078+1026641173+1026430297+1025714541+1024609587
2310+1023763893+1023650266+1024115535+1024706356+1025124817+1025327125
2302+1025400044+1025392917+1025217404+1024800794+1024325793+1024110326
2293+1024218060+1024417901+1024560175+1024715128+1024894547+1024935392
2285+1024810868+1024826425+1025281277+1025991962+1026385477+1026168159
2276+1025721806+1025670200+1026212774+1027033865+1027653676+1027734476
2268+1027280446+1026672903+1026410903+1026774400+1027632842+1028416240
2259+1028476891+1027747840+1026832036+1026286036+1026175355+1026422553
2251+1027075739+1028040338+1028884867+1029095948+1028583939+1027953369
2242+1028012993+1028884319+1029995783+1030974431+1031898527+1032687339
2234+1033065571+1033161380+1033318388+1033362455+1032866278+1032058825
2225+1031673534+1031911959+1032279843+1032394361+1032262367+1031892975
2217+1031433395+1031430859+1032043885+1032403270+1031784831+1030882871
2208+1030748958+1031081753+1030858816+1030060272+1029363979+1028785152
2200+1028122097+1028127717+1029598841+1031803060+1033369308+1034205339
2191+1035154313+1036272219+1036702262+1035885763+1034075333+1031964112
2183+1030296025+1029589521+1029790390+1030265459+1030518208+1030798576
2174+1031508986+1032253184+1032279158+1031633647+1031125820+1031376238
2166+1032388193+1033757341+1035019372+1035840942+1035936477+1035289117
2157+1034605571+1034631682+1035057339+1034872917+1033425368+1031045362
2149+1029049620+1028579759+1029119317+1029135834+1028268483+1027541625
2140+1027511676+1027527987+1026838204+1025577064+1024576212+1024558599
2132+1025556299+1026910369+1027670055+1027255637+1026099147+1025364613
2123+1025661976+1026335311+1026309405+1025342477+1024179887+1023600442
2115+1023544588+1023378465+1022882082+1022453272+1022323266+1022231500
2106+1021950242+1021540073+1021099887+1020726521+1020639347+1020951240
2098+1021420347+1021737379+1021936809+1022287697+1022950546+1023908703
2089+1024949167+1025568635+1025260786+1024041451+1022528590+1021564745
2081+1021710857+1022721715+1023600785+1023615588+1023092546+1022947668
2072+1023783562+1025408748+1026747878+1026553314+1024766185+1022842607
2064+1022219439+1022756735+1023185751+1022844526+1022363837+1022490417
2055+1023003179+1023380452+1023727913+1024236838+1024604790+1024819914
2047+1025607493+1027280720+1029067986+1030127571+1030514302+1030933243
2038+1031850828+1032862234+1032934399+1031527353+1029475482+1028470449
2030+1029514751+1031821085+1033276583+1032242493+1028986775+1025329455
2021+1023043340+1022654142+1023350915+1023622990+1022432918+1020303057
2013+1019008336+1019940244+1022901819+1026461480+1029131311+1029902167
2004+1028437622+1025742845+1024075580+1025094251+1028166643+1031177768
1996+1032798773+1033258148+1033295978+1033178993+1032744769+1032018939
1987+1031542636+1031800730+1032289986+1031762078+1029804234+1027506056
1979+1026199273+1026234499+1027233159+1028685368+1029903264+1030157726
1970+1029375973+1028401231+1028275405+1029186959+1030428225+1031322440
1962+1031448815+1030292941+1027861878+1025318216+1024007733+1024216483
1953+1025221242+1026061043+1026311599+1026437836+1027068543+1027953849
1945+1028289386+1027770318+1026744177+1025696585+1024873576+1024163850
1936+1023377574+1022634404+1022141517+1021880476+1021953189+1022621109
1928+1023644166+1024304617+1024292623+1024047756+1024194210+1024750079
1919+1025001526+1024329083+1023187190+1022669219+1023086104+1023727091
1911+1023725378+1022916485+1021908026+1021350375+1021447965+1021971281
1902+1022287286+1021825033+1020862216+1020221160+1020190869+1020472196
1894+1020863792+1021200973+1021019361+1020003706+1018628185+1017802639
1885+1017810589+1017985073+1017499998+1016394633+1015426951+1015043715
1877+1014953047+1014564123+1013683134+1012846281+1012791181+1013655584
1868+1014906376+1015999542+1016741341+1017114913+1017204485+1017161789
1860+1017216410+1017631992+1018376532+1019116069+1019693115+1020115551
1851+1020265364+1020219104+1020401813+1020962274+1021494979+1021600862
1843+1021428776+1021421580+1021660622+1021862383+1021923103+1022195658
1834+1022920734+1023764236+1024196883+1023968326+1023394227+1023037377
1826+1022901065+1022593627+1022186200+1022074972+1022241369+1022435180
1817+1022571491+1022590544+1022422296+1022096765+1021636979+1021179385
1809+1021026215+1021111401+1020995718+1020460065+1019484776+1018084103
1800+1016685144+1015897839+1015686621+1015594445+1015235402+1014319804
1792+1013160915+1012690986+1012962924+1013211766+1013004112+1012360315
1783+1011566843+1010980545+1010567772+1009942068+1009035516+1008054059
1775+1006946843+1005483121+1003611422+1001616639+999764198+997783396+995220065
1765+991976135+987796527+982125921+975372085+968138246+959018454+946570780
1755+931699307+914595790+891898150+859477149+817986248+773182336+728834990
1745+684929405+641506703+599833025+560761673+525945315+498942070+480902224
1735+470037382+466442770+471825059+485012203+504851067+530651906+560477536
1725+593305759+628432844+662347859+691909741+719007597+748228049+779438624
1715+805862048+825052798+839962033+852652793+863676151+873357090+882038958
1706+889602987+895565201+899769754+902381538+903635962+903715871+902332263
1696+899171806+894752608+889257719+881302847+869526931+854953438+839044859
1686+818965581+791213923+764623485+749498509+742966583+741074599+744227106
1676+754533406+770712621+788175249+805924824+826282139+847892713+865697320
1666+878760282+889657882+900290329+910288300+918308827+924285706+928840051
1656+932339882+935300018+938567455+941851682+944421112+946440636+947871257
1646+948679327+949362119+950046624+950507850+950733940+950657183+949770712
1636+947473767+944366492+941767044+939399443+935805379+929503037+920025573
1626+907438434+889764245+864066925+832574544+800883280+768851065+732814208
1616+698041779+679161893+679788146+694110808+717685188+746817165+777052381
1606+804956319+829583500+851397821+870527578+886646347+899807036+910501848
1596+919332158+926741921+932774791+937452906+941136611+944049665+946075630
1587+947130281+947179419+946284244+944934834+943758812+943000771+942759604
1577+943283537+944475253+945481314+945055315+941676649+935186939+929058260
1567+926840539+928779811+933340735+938440943+942820667+946957784+951464499
1557+955000173+957329670+958897700+959585837+959309376+958141715+956262752
1547+953884459+950681855+945971324+939479900+930151426+917315856+905772951
1537+897301410+886810277+868076229+839580100+806767023+771517812+728278092
1527+673339624+613695696+560372853+517191797+486923787+475445268+483951350
1517+509296000+544849051+581838171+616513831+648851496+678592592+708902029
1507+747096710+785944645+810360059+824537706+835493765+845444380+854460208
1497+861921164+867083463+869955466+870962007+870123645+867177353+862158836
1487+855777682+848898774+841977033+835310646+829590764+825746624+824179897
1477+824658598+826695392+829843993+833987346+838503724+841836541+843349265
1468+843246192+841373397+837692091+833285160+829120766+824812386+819033840
1458+810341692+800151418+791697148+784439254+776550173+767358285+756920676
1448+745769230+735439149+727420405+721521104+716446185+710915590+703677297
1438+693988340+684690020+682171236+688942752+703756521+725160605+749532913
1428+771525968+788810411+802145859+812293300+819404945+824111912+827745588
1418+831544770+835889336+840832331+846590659+853269588+860759328+868692407
1408+876535297+884094735+891444189+898192747+903812091+908434215+912464490
1398+916016406+918996210+921300008+922899289+923894521+924252262+923644034
1388+921733341+918593101+914681456+910179470+904732486+897904704+889647671
1378+880226197+869670301+857568511+843851336+829595973+815883800+802579740
1368+789434127+777156414+766406090+756818836+747899297+739986230+733437239
1358+727649304+721532892+714273559+705656866+695935013+685517690+674916494
1349+664789065+655789342+648427073+643031420+639752607+638772725+640473297
1339+644985631+651648661+659435080+667654694+676044681+684574200+693299038
1329+702311782+711652934+721153220+730469565+739358949+747859617+756201425
1319+764498550+772457808+779505649+785207095+789397874+792037070+793140791
1309+792835477+791404650+789251899+786747369+784115300+781503790+779057102
1299+776846989+774857208+773143889+771974926+771781389+772968514+775700504
1289+779807467+784897396+790527157+796258620+801629190+806158658+809436100
1279+811231590+811515658+810356975+807807967+803852736+798399378+791323370
1269+782545899+772112471+760324973+747930891+736094802+726033713+718616617
1259+714190634+712662079+713709123+716815576+721102095+725428226+728903454
1249+731245081+732622042+733271458+733267209+732510676+730882612+728387813
1239+725121405+721124505+716368811+710905379+704963588+698881854+692978990
1230+687497671+682585242+678270488+674477816+671059059+667811908+664576408
1220+661412113+658635234+656592066+655350047+654624011+654020443+653309621
1210+652355371+650854503+648414326+644945540+640772169+636275460+631580760
1200+626652432+621574154+616688384+612632684+610406465+611230298+615911702
1190+624111237+634300894+644535440+653344504+660057152+664509040+666631088
1180+666336329+663688840+659090086+653199215+646493147+638858528+629753196
1170+618746492+605805724+591328794+576290444+562228343+550672896+542446326
1160+537471293+535064491+534386976+534877944+536463621+539388120+543878524
1150+549983834+557624003+566641682+576797312+587774068+599155647+610374049
1140+620828174+630157745+638282579+645153948+650685090+655001421+658545661
1130+661810631+664995417+667866460+669845275+670292863+668918164+666130594
1120+663115495+661451108+662357728+666109349+672103978+679439725+687403918
1111+695557946+703593207+711266684+718505046+725459614+732299801+738955429
1101+745188209+750860392+755983285+760606574+764838198+768868404+772836246
1091+776762762+780667622+784585092+788425668+791993484+795210480+798205225
1081+801112248+803844306+806079023+807424732+807570844+806295860+803423104
1071+798879176+792742410+785087642+775892670+765361994+754307385+743989571
1061+735623023+730117443+728004167+729243513+733116711+738533404+744507405
1051+750336528+755525349+759769103+762979315+765156738+766269505+766352155
1041+765607341+764253819+762344633+759810429+756650246+753126702+749825273
1031+747380641+746071802+745799316+746415631+747825556+749798409+752021337
1021+754439242+757340988+761083699+765863448+771615883+777868127+783831300
1011+789003125+793662736+798542269+804076084+810101142+816075212+821356964
1001+825393955+827840780+828543652+827459395+824666274+820436089+815197718
992+809420406+803585390+798237024+793927204+791086384+790038518+791099268
982+794534130+800476538+808944926+819688876+831806017+843752169+854091776
972+862258825+868546638+873504504+877392025+880103113+881483020+881581981
962+880510745+878213664+874516733+869160212+861522989+850509568+835041860
952+814846488+791158892+767139391+747396883+736225837+735620282+744639673
942+760339639+779225076+798295894+815463283+829621809+840641947+849156868
932+856002743+861715977+866546989+870748938+874625563+878322768+881753039
922+884824335+887690375+890677513+893939261+897238839+900092270+902121182
912+903279934+903742393+903640417+903001211+901810386+899961578+897257960
902+893728317+889993556+887200023+886410937+887887201+890969531+894691408
892+898333102+901430852+903743901+905418568+906812593+908042207+908986383
882+909668764+910264451+910782490+911069642+911112681+911077318+911048397
873+910934153+910627263+910095518+909357214+908510149+907663358+906742895
863+905618204+904483438+903708401+903222093+902500785+901247184+899631592
853+897782647+895411550+891946465+886683286+878819768+867773109+853753429
843+838015223+822519485+809217960+799211766+792225193+786980038+782199946
833+777099943+771067004+763425669+753757204+742287903+729876962+717525096
823+705673177+693953457+681749416+668875605+655590254+642298530+629735652
813+619348895+612910447+611544726+615375708+623991236+636799461+653013217
803+671674072+691733955+712071258+731570269+749223693+764180832+776065578
793+785599034+794565655+804503455+815371586+825846271+834821527+842199902
783+848370455+853599573+858167351+862577982+867205589+871931608+876420504
773+880631363+884806722+889004628+892886940+896081869+898582356+900648550
764+902490163+904250358+906062364+907849493+909276140+910108196+910396308
754+910181526+909308419+907690360+905585582+903500815+901906332+901087091
744+901158777+902073895+903618349+905531510+907630874+909717559+911490228
734+912734235+913414902+913419768+912583463+911275995+910497531+910904410
724+912119153+913441698+914810024+916523206+918368656+919673109+920072449
714+919758295+919072213+918206165+917312840+916641836+916445490+916864293
704+917895574+919324551+920766138+921976837+923009352+923882871+924318259
694+924015961+922971454+921352024+919223397+916444324+912735605+908060985
684+903177272+899641324+898903637+901290908+905915567+911388799+916551784
674+920808491+924169064+927072317+929793959+931605280+931313262+929669092
664+928128476+927097057+926616163+926733902+927318829+928096128+928950320
654+930002093+931293044+932478456+933050704+932930292+932635396+932706944
645+933086478+933259798+933017534+932852439+933421192+934798016+936441706
635+937647128+937912213+937224829+936167232+935464360+935354981+935610883
625+936048533+936741742+937830385+939322206+940934988+942021780+941999370
615+941074109+940140830+939733882+939533972+939148201+938802317+938837063
605+939112496+939392110+939779937+940320180+940594654+940172972+939291229
595+938703287+938738238+938786760+938194911+937301175+936764221+936458428
585+935968487+935643984+936261944+937962105+940140693+942062420+943127351
575+942942587+941643000+939906037+938223832+936122891+932420614+926599578
565+919553999+912589425+906099715+899526326+892300848+884523476+876800382
555+869558045+862648229+855856632+849656678+844929425+841878963+839767537
545+837877746+836296695+835714783+836801782+839618341+843458369+847666007
535+852475568+858341767+864681322+870268455+874863577+879512017+885017734
526+890740768+895335753+898209538+899628851+900161214+900410879+900776775
516+901575936+903350317+906239247+909446581+912481212+916325900+921827573
506+927758193+932231327+934965647+937012035+939371824+942436883+945863453
496+948658904+950041073+950318151+950532042+951308176+952333700+952877576
486+952474946+951269729+950062524+949764612+950457547+951376640+952168536
476+953667759+956795731+960910438+963973031+964993758+965089155+965350745
466+965419894+964845864+964501075+965217174+966085896+965814095+964966139
456+964831061+965078190+965100257+965627480+967542491+970474528+973307536
446+975097817+975244614+973697898+971718535+971663024+974822384+979899086
436+983829988+984296970+981697728+978312415+976440511+977116107+979532230
426+981871801+982919599+982835098+982014212+979565948+974647968+969861914
416+967689699+966109608+963467190+961801501+964589346+971938525+979968715
407+984780400+985360736+983026236+979855910+977907386+978430086+980695025
397+983190509+986920130+993042436+999601639+1002896283+1000660607+994192005
387+987656241+985026707+986064019+986306488+983459911+979889902+979498512
377+983431127+985587168+979475896
##END=
